NAME ATR4518R7_2350_X_CO_M45_10T_yyR
FREQUENCY 2350
GAIN 14.50 dBd
TILT	ELECTRICAL
COMMENT DATE 05.08.2013 -45 degrees polarized system Lever position 10T deg
HORIZONTAL 360
0.00 0.02
1.00 0.04
2.00 0.06
3.00 0.09
4.00 0.13
5.00 0.18
6.00 0.24
7.00 0.30
8.00 0.37
9.00 0.45
10.00 0.54
11.00 0.64
12.00 0.74
13.00 0.86
14.00 0.98
15.00 1.11
16.00 1.24
17.00 1.39
18.00 1.54
19.00 1.71
20.00 1.88
21.00 2.05
22.00 2.24
23.00 2.43
24.00 2.63
25.00 2.84
26.00 3.05
27.00 3.27
28.00 3.49
29.00 3.72
30.00 3.96
31.00 4.21
32.00 4.45
33.00 4.71
34.00 4.97
35.00 5.23
36.00 5.50
37.00 5.78
38.00 6.06
39.00 6.34
40.00 6.63
41.00 6.93
42.00 7.23
43.00 7.53
44.00 7.84
45.00 8.16
46.00 8.48
47.00 8.81
48.00 9.14
49.00 9.48
50.00 9.82
51.00 10.17
52.00 10.53
53.00 10.89
54.00 11.27
55.00 11.64
56.00 12.03
57.00 12.42
58.00 12.83
59.00 13.24
60.00 13.66
61.00 14.09
62.00 14.52
63.00 14.97
64.00 15.43
65.00 15.90
66.00 16.38
67.00 16.88
68.00 17.39
69.00 17.91
70.00 18.45
71.00 19.01
72.00 19.58
73.00 20.17
74.00 20.78
75.00 21.42
76.00 22.08
77.00 22.77
78.00 23.48
79.00 24.23
80.00 25.01
81.00 25.82
82.00 26.67
83.00 27.57
84.00 28.51
85.00 29.50
86.00 30.55
87.00 31.66
88.00 32.83
89.00 34.06
90.00 35.38
91.00 36.77
92.00 38.24
93.00 39.79
94.00 41.41
95.00 43.06
96.00 44.67
97.00 46.10
98.00 47.13
99.00 47.61
100.00 47.54
101.00 47.04
102.00 46.31
103.00 45.53
104.00 44.70
105.00 43.91
106.00 43.16
107.00 42.45
108.00 41.80
109.00 41.17
110.00 40.60
111.00 40.07
112.00 39.58
113.00 39.11
114.00 38.68
115.00 38.28
116.00 37.89
117.00 37.53
118.00 37.18
119.00 36.84
120.00 36.52
121.00 36.20
122.00 35.91
123.00 35.63
124.00 35.36
125.00 35.13
126.00 34.92
127.00 34.74
128.00 34.59
129.00 34.48
130.00 34.41
131.00 34.38
132.00 34.39
133.00 34.43
134.00 34.51
135.00 34.64
136.00 34.78
137.00 34.96
138.00 35.16
139.00 35.37
140.00 35.58
141.00 35.80
142.00 36.00
143.00 36.19
144.00 36.36
145.00 36.51
146.00 36.64
147.00 36.75
148.00 36.85
149.00 36.95
150.00 37.03
151.00 37.12
152.00 37.20
153.00 37.29
154.00 37.36
155.00 37.43
156.00 37.49
157.00 37.53
158.00 37.55
159.00 37.56
160.00 37.57
161.00 37.57
162.00 37.59
163.00 37.64
164.00 37.73
165.00 37.87
166.00 38.09
167.00 38.40
168.00 38.82
169.00 39.36
170.00 40.05
171.00 40.88
172.00 41.89
173.00 43.07
174.00 44.32
175.00 45.47
176.00 46.08
177.00 45.85
178.00 44.88
179.00 43.59
180.00 42.30
181.00 41.16
182.00 40.22
183.00 39.48
184.00 38.93
185.00 38.58
186.00 38.42
187.00 38.46
188.00 38.69
189.00 39.15
190.00 39.86
191.00 40.87
192.00 42.27
193.00 44.16
194.00 46.69
195.00 49.66
196.00 50.80
197.00 48.16
198.00 44.93
199.00 42.32
200.00 40.29
201.00 38.71
202.00 37.46
203.00 36.48
204.00 35.73
205.00 35.17
206.00 34.78
207.00 34.57
208.00 34.50
209.00 34.60
210.00 34.84
211.00 35.26
212.00 35.85
213.00 36.63
214.00 37.62
215.00 38.85
216.00 40.33
217.00 42.05
218.00 43.83
219.00 45.15
220.00 45.26
221.00 44.18
222.00 42.69
223.00 41.28
224.00 40.13
225.00 39.24
226.00 38.60
227.00 38.18
228.00 37.99
229.00 37.98
230.00 38.15
231.00 38.49
232.00 38.97
233.00 39.51
234.00 40.04
235.00 40.41
236.00 40.43
237.00 40.04
238.00 39.29
239.00 38.35
240.00 37.37
241.00 36.43
242.00 35.59
243.00 34.88
244.00 34.29
245.00 33.82
246.00 33.47
247.00 33.21
248.00 33.05
249.00 32.94
250.00 32.87
251.00 32.79
252.00 32.65
253.00 32.41
254.00 32.02
255.00 31.47
256.00 30.79
257.00 30.00
258.00 29.14
259.00 28.27
260.00 27.40
261.00 26.56
262.00 25.77
263.00 25.03
264.00 24.33
265.00 23.70
266.00 23.11
267.00 22.57
268.00 22.08
269.00 21.63
270.00 21.21
271.00 20.83
272.00 20.47
273.00 20.13
274.00 19.80
275.00 19.48
276.00 19.17
277.00 18.85
278.00 18.53
279.00 18.19
280.00 17.84
281.00 17.48
282.00 17.10
283.00 16.70
284.00 16.29
285.00 15.87
286.00 15.43
287.00 14.99
288.00 14.55
289.00 14.10
290.00 13.66
291.00 13.22
292.00 12.78
293.00 12.35
294.00 11.93
295.00 11.51
296.00 11.11
297.00 10.72
298.00 10.33
299.00 9.96
300.00 9.59
301.00 9.24
302.00 8.89
303.00 8.55
304.00 8.23
305.00 7.91
306.00 7.60
307.00 7.30
308.00 7.01
309.00 6.72
310.00 6.44
311.00 6.17
312.00 5.91
313.00 5.65
314.00 5.40
315.00 5.16
316.00 4.92
317.00 4.69
318.00 4.47
319.00 4.25
320.00 4.04
321.00 3.84
322.00 3.64
323.00 3.45
324.00 3.26
325.00 3.08
326.00 2.91
327.00 2.74
328.00 2.57
329.00 2.42
330.00 2.26
331.00 2.11
332.00 1.97
333.00 1.83
334.00 1.70
335.00 1.57
336.00 1.44
337.00 1.32
338.00 1.21
339.00 1.10
340.00 0.99
341.00 0.89
342.00 0.79
343.00 0.70
344.00 0.62
345.00 0.54
346.00 0.46
347.00 0.39
348.00 0.33
349.00 0.27
350.00 0.21
351.00 0.16
352.00 0.12
353.00 0.09
354.00 0.06
355.00 0.03
356.00 0.02
357.00 0.01
358.00 0.00
359.00 0.01
VERTICAL 360
0.00 20.37
1.00 19.25
2.00 19.46
3.00 18.61
4.00 14.99
5.00 10.58
6.00 6.78
7.00 3.82
8.00 1.71
9.00 0.43
10.00 0.00
11.00 0.51
12.00 2.19
13.00 5.54
14.00 12.43
15.00 40.02
16.00 13.30
17.00 9.89
18.00 9.90
19.00 12.44
20.00 17.78
21.00 21.09
22.00 17.65
23.00 16.61
24.00 18.19
25.00 21.90
26.00 23.59
27.00 20.16
28.00 17.96
29.00 18.18
30.00 21.58
31.00 31.65
32.00 25.16
33.00 18.86
34.00 16.58
35.00 16.29
36.00 17.77
37.00 21.93
38.00 32.91
39.00 26.41
40.00 20.18
41.00 18.15
42.00 18.08
43.00 19.40
44.00 22.22
45.00 27.65
46.00 40.51
47.00 33.66
48.00 28.47
49.00 27.44
50.00 28.91
51.00 33.90
52.00 38.79
53.00 30.16
54.00 25.97
55.00 24.29
56.00 24.10
57.00 24.92
58.00 26.42
59.00 28.24
60.00 29.76
61.00 30.00
62.00 29.10
63.00 28.30
64.00 28.19
65.00 28.61
66.00 29.09
67.00 29.44
68.00 29.97
69.00 31.08
70.00 32.71
71.00 34.11
72.00 34.48
73.00 34.01
74.00 33.39
75.00 32.84
76.00 32.11
77.00 30.90
78.00 29.31
79.00 27.99
80.00 27.48
81.00 27.77
82.00 28.29
83.00 28.28
84.00 27.56
85.00 26.78
86.00 26.59
87.00 27.24
88.00 28.41
89.00 29.24
90.00 28.94
91.00 27.77
92.00 26.58
93.00 25.85
94.00 25.63
95.00 25.80
96.00 26.26
97.00 26.89
98.00 27.51
99.00 28.09
100.00 28.66
101.00 29.28
102.00 30.04
103.00 30.96
104.00 32.07
105.00 33.53
106.00 35.66
107.00 38.79
108.00 43.03
109.00 46.99
110.00 47.28
111.00 45.33
112.00 44.27
113.00 43.76
114.00 41.12
115.00 38.24
116.00 37.17
117.00 37.94
118.00 40.22
119.00 43.37
120.00 45.68
121.00 45.79
122.00 45.31
123.00 45.70
124.00 47.76
125.00 52.16
126.00 61.31
127.00 51.74
128.00 43.61
129.00 39.51
130.00 37.07
131.00 35.44
132.00 34.81
133.00 35.75
134.00 39.18
135.00 50.12
136.00 49.13
137.00 40.38
138.00 37.76
139.00 37.41
140.00 38.56
141.00 40.75
142.00 42.70
143.00 42.21
144.00 40.41
145.00 39.30
146.00 39.34
147.00 40.91
148.00 44.95
149.00 48.47
150.00 44.38
151.00 43.24
152.00 45.99
153.00 49.97
154.00 48.17
155.00 43.71
156.00 40.46
157.00 40.27
158.00 41.83
159.00 37.86
160.00 33.63
161.00 32.19
162.00 33.30
163.00 37.43
164.00 47.36
165.00 48.69
166.00 44.26
167.00 46.48
168.00 54.89
169.00 50.42
170.00 44.88
171.00 43.35
172.00 44.03
173.00 45.77
174.00 45.96
175.00 44.17
176.00 42.60
177.00 41.42
178.00 40.33
179.00 39.34
180.00 38.31
181.00 37.59
182.00 37.83
183.00 39.22
184.00 40.69
185.00 40.45
186.00 39.72
187.00 40.58
188.00 43.94
189.00 48.57
190.00 48.80
191.00 47.32
192.00 43.98
193.00 40.43
194.00 38.49
195.00 37.25
196.00 34.95
197.00 32.23
198.00 30.39
199.00 29.47
200.00 29.10
201.00 29.28
202.00 30.41
203.00 32.67
204.00 34.45
205.00 32.94
206.00 30.62
207.00 29.42
208.00 29.22
209.00 29.63
210.00 30.51
211.00 31.98
212.00 34.08
213.00 36.53
214.00 38.15
215.00 38.35
216.00 39.17
217.00 42.32
218.00 48.23
219.00 49.48
220.00 44.26
221.00 40.97
222.00 39.78
223.00 39.77
224.00 38.91
225.00 36.85
226.00 35.08
227.00 33.97
228.00 33.16
229.00 32.34
230.00 31.70
231.00 31.69
232.00 32.70
233.00 34.92
234.00 38.33
235.00 42.01
236.00 43.47
237.00 43.46
238.00 44.49
239.00 44.02
240.00 39.82
241.00 36.65
242.00 35.44
243.00 35.84
244.00 37.14
245.00 37.98
246.00 38.00
247.00 38.30
248.00 39.35
249.00 40.63
250.00 41.07
251.00 40.02
252.00 38.28
253.00 37.16
254.00 37.54
255.00 40.20
256.00 46.93
257.00 60.99
258.00 48.84
259.00 44.27
260.00 42.16
261.00 42.61
262.00 43.31
263.00 40.23
264.00 37.82
265.00 37.26
266.00 37.18
267.00 36.51
268.00 35.28
269.00 34.09
270.00 33.94
271.00 35.52
272.00 38.61
273.00 39.90
274.00 37.51
275.00 35.44
276.00 35.12
277.00 36.78
278.00 40.49
279.00 48.57
280.00 47.61
281.00 37.99
282.00 34.35
283.00 33.21
284.00 33.19
285.00 33.29
286.00 33.12
287.00 32.73
288.00 32.33
289.00 31.70
290.00 30.43
291.00 28.95
292.00 27.84
293.00 26.87
294.00 25.55
295.00 23.73
296.00 21.73
297.00 19.75
298.00 17.93
299.00 16.32
300.00 15.01
301.00 14.05
302.00 13.45
303.00 13.27
304.00 13.52
305.00 14.27
306.00 15.60
307.00 17.58
308.00 20.43
309.00 24.56
310.00 28.76
311.00 23.36
312.00 18.73
313.00 16.49
314.00 15.87
315.00 16.66
316.00 18.91
317.00 22.57
318.00 25.28
319.00 23.86
320.00 22.58
321.00 23.49
322.00 27.70
323.00 32.90
324.00 24.86
325.00 20.19
326.00 18.22
327.00 18.29
328.00 20.79
329.00 27.41
330.00 26.39
331.00 19.51
332.00 16.83
333.00 16.67
334.00 18.84
335.00 21.81
336.00 19.67
337.00 16.32
338.00 13.81
339.00 12.38
340.00 12.17
341.00 13.27
342.00 15.76
343.00 19.63
344.00 23.91
345.00 22.92
346.00 19.66
347.00 17.75
348.00 16.72
349.00 16.61
350.00 17.61
351.00 20.18
352.00 25.20
353.00 25.89
354.00 20.48
355.00 18.27
356.00 18.88
357.00 22.67
358.00 29.15
359.00 24.41
