NAME ATR4518R7_1850_X_CO_P45_01T_yL
FREQUENCY 1850
GAIN 15.47 dBd
TILT	ELECTRICAL
COMMENT DATE 05.08.2013 +45 degrees polarized system Lever position 01T deg
HORIZONTAL 360
0.00 0.00
1.00 0.00
2.00 0.01
3.00 0.02
4.00 0.04
5.00 0.06
6.00 0.09
7.00 0.12
8.00 0.15
9.00 0.19
10.00 0.23
11.00 0.28
12.00 0.33
13.00 0.38
14.00 0.43
15.00 0.49
16.00 0.55
17.00 0.62
18.00 0.69
19.00 0.77
20.00 0.85
21.00 0.94
22.00 1.03
23.00 1.13
24.00 1.23
25.00 1.34
26.00 1.46
27.00 1.58
28.00 1.71
29.00 1.85
30.00 1.99
31.00 2.14
32.00 2.30
33.00 2.47
34.00 2.64
35.00 2.82
36.00 3.00
37.00 3.19
38.00 3.39
39.00 3.59
40.00 3.80
41.00 4.01
42.00 4.22
43.00 4.44
44.00 4.67
45.00 4.89
46.00 5.12
47.00 5.35
48.00 5.58
49.00 5.81
50.00 6.04
51.00 6.28
52.00 6.51
53.00 6.75
54.00 6.98
55.00 7.22
56.00 7.46
57.00 7.70
58.00 7.94
59.00 8.18
60.00 8.42
61.00 8.66
62.00 8.91
63.00 9.16
64.00 9.41
65.00 9.67
66.00 9.93
67.00 10.19
68.00 10.46
69.00 10.74
70.00 11.02
71.00 11.30
72.00 11.60
73.00 11.89
74.00 12.20
75.00 12.50
76.00 12.82
77.00 13.14
78.00 13.46
79.00 13.78
80.00 14.10
81.00 14.43
82.00 14.76
83.00 15.08
84.00 15.40
85.00 15.72
86.00 16.03
87.00 16.33
88.00 16.63
89.00 16.92
90.00 17.20
91.00 17.48
92.00 17.76
93.00 18.03
94.00 18.31
95.00 18.59
96.00 18.88
97.00 19.18
98.00 19.50
99.00 19.83
100.00 20.19
101.00 20.57
102.00 20.99
103.00 21.43
104.00 21.90
105.00 22.41
106.00 22.95
107.00 23.52
108.00 24.13
109.00 24.76
110.00 25.41
111.00 26.08
112.00 26.75
113.00 27.41
114.00 28.05
115.00 28.66
116.00 29.24
117.00 29.78
118.00 30.29
119.00 30.79
120.00 31.29
121.00 31.83
122.00 32.41
123.00 33.08
124.00 33.86
125.00 34.76
126.00 35.81
127.00 37.00
128.00 38.26
129.00 39.40
130.00 40.02
131.00 39.78
132.00 38.77
133.00 37.41
134.00 36.03
135.00 34.76
136.00 33.67
137.00 32.74
138.00 31.97
139.00 31.36
140.00 30.87
141.00 30.50
142.00 30.25
143.00 30.10
144.00 30.05
145.00 30.09
146.00 30.21
147.00 30.39
148.00 30.63
149.00 30.90
150.00 31.18
151.00 31.43
152.00 31.64
153.00 31.76
154.00 31.77
155.00 31.68
156.00 31.50
157.00 31.25
158.00 30.96
159.00 30.65
160.00 30.37
161.00 30.12
162.00 29.92
163.00 29.79
164.00 29.72
165.00 29.73
166.00 29.81
167.00 29.97
168.00 30.21
169.00 30.52
170.00 30.91
171.00 31.37
172.00 31.90
173.00 32.47
174.00 33.08
175.00 33.68
176.00 34.25
177.00 34.75
178.00 35.12
179.00 35.36
180.00 35.45
181.00 35.42
182.00 35.31
183.00 35.17
184.00 35.04
185.00 34.94
186.00 34.91
187.00 34.95
188.00 35.07
189.00 35.30
190.00 35.63
191.00 36.08
192.00 36.66
193.00 37.37
194.00 38.24
195.00 39.29
196.00 40.56
197.00 42.10
198.00 43.99
199.00 46.34
200.00 49.29
201.00 52.55
202.00 53.72
203.00 51.33
204.00 48.45
205.00 46.13
206.00 44.33
207.00 42.91
208.00 41.78
209.00 40.86
210.00 40.11
211.00 39.51
212.00 39.03
213.00 38.67
214.00 38.41
215.00 38.26
216.00 38.21
217.00 38.28
218.00 38.46
219.00 38.77
220.00 39.23
221.00 39.85
222.00 40.66
223.00 41.68
224.00 42.91
225.00 44.29
226.00 45.52
227.00 45.97
228.00 45.14
229.00 43.43
230.00 41.52
231.00 39.72
232.00 38.13
233.00 36.75
234.00 35.55
235.00 34.51
236.00 33.61
237.00 32.82
238.00 32.14
239.00 31.54
240.00 31.01
241.00 30.55
242.00 30.14
243.00 29.76
244.00 29.42
245.00 29.09
246.00 28.77
247.00 28.44
248.00 28.11
249.00 27.76
250.00 27.39
251.00 27.00
252.00 26.60
253.00 26.18
254.00 25.75
255.00 25.31
256.00 24.88
257.00 24.45
258.00 24.03
259.00 23.62
260.00 23.22
261.00 22.84
262.00 22.47
263.00 22.13
264.00 21.80
265.00 21.48
266.00 21.17
267.00 20.88
268.00 20.60
269.00 20.33
270.00 20.06
271.00 19.79
272.00 19.53
273.00 19.26
274.00 18.99
275.00 18.72
276.00 18.44
277.00 18.15
278.00 17.86
279.00 17.56
280.00 17.25
281.00 16.94
282.00 16.62
283.00 16.30
284.00 15.97
285.00 15.64
286.00 15.31
287.00 14.98
288.00 14.65
289.00 14.31
290.00 13.99
291.00 13.66
292.00 13.34
293.00 13.03
294.00 12.72
295.00 12.41
296.00 12.12
297.00 11.83
298.00 11.54
299.00 11.27
300.00 10.99
301.00 10.73
302.00 10.47
303.00 10.22
304.00 9.97
305.00 9.73
306.00 9.50
307.00 9.27
308.00 9.04
309.00 8.81
310.00 8.59
311.00 8.37
312.00 8.15
313.00 7.93
314.00 7.71
315.00 7.48
316.00 7.26
317.00 7.03
318.00 6.79
319.00 6.55
320.00 6.31
321.00 6.06
322.00 5.81
323.00 5.55
324.00 5.29
325.00 5.03
326.00 4.77
327.00 4.51
328.00 4.25
329.00 3.99
330.00 3.73
331.00 3.48
332.00 3.23
333.00 2.99
334.00 2.76
335.00 2.54
336.00 2.32
337.00 2.11
338.00 1.92
339.00 1.73
340.00 1.55
341.00 1.38
342.00 1.23
343.00 1.08
344.00 0.94
345.00 0.82
346.00 0.70
347.00 0.60
348.00 0.50
349.00 0.42
350.00 0.34
351.00 0.27
352.00 0.21
353.00 0.16
354.00 0.11
355.00 0.08
356.00 0.05
357.00 0.03
358.00 0.01
359.00 0.00
VERTICAL 360
0.00 0.67
1.00 0.06
2.00 0.11
3.00 0.84
4.00 2.38
5.00 4.93
6.00 9.01
7.00 16.30
8.00 31.77
9.00 17.86
10.00 14.97
11.00 15.29
12.00 18.34
13.00 26.45
14.00 24.20
15.00 17.17
16.00 14.18
17.00 13.15
18.00 13.53
19.00 15.16
20.00 17.81
21.00 20.16
22.00 20.04
23.00 18.82
24.00 18.16
25.00 18.44
26.00 19.94
27.00 23.39
28.00 29.25
29.00 25.08
30.00 19.89
31.00 17.24
32.00 16.10
33.00 15.96
34.00 16.42
35.00 17.17
36.00 17.98
37.00 18.80
38.00 19.62
39.00 20.29
40.00 20.66
41.00 20.69
42.00 20.50
43.00 20.30
44.00 20.38
45.00 20.88
46.00 21.88
47.00 23.29
48.00 24.93
49.00 26.60
50.00 28.31
51.00 30.36
52.00 32.62
53.00 33.41
54.00 31.68
55.00 29.42
56.00 27.81
57.00 27.10
58.00 27.27
59.00 28.21
60.00 29.67
61.00 31.35
62.00 32.82
63.00 33.80
64.00 34.34
65.00 34.56
66.00 34.48
67.00 34.46
68.00 35.10
69.00 36.59
70.00 38.51
71.00 39.79
72.00 39.71
73.00 39.06
74.00 38.97
75.00 39.62
76.00 39.61
77.00 38.38
78.00 37.58
79.00 37.91
80.00 38.75
81.00 38.77
82.00 37.56
83.00 36.03
84.00 35.09
85.00 35.29
86.00 36.77
87.00 39.01
88.00 40.95
89.00 43.28
90.00 49.58
91.00 56.46
92.00 45.57
93.00 42.84
94.00 42.69
95.00 43.39
96.00 44.19
97.00 45.58
98.00 48.22
99.00 51.99
100.00 53.86
101.00 50.89
102.00 47.94
103.00 46.60
104.00 46.67
105.00 47.46
106.00 48.15
107.00 48.41
108.00 47.97
109.00 46.63
110.00 45.21
111.00 44.36
112.00 44.03
113.00 43.84
114.00 43.34
115.00 42.21
116.00 40.69
117.00 39.37
118.00 38.59
119.00 38.39
120.00 38.53
121.00 38.67
122.00 38.66
123.00 38.83
124.00 39.53
125.00 40.71
126.00 41.76
127.00 42.71
128.00 45.20
129.00 53.81
130.00 50.70
131.00 42.23
132.00 38.48
133.00 36.22
134.00 34.50
135.00 33.20
136.00 32.48
137.00 32.48
138.00 33.20
139.00 34.48
140.00 36.04
141.00 37.47
142.00 38.49
143.00 39.10
144.00 39.42
145.00 39.30
146.00 38.49
147.00 37.33
148.00 36.48
149.00 36.43
150.00 37.46
151.00 39.20
152.00 39.65
153.00 38.43
154.00 37.97
155.00 38.90
156.00 39.55
157.00 38.60
158.00 38.20
159.00 38.75
160.00 37.16
161.00 34.16
162.00 32.50
163.00 32.58
164.00 34.14
165.00 36.51
166.00 38.68
167.00 40.54
168.00 41.47
169.00 39.56
170.00 37.43
171.00 36.79
172.00 37.59
173.00 38.77
174.00 38.27
175.00 36.60
176.00 35.45
177.00 35.12
178.00 35.31
179.00 35.55
180.00 35.63
181.00 35.57
182.00 35.68
183.00 36.25
184.00 37.61
185.00 40.18
186.00 44.60
187.00 52.58
188.00 55.29
189.00 48.88
190.00 45.75
191.00 43.54
192.00 41.42
193.00 39.62
194.00 38.79
195.00 39.63
196.00 43.04
197.00 46.50
198.00 40.92
199.00 37.21
200.00 35.82
201.00 36.02
202.00 37.31
203.00 39.08
204.00 39.90
205.00 38.83
206.00 37.27
207.00 36.35
208.00 36.29
209.00 36.93
210.00 37.86
211.00 38.25
212.00 37.25
213.00 35.23
214.00 33.23
215.00 31.85
216.00 31.36
217.00 31.84
218.00 33.23
219.00 35.12
220.00 36.87
221.00 38.46
222.00 40.92
223.00 45.19
224.00 46.34
225.00 42.02
226.00 39.52
227.00 38.91
228.00 39.74
229.00 41.65
230.00 44.22
231.00 47.02
232.00 49.39
233.00 49.82
234.00 49.23
235.00 49.93
236.00 52.60
237.00 53.98
238.00 50.96
239.00 47.85
240.00 45.03
241.00 42.75
242.00 41.63
243.00 41.91
244.00 43.43
245.00 45.23
246.00 45.97
247.00 45.47
248.00 44.43
249.00 43.80
250.00 43.77
251.00 42.47
252.00 39.58
253.00 37.35
254.00 36.47
255.00 36.75
256.00 37.69
257.00 38.64
258.00 39.08
259.00 38.92
260.00 38.67
261.00 38.96
262.00 39.97
263.00 41.14
264.00 41.67
265.00 41.75
266.00 41.82
267.00 41.73
268.00 41.31
269.00 40.58
270.00 39.59
271.00 38.68
272.00 38.17
273.00 38.03
274.00 37.87
275.00 37.18
276.00 35.87
277.00 34.29
278.00 32.87
279.00 31.85
280.00 31.26
281.00 31.01
282.00 30.95
283.00 30.96
284.00 30.97
285.00 31.01
286.00 31.16
287.00 31.56
288.00 32.34
289.00 33.68
290.00 35.86
291.00 39.22
292.00 42.21
293.00 39.02
294.00 34.71
295.00 31.67
296.00 29.60
297.00 28.27
298.00 27.59
299.00 27.58
300.00 28.31
301.00 29.97
302.00 33.03
303.00 39.23
304.00 47.77
305.00 35.29
306.00 29.96
307.00 26.77
308.00 24.68
309.00 23.32
310.00 22.53
311.00 22.22
312.00 22.31
313.00 22.68
314.00 23.05
315.00 22.99
316.00 22.20
317.00 20.86
318.00 19.42
319.00 18.14
320.00 17.14
321.00 16.45
322.00 16.10
323.00 16.07
324.00 16.40
325.00 17.11
326.00 18.34
327.00 20.40
328.00 24.10
329.00 31.96
330.00 29.53
331.00 22.42
332.00 19.09
333.00 17.71
334.00 17.85
335.00 19.59
336.00 23.79
337.00 34.53
338.00 27.40
339.00 21.57
340.00 19.56
341.00 19.96
342.00 23.10
343.00 30.28
344.00 24.94
345.00 19.48
346.00 17.07
347.00 16.47
348.00 17.39
349.00 20.11
350.00 26.15
351.00 50.14
352.00 27.85
353.00 24.46
354.00 21.69
355.00 16.03
356.00 10.75
357.00 6.80
358.00 3.94
359.00 1.94
