NAME ATR4518R7_0880_X_CO_M45_01T
FREQUENCY 0880
GAIN 14.56 dBd
TILT	ELECTRICAL
COMMENT DATE 05.08.2013 -45 degrees polarized system Lever position 01T deg
HORIZONTAL 360
0.00 0.01
1.00 0.00
2.00 0.00
3.00 0.01
4.00 0.02
5.00 0.04
6.00 0.07
7.00 0.10
8.00 0.14
9.00 0.19
10.00 0.24
11.00 0.30
12.00 0.37
13.00 0.44
14.00 0.52
15.00 0.60
16.00 0.70
17.00 0.80
18.00 0.90
19.00 1.02
20.00 1.13
21.00 1.26
22.00 1.39
23.00 1.53
24.00 1.68
25.00 1.83
26.00 1.99
27.00 2.16
28.00 2.33
29.00 2.51
30.00 2.70
31.00 2.89
32.00 3.09
33.00 3.29
34.00 3.51
35.00 3.72
36.00 3.95
37.00 4.18
38.00 4.42
39.00 4.66
40.00 4.91
41.00 5.17
42.00 5.43
43.00 5.70
44.00 5.98
45.00 6.26
46.00 6.55
47.00 6.84
48.00 7.14
49.00 7.44
50.00 7.76
51.00 8.07
52.00 8.39
53.00 8.72
54.00 9.06
55.00 9.40
56.00 9.74
57.00 10.10
58.00 10.45
59.00 10.81
60.00 11.18
61.00 11.56
62.00 11.94
63.00 12.32
64.00 12.71
65.00 13.11
66.00 13.51
67.00 13.92
68.00 14.33
69.00 14.75
70.00 15.17
71.00 15.60
72.00 16.04
73.00 16.48
74.00 16.93
75.00 17.38
76.00 17.84
77.00 18.31
78.00 18.78
79.00 19.26
80.00 19.74
81.00 20.23
82.00 20.72
83.00 21.22
84.00 21.72
85.00 22.23
86.00 22.75
87.00 23.27
88.00 23.79
89.00 24.31
90.00 24.84
91.00 25.37
92.00 25.90
93.00 26.43
94.00 26.96
95.00 27.48
96.00 28.00
97.00 28.50
98.00 29.00
99.00 29.49
100.00 29.95
101.00 30.39
102.00 30.81
103.00 31.21
104.00 31.57
105.00 31.89
106.00 32.18
107.00 32.44
108.00 32.65
109.00 32.83
110.00 32.96
111.00 33.07
112.00 33.14
113.00 33.18
114.00 33.19
115.00 33.19
116.00 33.16
117.00 33.12
118.00 33.07
119.00 33.00
120.00 32.93
121.00 32.86
122.00 32.79
123.00 32.71
124.00 32.64
125.00 32.57
126.00 32.51
127.00 32.44
128.00 32.39
129.00 32.34
130.00 32.30
131.00 32.26
132.00 32.23
133.00 32.21
134.00 32.20
135.00 32.20
136.00 32.21
137.00 32.22
138.00 32.25
139.00 32.28
140.00 32.33
141.00 32.38
142.00 32.45
143.00 32.52
144.00 32.61
145.00 32.71
146.00 32.82
147.00 32.94
148.00 33.07
149.00 33.22
150.00 33.37
151.00 33.54
152.00 33.72
153.00 33.92
154.00 34.13
155.00 34.35
156.00 34.59
157.00 34.84
158.00 35.10
159.00 35.38
160.00 35.67
161.00 35.98
162.00 36.30
163.00 36.64
164.00 36.98
165.00 37.36
166.00 37.73
167.00 38.13
168.00 38.53
169.00 38.94
170.00 39.38
171.00 39.81
172.00 40.26
173.00 40.72
174.00 41.17
175.00 41.64
176.00 42.10
177.00 42.57
178.00 43.03
179.00 43.48
180.00 43.93
181.00 44.36
182.00 44.76
183.00 45.13
184.00 45.50
185.00 45.82
186.00 46.13
187.00 46.40
188.00 46.64
189.00 46.85
190.00 47.00
191.00 47.13
192.00 47.23
193.00 47.26
194.00 47.29
195.00 47.24
196.00 47.19
197.00 47.12
198.00 47.02
199.00 46.88
200.00 46.77
201.00 46.63
202.00 46.48
203.00 46.32
204.00 46.16
205.00 46.03
206.00 45.89
207.00 45.77
208.00 45.67
209.00 45.60
210.00 45.52
211.00 45.48
212.00 45.44
213.00 45.44
214.00 45.45
215.00 45.46
216.00 45.50
217.00 45.54
218.00 45.59
219.00 45.62
220.00 45.65
221.00 45.65
222.00 45.63
223.00 45.55
224.00 45.44
225.00 45.27
226.00 45.03
227.00 44.73
228.00 44.38
229.00 43.98
230.00 43.55
231.00 43.07
232.00 42.56
233.00 42.06
234.00 41.54
235.00 41.00
236.00 40.47
237.00 39.93
238.00 39.40
239.00 38.87
240.00 38.34
241.00 37.82
242.00 37.29
243.00 36.76
244.00 36.23
245.00 35.70
246.00 35.16
247.00 34.62
248.00 34.07
249.00 33.52
250.00 32.96
251.00 32.39
252.00 31.83
253.00 31.25
254.00 30.67
255.00 30.09
256.00 29.51
257.00 28.93
258.00 28.36
259.00 27.78
260.00 27.21
261.00 26.64
262.00 26.08
263.00 25.52
264.00 24.98
265.00 24.43
266.00 23.90
267.00 23.38
268.00 22.86
269.00 22.35
270.00 21.85
271.00 21.36
272.00 20.88
273.00 20.41
274.00 19.95
275.00 19.49
276.00 19.05
277.00 18.61
278.00 18.18
279.00 17.76
280.00 17.35
281.00 16.94
282.00 16.54
283.00 16.15
284.00 15.76
285.00 15.39
286.00 15.02
287.00 14.65
288.00 14.29
289.00 13.94
290.00 13.59
291.00 13.24
292.00 12.91
293.00 12.57
294.00 12.25
295.00 11.92
296.00 11.60
297.00 11.29
298.00 10.98
299.00 10.67
300.00 10.37
301.00 10.07
302.00 9.78
303.00 9.49
304.00 9.20
305.00 8.91
306.00 8.63
307.00 8.35
308.00 8.08
309.00 7.81
310.00 7.54
311.00 7.28
312.00 7.02
313.00 6.76
314.00 6.51
315.00 6.26
316.00 6.01
317.00 5.77
318.00 5.54
319.00 5.30
320.00 5.07
321.00 4.85
322.00 4.63
323.00 4.41
324.00 4.19
325.00 3.99
326.00 3.78
327.00 3.58
328.00 3.39
329.00 3.20
330.00 3.01
331.00 2.83
332.00 2.65
333.00 2.48
334.00 2.32
335.00 2.16
336.00 2.00
337.00 1.85
338.00 1.71
339.00 1.57
340.00 1.44
341.00 1.31
342.00 1.18
343.00 1.07
344.00 0.96
345.00 0.85
346.00 0.75
347.00 0.66
348.00 0.57
349.00 0.49
350.00 0.42
351.00 0.35
352.00 0.29
353.00 0.23
354.00 0.18
355.00 0.13
356.00 0.10
357.00 0.06
358.00 0.04
359.00 0.02
VERTICAL 360
0.00 0.15
1.00 0.00
2.00 0.20
3.00 0.77
4.00 1.73
5.00 3.13
6.00 5.02
7.00 7.50
8.00 10.76
9.00 15.19
10.00 21.89
11.00 35.23
12.00 28.89
13.00 25.53
14.00 26.23
15.00 30.79
16.00 36.87
17.00 27.48
18.00 22.91
19.00 20.71
20.00 19.90
21.00 20.12
22.00 21.27
23.00 23.42
24.00 26.96
25.00 33.11
26.00 39.17
27.00 32.58
28.00 29.60
29.00 29.41
30.00 31.67
31.00 33.57
32.00 27.93
33.00 22.80
34.00 19.27
35.00 16.74
36.00 14.88
37.00 13.55
38.00 12.66
39.00 12.17
40.00 12.08
41.00 12.36
42.00 12.98
43.00 13.88
44.00 15.03
45.00 16.44
46.00 18.14
47.00 20.26
48.00 23.01
49.00 26.63
50.00 31.41
51.00 36.87
52.00 38.98
53.00 37.37
54.00 35.46
55.00 33.78
56.00 32.49
57.00 31.71
58.00 31.64
59.00 32.57
60.00 34.71
61.00 37.60
62.00 38.63
63.00 37.34
64.00 36.08
65.00 35.16
66.00 34.49
67.00 33.99
68.00 33.30
69.00 32.36
70.00 31.80
71.00 32.18
72.00 33.66
73.00 36.10
74.00 39.11
75.00 39.81
76.00 35.44
77.00 31.52
78.00 29.29
79.00 28.49
80.00 28.90
81.00 30.28
82.00 31.76
83.00 31.13
84.00 28.66
85.00 26.59
86.00 25.59
87.00 25.64
88.00 26.59
89.00 28.25
90.00 30.45
91.00 33.05
92.00 35.30
93.00 35.88
94.00 35.25
95.00 34.31
96.00 33.18
97.00 32.29
98.00 32.31
99.00 33.61
100.00 36.33
101.00 40.02
102.00 41.60
103.00 39.38
104.00 37.03
105.00 35.87
106.00 36.08
107.00 37.68
108.00 40.28
109.00 42.65
110.00 43.19
111.00 42.33
112.00 41.47
113.00 41.53
114.00 42.61
115.00 43.66
116.00 43.43
117.00 42.68
118.00 41.89
119.00 40.74
120.00 39.62
121.00 39.00
122.00 38.69
123.00 38.13
124.00 36.98
125.00 35.40
126.00 33.78
127.00 32.53
128.00 31.83
129.00 31.68
130.00 31.85
131.00 31.99
132.00 31.88
133.00 31.56
134.00 31.33
135.00 31.52
136.00 32.34
137.00 33.82
138.00 35.84
139.00 38.07
140.00 40.25
141.00 42.39
142.00 44.49
143.00 44.61
144.00 41.71
145.00 39.09
146.00 38.05
147.00 38.79
148.00 41.50
149.00 46.02
150.00 47.25
151.00 44.25
152.00 41.86
153.00 39.63
154.00 37.07
155.00 34.48
156.00 32.38
157.00 31.12
158.00 30.93
159.00 31.95
160.00 34.15
161.00 36.35
162.00 35.83
163.00 33.88
164.00 32.50
165.00 31.72
166.00 31.17
167.00 30.63
168.00 30.26
169.00 30.35
170.00 31.09
171.00 32.51
172.00 34.32
173.00 35.65
174.00 35.74
175.00 35.22
176.00 35.00
177.00 37.31
178.00 40.30
179.00 44.56
180.00 49.08
181.00 50.96
182.00 44.58
183.00 40.24
184.00 37.49
185.00 35.65
186.00 34.36
187.00 33.42
188.00 32.68
189.00 32.01
190.00 32.06
191.00 32.16
192.00 32.24
193.00 32.26
194.00 32.19
195.00 32.14
196.00 32.31
197.00 32.88
198.00 33.91
199.00 35.18
200.00 36.19
201.00 36.77
202.00 37.55
203.00 39.33
204.00 43.03
205.00 52.05
206.00 53.37
207.00 44.27
208.00 41.14
209.00 40.16
210.00 40.41
211.00 41.21
212.00 41.71
213.00 41.07
214.00 39.38
215.00 37.72
216.00 36.87
217.00 37.02
218.00 37.92
219.00 38.86
220.00 38.92
221.00 38.07
222.00 37.10
223.00 36.73
224.00 37.40
225.00 39.16
226.00 41.04
227.00 41.15
228.00 40.54
229.00 40.78
230.00 41.77
231.00 42.54
232.00 42.17
233.00 40.82
234.00 39.65
235.00 39.74
236.00 42.06
237.00 49.06
238.00 55.36
239.00 45.02
240.00 42.21
241.00 41.43
242.00 40.66
243.00 39.04
244.00 37.16
245.00 35.76
246.00 35.23
247.00 35.74
248.00 37.26
249.00 39.37
250.00 40.94
251.00 40.53
252.00 38.46
253.00 36.38
254.00 35.14
255.00 34.83
256.00 35.18
257.00 35.72
258.00 35.81
259.00 34.96
260.00 33.57
261.00 32.50
262.00 32.18
263.00 32.59
264.00 33.57
265.00 35.12
266.00 37.67
267.00 40.59
268.00 39.47
269.00 36.90
270.00 36.00
271.00 36.63
272.00 37.91
273.00 39.13
274.00 41.08
275.00 45.31
276.00 48.68
277.00 45.25
278.00 44.81
279.00 49.27
280.00 53.28
281.00 44.87
282.00 41.42
283.00 39.98
284.00 39.27
285.00 38.91
286.00 38.99
287.00 39.44
288.00 39.85
289.00 39.54
290.00 38.06
291.00 35.87
292.00 33.74
293.00 31.93
294.00 30.40
295.00 29.02
296.00 27.75
297.00 26.72
298.00 26.06
299.00 25.90
300.00 26.36
301.00 27.51
302.00 29.45
303.00 32.46
304.00 37.02
305.00 38.08
306.00 31.68
307.00 26.60
308.00 22.86
309.00 20.03
310.00 17.89
311.00 16.32
312.00 15.20
313.00 14.43
314.00 13.93
315.00 13.62
316.00 13.47
317.00 13.47
318.00 13.68
319.00 14.15
320.00 14.95
321.00 16.18
322.00 17.93
323.00 20.32
324.00 23.51
325.00 27.66
326.00 33.04
327.00 40.16
328.00 50.29
329.00 46.39
330.00 40.58
331.00 36.68
332.00 33.49
333.00 30.84
334.00 28.75
335.00 27.10
336.00 25.68
337.00 24.33
338.00 23.05
339.00 22.01
340.00 21.41
341.00 21.48
342.00 22.49
343.00 24.89
344.00 29.97
345.00 43.98
346.00 31.23
347.00 26.06
348.00 24.30
349.00 25.04
350.00 29.50
351.00 28.14
352.00 19.00
353.00 13.38
354.00 9.48
355.00 6.57
356.00 4.37
357.00 2.70
358.00 1.48
359.00 0.64
