NAME ATR4518R7_1750_X_CO_P45_00T_yyR
FREQUENCY 1750
GAIN 15.01 dBd
TILT	ELECTRICAL
COMMENT DATE 05.08.2013 +45 degrees polarized system Lever position 00T deg
HORIZONTAL 360
0.00 0.02
1.00 0.01
2.00 0.01
3.00 0.00
4.00 0.01
5.00 0.02
6.00 0.03
7.00 0.05
8.00 0.08
9.00 0.11
10.00 0.15
11.00 0.19
12.00 0.25
13.00 0.31
14.00 0.37
15.00 0.45
16.00 0.54
17.00 0.64
18.00 0.74
19.00 0.86
20.00 0.98
21.00 1.12
22.00 1.27
23.00 1.43
24.00 1.60
25.00 1.78
26.00 1.97
27.00 2.18
28.00 2.39
29.00 2.62
30.00 2.86
31.00 3.10
32.00 3.36
33.00 3.63
34.00 3.90
35.00 4.18
36.00 4.47
37.00 4.76
38.00 5.05
39.00 5.35
40.00 5.64
41.00 5.93
42.00 6.22
43.00 6.50
44.00 6.77
45.00 7.04
46.00 7.29
47.00 7.54
48.00 7.78
49.00 8.00
50.00 8.22
51.00 8.42
52.00 8.62
53.00 8.82
54.00 9.01
55.00 9.19
56.00 9.37
57.00 9.56
58.00 9.74
59.00 9.93
60.00 10.12
61.00 10.32
62.00 10.52
63.00 10.73
64.00 10.94
65.00 11.16
66.00 11.39
67.00 11.62
68.00 11.86
69.00 12.10
70.00 12.34
71.00 12.59
72.00 12.84
73.00 13.08
74.00 13.33
75.00 13.58
76.00 13.82
77.00 14.07
78.00 14.31
79.00 14.55
80.00 14.78
81.00 15.02
82.00 15.26
83.00 15.49
84.00 15.73
85.00 15.97
86.00 16.21
87.00 16.46
88.00 16.72
89.00 16.98
90.00 17.26
91.00 17.54
92.00 17.83
93.00 18.12
94.00 18.43
95.00 18.75
96.00 19.07
97.00 19.40
98.00 19.73
99.00 20.06
100.00 20.38
101.00 20.71
102.00 21.02
103.00 21.32
104.00 21.61
105.00 21.89
106.00 22.15
107.00 22.39
108.00 22.61
109.00 22.82
110.00 23.02
111.00 23.21
112.00 23.40
113.00 23.58
114.00 23.77
115.00 23.96
116.00 24.16
117.00 24.37
118.00 24.61
119.00 24.85
120.00 25.12
121.00 25.40
122.00 25.71
123.00 26.02
124.00 26.35
125.00 26.69
126.00 27.02
127.00 27.34
128.00 27.65
129.00 27.93
130.00 28.16
131.00 28.35
132.00 28.49
133.00 28.58
134.00 28.61
135.00 28.60
136.00 28.57
137.00 28.51
138.00 28.45
139.00 28.39
140.00 28.35
141.00 28.33
142.00 28.35
143.00 28.41
144.00 28.51
145.00 28.67
146.00 28.89
147.00 29.18
148.00 29.53
149.00 29.97
150.00 30.50
151.00 31.12
152.00 31.85
153.00 32.71
154.00 33.72
155.00 34.90
156.00 36.28
157.00 37.89
158.00 39.70
159.00 41.55
160.00 42.86
161.00 42.87
162.00 41.63
163.00 39.96
164.00 38.36
165.00 36.97
166.00 35.82
167.00 34.86
168.00 34.08
169.00 33.46
170.00 32.97
171.00 32.60
172.00 32.35
173.00 32.20
174.00 32.15
175.00 32.20
176.00 32.35
177.00 32.60
178.00 32.95
179.00 33.42
180.00 33.99
181.00 34.68
182.00 35.49
183.00 36.40
184.00 37.40
185.00 38.40
186.00 39.24
187.00 39.70
188.00 39.58
189.00 38.91
190.00 37.90
191.00 36.78
192.00 35.67
193.00 34.66
194.00 33.75
195.00 32.96
196.00 32.28
197.00 31.71
198.00 31.23
199.00 30.85
200.00 30.56
201.00 30.35
202.00 30.23
203.00 30.18
204.00 30.22
205.00 30.34
206.00 30.55
207.00 30.84
208.00 31.22
209.00 31.70
210.00 32.27
211.00 32.97
212.00 33.78
213.00 34.71
214.00 35.80
215.00 37.02
216.00 38.36
217.00 39.74
218.00 40.98
219.00 41.77
220.00 41.84
221.00 41.24
222.00 40.29
223.00 39.29
224.00 38.36
225.00 37.57
226.00 36.94
227.00 36.47
228.00 36.14
229.00 35.95
230.00 35.90
231.00 35.98
232.00 36.20
233.00 36.56
234.00 37.05
235.00 37.68
236.00 38.46
237.00 39.38
238.00 40.41
239.00 41.51
240.00 42.52
241.00 43.23
242.00 43.41
243.00 43.02
244.00 42.25
245.00 41.34
246.00 40.47
247.00 39.73
248.00 39.14
249.00 38.73
250.00 38.50
251.00 38.47
252.00 38.65
253.00 39.08
254.00 39.79
255.00 40.88
256.00 42.50
257.00 44.97
258.00 49.04
259.00 55.96
260.00 51.55
261.00 45.05
262.00 40.93
263.00 37.94
264.00 35.57
265.00 33.62
266.00 31.95
267.00 30.50
268.00 29.22
269.00 28.07
270.00 27.03
271.00 26.08
272.00 25.21
273.00 24.41
274.00 23.67
275.00 22.98
276.00 22.33
277.00 21.72
278.00 21.14
279.00 20.59
280.00 20.06
281.00 19.56
282.00 19.07
283.00 18.59
284.00 18.13
285.00 17.67
286.00 17.23
287.00 16.78
288.00 16.34
289.00 15.91
290.00 15.47
291.00 15.04
292.00 14.61
293.00 14.18
294.00 13.76
295.00 13.33
296.00 12.91
297.00 12.49
298.00 12.07
299.00 11.66
300.00 11.26
301.00 10.86
302.00 10.46
303.00 10.08
304.00 9.70
305.00 9.32
306.00 8.96
307.00 8.60
308.00 8.25
309.00 7.91
310.00 7.57
311.00 7.25
312.00 6.93
313.00 6.62
314.00 6.33
315.00 6.03
316.00 5.75
317.00 5.48
318.00 5.21
319.00 4.95
320.00 4.70
321.00 4.46
322.00 4.22
323.00 4.00
324.00 3.78
325.00 3.56
326.00 3.36
327.00 3.16
328.00 2.97
329.00 2.79
330.00 2.61
331.00 2.44
332.00 2.28
333.00 2.12
334.00 1.97
335.00 1.82
336.00 1.69
337.00 1.56
338.00 1.43
339.00 1.31
340.00 1.20
341.00 1.09
342.00 0.99
343.00 0.90
344.00 0.81
345.00 0.72
346.00 0.64
347.00 0.57
348.00 0.50
349.00 0.43
350.00 0.37
351.00 0.32
352.00 0.27
353.00 0.22
354.00 0.18
355.00 0.14
356.00 0.11
357.00 0.08
358.00 0.06
359.00 0.04
VERTICAL 360
0.00 0.00
1.00 0.32
2.00 1.32
3.00 3.09
4.00 5.87
5.00 10.13
6.00 17.19
7.00 23.07
8.00 18.06
9.00 15.90
10.00 16.56
11.00 20.03
12.00 30.97
13.00 28.79
14.00 20.03
15.00 17.10
16.00 16.25
17.00 16.83
18.00 18.75
19.00 22.17
20.00 25.69
21.00 23.74
22.00 19.97
23.00 17.69
24.00 16.89
25.00 17.60
26.00 20.31
27.00 26.93
28.00 32.10
29.00 23.87
30.00 20.50
31.00 19.46
32.00 19.63
33.00 20.69
34.00 22.74
35.00 26.32
36.00 32.53
37.00 37.69
38.00 34.34
39.00 33.81
40.00 36.93
41.00 38.69
42.00 35.19
43.00 32.73
44.00 31.24
45.00 29.81
46.00 28.29
47.00 26.81
48.00 25.77
49.00 25.60
50.00 26.70
51.00 29.59
52.00 33.47
53.00 31.19
54.00 26.84
55.00 24.25
56.00 22.85
57.00 22.12
58.00 21.76
59.00 21.75
60.00 22.20
61.00 23.19
62.00 24.69
63.00 26.50
64.00 28.38
65.00 30.24
66.00 32.22
67.00 34.39
68.00 36.64
69.00 38.95
70.00 41.18
71.00 42.10
72.00 40.44
73.00 37.65
74.00 35.93
75.00 36.20
76.00 38.84
77.00 44.22
78.00 50.03
79.00 45.00
80.00 38.67
81.00 34.88
82.00 32.88
83.00 31.89
84.00 31.17
85.00 30.36
86.00 29.67
87.00 29.55
88.00 30.12
89.00 30.70
90.00 30.72
91.00 31.21
92.00 33.73
93.00 39.06
94.00 40.85
95.00 40.47
96.00 45.48
97.00 40.21
98.00 35.24
99.00 34.95
100.00 38.26
101.00 43.67
102.00 46.90
103.00 53.79
104.00 46.26
105.00 40.80
106.00 39.96
107.00 41.39
108.00 43.59
109.00 45.78
110.00 47.47
111.00 46.97
112.00 44.00
113.00 40.69
114.00 38.25
115.00 36.70
116.00 35.81
117.00 35.26
118.00 34.81
119.00 34.76
120.00 35.59
121.00 37.19
122.00 38.66
123.00 39.39
124.00 39.67
125.00 39.75
126.00 39.74
127.00 39.60
128.00 39.71
129.00 40.23
130.00 39.08
131.00 36.52
132.00 34.98
133.00 34.81
134.00 35.52
135.00 36.47
136.00 37.15
137.00 37.52
138.00 37.86
139.00 38.22
140.00 38.26
141.00 37.14
142.00 35.12
143.00 33.85
144.00 34.23
145.00 35.72
146.00 36.14
147.00 35.47
148.00 35.84
149.00 37.81
150.00 41.08
151.00 44.20
152.00 44.65
153.00 44.75
154.00 48.12
155.00 67.40
156.00 53.67
157.00 48.00
158.00 47.56
159.00 50.49
160.00 49.20
161.00 44.75
162.00 44.26
163.00 48.80
164.00 52.90
165.00 45.95
166.00 41.80
167.00 39.01
168.00 37.32
169.00 36.46
170.00 35.70
171.00 35.10
172.00 35.30
173.00 36.28
174.00 37.34
175.00 38.20
176.00 38.92
177.00 39.07
178.00 38.42
179.00 37.32
180.00 36.40
181.00 36.13
182.00 37.89
183.00 43.66
184.00 51.26
185.00 41.76
186.00 37.61
187.00 35.77
188.00 35.04
189.00 35.10
190.00 35.66
191.00 35.98
192.00 35.11
193.00 33.10
194.00 31.04
195.00 29.69
196.00 29.27
197.00 29.64
198.00 30.37
199.00 30.98
200.00 31.55
201.00 32.72
202.00 35.24
203.00 40.51
204.00 47.58
205.00 41.31
206.00 37.40
207.00 36.16
208.00 35.84
209.00 35.45
210.00 34.86
211.00 34.43
212.00 34.31
213.00 34.28
214.00 34.25
215.00 34.56
216.00 35.57
217.00 36.47
218.00 35.32
219.00 33.02
220.00 31.56
221.00 31.63
222.00 33.39
223.00 36.47
224.00 39.07
225.00 39.85
226.00 39.91
227.00 38.95
228.00 37.01
229.00 35.35
230.00 34.81
231.00 35.93
232.00 39.83
233.00 56.68
234.00 41.82
235.00 34.81
236.00 32.21
237.00 31.93
238.00 33.40
239.00 35.93
240.00 38.22
241.00 38.31
242.00 36.03
243.00 33.48
244.00 31.63
245.00 30.59
246.00 30.57
247.00 31.88
248.00 34.86
249.00 40.26
250.00 48.36
251.00 44.33
252.00 39.58
253.00 37.51
254.00 36.38
255.00 35.47
256.00 34.73
257.00 34.05
258.00 33.14
259.00 32.00
260.00 30.83
261.00 30.09
262.00 30.27
263.00 31.44
264.00 32.74
265.00 33.13
266.00 32.49
267.00 30.88
268.00 29.16
269.00 28.35
270.00 28.68
271.00 29.81
272.00 30.86
273.00 30.73
274.00 29.74
275.00 29.14
276.00 29.22
277.00 29.12
278.00 28.15
279.00 26.97
280.00 26.31
281.00 26.28
282.00 26.47
283.00 26.22
284.00 25.23
285.00 23.93
286.00 22.86
287.00 22.28
288.00 22.21
289.00 22.45
290.00 22.84
291.00 23.42
292.00 24.40
293.00 25.99
294.00 28.24
295.00 31.02
296.00 33.89
297.00 36.49
298.00 38.97
299.00 40.13
300.00 37.17
301.00 33.39
302.00 30.48
303.00 27.95
304.00 25.65
305.00 23.87
306.00 22.72
307.00 21.98
308.00 21.37
309.00 20.70
310.00 20.02
311.00 19.44
312.00 19.07
313.00 18.92
314.00 18.95
315.00 18.94
316.00 18.66
317.00 18.04
318.00 17.31
319.00 16.74
320.00 16.51
321.00 16.78
322.00 17.69
323.00 19.52
324.00 22.92
325.00 30.26
326.00 32.37
327.00 23.23
328.00 18.98
329.00 16.88
330.00 16.16
331.00 16.53
332.00 17.88
333.00 20.21
334.00 23.54
335.00 25.72
336.00 23.52
337.00 20.76
338.00 19.47
339.00 19.75
340.00 21.56
341.00 24.35
342.00 24.97
343.00 23.01
344.00 22.01
345.00 23.11
346.00 26.52
347.00 27.25
348.00 22.51
349.00 19.18
350.00 17.87
351.00 18.64
352.00 22.97
353.00 24.99
354.00 15.15
355.00 9.21
356.00 5.43
357.00 2.89
358.00 1.24
359.00 0.30
