NAME ATR4518R7_2535_X_CO_M45_00T_yyR
FREQUENCY 2535
GAIN 15.78 dBd
TILT	ELECTRICAL
COMMENT DATE 05.08.2013 -45 degrees polarized system Lever position 00T deg
HORIZONTAL 360
0.00 0.01
1.00 0.02
2.00 0.04
3.00 0.07
4.00 0.11
5.00 0.15
6.00 0.21
7.00 0.27
8.00 0.34
9.00 0.43
10.00 0.52
11.00 0.62
12.00 0.73
13.00 0.84
14.00 0.96
15.00 1.09
16.00 1.23
17.00 1.37
18.00 1.51
19.00 1.66
20.00 1.81
21.00 1.96
22.00 2.12
23.00 2.28
24.00 2.44
25.00 2.61
26.00 2.78
27.00 2.96
28.00 3.14
29.00 3.34
30.00 3.54
31.00 3.75
32.00 3.98
33.00 4.22
34.00 4.47
35.00 4.75
36.00 5.04
37.00 5.35
38.00 5.68
39.00 6.03
40.00 6.41
41.00 6.81
42.00 7.23
43.00 7.68
44.00 8.15
45.00 8.64
46.00 9.17
47.00 9.71
48.00 10.28
49.00 10.88
50.00 11.51
51.00 12.16
52.00 12.84
53.00 13.56
54.00 14.30
55.00 15.08
56.00 15.89
57.00 16.75
58.00 17.65
59.00 18.59
60.00 19.59
61.00 20.63
62.00 21.73
63.00 22.88
64.00 24.06
65.00 25.25
66.00 26.40
67.00 27.42
68.00 28.23
69.00 28.74
70.00 28.92
71.00 28.83
72.00 28.55
73.00 28.20
74.00 27.83
75.00 27.49
76.00 27.21
77.00 27.00
78.00 26.85
79.00 26.77
80.00 26.76
81.00 26.81
82.00 26.91
83.00 27.06
84.00 27.23
85.00 27.42
86.00 27.62
87.00 27.80
88.00 27.95
89.00 28.06
90.00 28.12
91.00 28.12
92.00 28.09
93.00 28.01
94.00 27.91
95.00 27.81
96.00 27.71
97.00 27.65
98.00 27.61
99.00 27.62
100.00 27.69
101.00 27.82
102.00 28.00
103.00 28.26
104.00 28.60
105.00 29.00
106.00 29.48
107.00 30.03
108.00 30.64
109.00 31.32
110.00 32.04
111.00 32.80
112.00 33.56
113.00 34.31
114.00 35.02
115.00 35.67
116.00 36.24
117.00 36.76
118.00 37.24
119.00 37.70
120.00 38.15
121.00 38.59
122.00 38.97
123.00 39.21
124.00 39.21
125.00 38.89
126.00 38.26
127.00 37.41
128.00 36.44
129.00 35.48
130.00 34.57
131.00 33.76
132.00 33.08
133.00 32.53
134.00 32.10
135.00 31.82
136.00 31.67
137.00 31.67
138.00 31.82
139.00 32.12
140.00 32.60
141.00 33.26
142.00 34.13
143.00 35.27
144.00 36.73
145.00 38.60
146.00 41.08
147.00 44.42
148.00 48.72
149.00 50.19
150.00 46.48
151.00 43.11
152.00 40.73
153.00 39.02
154.00 37.77
155.00 36.86
156.00 36.18
157.00 35.68
158.00 35.30
159.00 35.00
160.00 34.73
161.00 34.47
162.00 34.18
163.00 33.86
164.00 33.51
165.00 33.14
166.00 32.77
167.00 32.43
168.00 32.13
169.00 31.91
170.00 31.75
171.00 31.69
172.00 31.73
173.00 31.86
174.00 32.10
175.00 32.44
176.00 32.88
177.00 33.41
178.00 34.00
179.00 34.63
180.00 35.25
181.00 35.79
182.00 36.21
183.00 36.45
184.00 36.51
185.00 36.44
186.00 36.28
187.00 36.10
188.00 35.96
189.00 35.87
190.00 35.85
191.00 35.90
192.00 36.01
193.00 36.14
194.00 36.26
195.00 36.31
196.00 36.25
197.00 36.07
198.00 35.75
199.00 35.33
200.00 34.86
201.00 34.38
202.00 33.91
203.00 33.49
204.00 33.12
205.00 32.81
206.00 32.54
207.00 32.32
208.00 32.13
209.00 31.94
210.00 31.73
211.00 31.49
212.00 31.19
213.00 30.84
214.00 30.45
215.00 30.01
216.00 29.56
217.00 29.11
218.00 28.68
219.00 28.28
220.00 27.92
221.00 27.62
222.00 27.37
223.00 27.19
224.00 27.08
225.00 27.03
226.00 27.04
227.00 27.13
228.00 27.27
229.00 27.48
230.00 27.75
231.00 28.07
232.00 28.43
233.00 28.84
234.00 29.26
235.00 29.71
236.00 30.16
237.00 30.58
238.00 30.98
239.00 31.33
240.00 31.63
241.00 31.88
242.00 32.07
243.00 32.23
244.00 32.36
245.00 32.48
246.00 32.61
247.00 32.76
248.00 32.94
249.00 33.15
250.00 33.42
251.00 33.74
252.00 34.11
253.00 34.54
254.00 35.03
255.00 35.58
256.00 36.17
257.00 36.82
258.00 37.50
259.00 38.20
260.00 38.87
261.00 39.49
262.00 40.01
263.00 40.36
264.00 40.49
265.00 40.42
266.00 40.13
267.00 39.67
268.00 39.07
269.00 38.39
270.00 37.63
271.00 36.82
272.00 35.96
273.00 35.07
274.00 34.15
275.00 33.21
276.00 32.26
277.00 31.30
278.00 30.35
279.00 29.40
280.00 28.48
281.00 27.57
282.00 26.69
283.00 25.84
284.00 25.01
285.00 24.22
286.00 23.45
287.00 22.71
288.00 22.00
289.00 21.31
290.00 20.64
291.00 20.00
292.00 19.38
293.00 18.78
294.00 18.20
295.00 17.63
296.00 17.07
297.00 16.53
298.00 16.00
299.00 15.48
300.00 14.96
301.00 14.46
302.00 13.96
303.00 13.46
304.00 12.97
305.00 12.49
306.00 12.01
307.00 11.53
308.00 11.06
309.00 10.59
310.00 10.13
311.00 9.68
312.00 9.23
313.00 8.79
314.00 8.36
315.00 7.93
316.00 7.51
317.00 7.11
318.00 6.71
319.00 6.32
320.00 5.94
321.00 5.58
322.00 5.23
323.00 4.89
324.00 4.56
325.00 4.24
326.00 3.94
327.00 3.65
328.00 3.37
329.00 3.11
330.00 2.86
331.00 2.62
332.00 2.40
333.00 2.19
334.00 1.99
335.00 1.80
336.00 1.63
337.00 1.47
338.00 1.32
339.00 1.19
340.00 1.06
341.00 0.94
342.00 0.83
343.00 0.73
344.00 0.64
345.00 0.56
346.00 0.48
347.00 0.41
348.00 0.35
349.00 0.29
350.00 0.24
351.00 0.19
352.00 0.15
353.00 0.11
354.00 0.08
355.00 0.05
356.00 0.03
357.00 0.02
358.00 0.01
359.00 0.00
VERTICAL 360
0.00 0.00
1.00 0.54
2.00 2.52
3.00 6.57
4.00 15.43
5.00 31.43
6.00 13.66
7.00 12.29
8.00 14.33
9.00 16.60
10.00 14.37
11.00 12.22
12.00 12.42
13.00 15.28
14.00 19.96
15.00 18.43
16.00 15.48
17.00 15.46
18.00 18.40
19.00 23.82
20.00 21.22
21.00 16.35
22.00 13.89
23.00 12.99
24.00 13.18
25.00 14.03
26.00 14.93
27.00 15.26
28.00 14.76
29.00 13.80
30.00 13.04
31.00 13.10
32.00 14.45
33.00 17.89
34.00 26.26
35.00 28.22
36.00 20.45
37.00 18.36
38.00 19.06
39.00 22.41
40.00 30.90
41.00 31.65
42.00 23.88
43.00 21.41
44.00 21.73
45.00 24.96
46.00 33.39
47.00 30.83
48.00 24.69
49.00 22.47
50.00 22.05
51.00 22.85
52.00 25.06
53.00 29.90
54.00 36.76
55.00 29.81
56.00 25.39
57.00 24.26
58.00 25.51
59.00 29.71
60.00 47.54
61.00 34.35
62.00 26.94
63.00 23.84
64.00 22.42
65.00 21.96
66.00 22.02
67.00 22.28
68.00 22.50
69.00 22.75
70.00 23.29
71.00 24.11
72.00 24.99
73.00 25.53
74.00 25.61
75.00 25.70
76.00 26.33
77.00 27.65
78.00 29.73
79.00 32.68
80.00 35.89
81.00 39.50
82.00 47.10
83.00 43.73
84.00 35.18
85.00 30.45
86.00 28.51
87.00 28.89
88.00 29.85
89.00 30.65
90.00 35.57
91.00 33.95
92.00 27.04
93.00 25.36
94.00 27.97
95.00 37.16
96.00 39.80
97.00 35.64
98.00 40.45
99.00 50.68
100.00 42.85
101.00 37.50
102.00 36.66
103.00 40.21
104.00 40.85
105.00 38.36
106.00 38.60
107.00 38.16
108.00 38.19
109.00 39.87
110.00 38.38
111.00 36.04
112.00 35.39
113.00 36.18
114.00 38.65
115.00 42.11
116.00 43.37
117.00 40.03
118.00 36.21
119.00 35.34
120.00 38.08
121.00 44.19
122.00 46.40
123.00 45.88
124.00 43.10
125.00 40.62
126.00 41.21
127.00 44.79
128.00 50.91
129.00 55.88
130.00 64.95
131.00 53.44
132.00 44.13
133.00 40.40
134.00 39.25
135.00 39.09
136.00 38.35
137.00 37.56
138.00 38.39
139.00 41.74
140.00 47.13
141.00 49.25
142.00 46.83
143.00 44.59
144.00 44.19
145.00 44.20
146.00 43.98
147.00 44.54
148.00 42.05
149.00 37.24
150.00 33.70
151.00 31.90
152.00 32.00
153.00 34.22
154.00 38.74
155.00 44.84
156.00 48.45
157.00 48.24
158.00 49.37
159.00 57.15
160.00 52.82
161.00 44.02
162.00 40.31
163.00 39.19
164.00 39.90
165.00 42.17
166.00 47.28
167.00 50.20
168.00 45.06
169.00 42.57
170.00 40.24
171.00 38.57
172.00 39.26
173.00 41.68
174.00 42.41
175.00 40.32
176.00 35.97
177.00 31.63
178.00 29.73
179.00 30.68
180.00 34.63
181.00 40.47
182.00 44.35
183.00 50.06
184.00 51.04
185.00 46.63
186.00 38.06
187.00 34.52
188.00 34.91
189.00 37.10
190.00 36.08
191.00 34.88
192.00 36.34
193.00 39.36
194.00 41.31
195.00 44.12
196.00 49.25
197.00 43.01
198.00 38.48
199.00 37.02
200.00 36.52
201.00 35.73
202.00 35.27
203.00 36.45
204.00 38.33
205.00 35.42
206.00 31.80
207.00 30.18
208.00 29.90
209.00 30.39
210.00 31.42
211.00 32.61
212.00 34.16
213.00 36.90
214.00 38.58
215.00 37.63
216.00 36.80
217.00 35.45
218.00 34.67
219.00 36.01
220.00 39.24
221.00 40.85
222.00 39.09
223.00 37.68
224.00 38.04
225.00 39.58
226.00 41.18
227.00 43.92
228.00 48.78
229.00 50.25
230.00 52.67
231.00 54.70
232.00 46.01
233.00 42.02
234.00 41.51
235.00 43.86
236.00 43.32
237.00 39.15
238.00 37.41
239.00 38.42
240.00 41.93
241.00 45.60
242.00 42.53
243.00 37.54
244.00 34.13
245.00 32.28
246.00 31.47
247.00 31.25
248.00 31.46
249.00 31.99
250.00 32.66
251.00 33.42
252.00 34.07
253.00 34.35
254.00 34.33
255.00 34.03
256.00 33.23
257.00 32.22
258.00 31.57
259.00 31.53
260.00 31.95
261.00 32.63
262.00 33.57
263.00 35.46
264.00 39.88
265.00 49.50
266.00 40.39
267.00 33.39
268.00 29.79
269.00 28.28
270.00 28.41
271.00 29.69
272.00 31.23
273.00 31.51
274.00 30.00
275.00 28.43
276.00 27.89
277.00 28.47
278.00 29.93
279.00 31.94
280.00 33.94
281.00 35.15
282.00 35.06
283.00 34.11
284.00 33.32
285.00 33.13
286.00 32.64
287.00 30.69
288.00 28.11
289.00 26.05
290.00 24.82
291.00 24.37
292.00 24.48
293.00 24.88
294.00 25.39
295.00 26.06
296.00 27.23
297.00 29.57
298.00 32.72
299.00 30.58
300.00 26.07
301.00 23.42
302.00 22.35
303.00 22.34
304.00 23.00
305.00 24.11
306.00 25.57
307.00 26.70
308.00 26.27
309.00 24.97
310.00 24.08
311.00 23.64
312.00 23.40
313.00 23.79
314.00 25.57
315.00 27.23
316.00 24.58
317.00 21.57
318.00 20.58
319.00 21.73
320.00 25.41
321.00 29.88
322.00 25.89
323.00 21.91
324.00 20.33
325.00 20.33
326.00 21.29
327.00 22.70
328.00 24.35
329.00 26.32
330.00 27.74
331.00 25.85
332.00 21.73
333.00 18.56
334.00 17.17
335.00 17.72
336.00 20.59
337.00 26.79
338.00 27.56
339.00 21.92
340.00 19.69
341.00 20.35
342.00 24.70
343.00 34.37
344.00 26.36
345.00 22.37
346.00 22.70
347.00 26.75
348.00 28.75
349.00 23.44
350.00 21.02
351.00 21.46
352.00 23.80
353.00 27.56
354.00 35.35
355.00 20.17
356.00 11.37
357.00 6.09
358.00 2.70
359.00 0.72
