NAME ATR4518R7_1850_X_CO_P45_06T_yyR
FREQUENCY 1850
GAIN 15.37 dBd
TILT	ELECTRICAL
COMMENT DATE 05.08.2013 +45 degrees polarized system Lever position 06T deg
HORIZONTAL 360
0.00 0.02
1.00 0.01
2.00 0.00
3.00 0.00
4.00 0.01
5.00 0.03
6.00 0.06
7.00 0.09
8.00 0.12
9.00 0.17
10.00 0.22
11.00 0.29
12.00 0.36
13.00 0.43
14.00 0.52
15.00 0.61
16.00 0.71
17.00 0.82
18.00 0.94
19.00 1.07
20.00 1.21
21.00 1.35
22.00 1.50
23.00 1.67
24.00 1.83
25.00 2.01
26.00 2.20
27.00 2.39
28.00 2.60
29.00 2.81
30.00 3.02
31.00 3.25
32.00 3.48
33.00 3.72
34.00 3.96
35.00 4.21
36.00 4.47
37.00 4.73
38.00 4.99
39.00 5.26
40.00 5.53
41.00 5.80
42.00 6.08
43.00 6.35
44.00 6.63
45.00 6.91
46.00 7.18
47.00 7.46
48.00 7.74
49.00 8.01
50.00 8.28
51.00 8.55
52.00 8.82
53.00 9.08
54.00 9.35
55.00 9.61
56.00 9.88
57.00 10.14
58.00 10.41
59.00 10.68
60.00 10.94
61.00 11.22
62.00 11.49
63.00 11.77
64.00 12.06
65.00 12.35
66.00 12.65
67.00 12.96
68.00 13.27
69.00 13.59
70.00 13.92
71.00 14.26
72.00 14.61
73.00 14.97
74.00 15.34
75.00 15.72
76.00 16.11
77.00 16.50
78.00 16.90
79.00 17.31
80.00 17.73
81.00 18.15
82.00 18.58
83.00 19.00
84.00 19.44
85.00 19.87
86.00 20.30
87.00 20.72
88.00 21.15
89.00 21.57
90.00 21.99
91.00 22.41
92.00 22.82
93.00 23.24
94.00 23.65
95.00 24.06
96.00 24.48
97.00 24.90
98.00 25.33
99.00 25.77
100.00 26.22
101.00 26.68
102.00 27.14
103.00 27.61
104.00 28.09
105.00 28.56
106.00 29.03
107.00 29.48
108.00 29.90
109.00 30.29
110.00 30.62
111.00 30.91
112.00 31.13
113.00 31.30
114.00 31.41
115.00 31.48
116.00 31.53
117.00 31.56
118.00 31.59
119.00 31.63
120.00 31.70
121.00 31.80
122.00 31.95
123.00 32.16
124.00 32.43
125.00 32.77
126.00 33.20
127.00 33.71
128.00 34.33
129.00 35.05
130.00 35.92
131.00 36.94
132.00 38.14
133.00 39.55
134.00 41.22
135.00 43.14
136.00 45.17
137.00 46.79
138.00 47.03
139.00 45.79
140.00 44.04
141.00 42.40
142.00 41.02
143.00 39.89
144.00 38.98
145.00 38.26
146.00 37.70
147.00 37.29
148.00 36.99
149.00 36.79
150.00 36.68
151.00 36.64
152.00 36.64
153.00 36.68
154.00 36.71
155.00 36.72
156.00 36.68
157.00 36.57
158.00 36.37
159.00 36.08
160.00 35.72
161.00 35.30
162.00 34.84
163.00 34.38
164.00 33.93
165.00 33.50
166.00 33.11
167.00 32.76
168.00 32.47
169.00 32.23
170.00 32.05
171.00 31.93
172.00 31.87
173.00 31.87
174.00 31.93
175.00 32.05
176.00 32.23
177.00 32.47
178.00 32.75
179.00 33.08
180.00 33.43
181.00 33.80
182.00 34.17
183.00 34.50
184.00 34.76
185.00 34.91
186.00 34.95
187.00 34.86
188.00 34.65
189.00 34.34
190.00 33.98
191.00 33.59
192.00 33.20
193.00 32.83
194.00 32.50
195.00 32.22
196.00 31.99
197.00 31.82
198.00 31.71
199.00 31.68
200.00 31.71
201.00 31.82
202.00 32.00
203.00 32.25
204.00 32.57
205.00 32.97
206.00 33.44
207.00 33.96
208.00 34.51
209.00 35.06
210.00 35.55
211.00 35.91
212.00 36.06
213.00 35.95
214.00 35.59
215.00 35.02
216.00 34.33
217.00 33.58
218.00 32.82
219.00 32.10
220.00 31.43
221.00 30.82
222.00 30.27
223.00 29.79
224.00 29.37
225.00 29.01
226.00 28.71
227.00 28.46
228.00 28.27
229.00 28.12
230.00 28.03
231.00 27.97
232.00 27.96
233.00 27.97
234.00 28.02
235.00 28.09
236.00 28.19
237.00 28.29
238.00 28.41
239.00 28.52
240.00 28.62
241.00 28.70
242.00 28.76
243.00 28.80
244.00 28.80
245.00 28.76
246.00 28.69
247.00 28.59
248.00 28.46
249.00 28.32
250.00 28.15
251.00 27.97
252.00 27.77
253.00 27.58
254.00 27.38
255.00 27.18
256.00 26.99
257.00 26.79
258.00 26.59
259.00 26.40
260.00 26.20
261.00 26.00
262.00 25.80
263.00 25.59
264.00 25.37
265.00 25.15
266.00 24.91
267.00 24.67
268.00 24.42
269.00 24.17
270.00 23.90
271.00 23.62
272.00 23.34
273.00 23.05
274.00 22.75
275.00 22.44
276.00 22.12
277.00 21.80
278.00 21.47
279.00 21.14
280.00 20.79
281.00 20.45
282.00 20.09
283.00 19.73
284.00 19.36
285.00 18.98
286.00 18.60
287.00 18.21
288.00 17.82
289.00 17.43
290.00 17.03
291.00 16.62
292.00 16.22
293.00 15.81
294.00 15.40
295.00 15.00
296.00 14.59
297.00 14.18
298.00 13.78
299.00 13.37
300.00 12.97
301.00 12.57
302.00 12.18
303.00 11.79
304.00 11.40
305.00 11.02
306.00 10.64
307.00 10.26
308.00 9.89
309.00 9.53
310.00 9.17
311.00 8.82
312.00 8.47
313.00 8.13
314.00 7.79
315.00 7.46
316.00 7.14
317.00 6.82
318.00 6.51
319.00 6.21
320.00 5.92
321.00 5.63
322.00 5.35
323.00 5.07
324.00 4.81
325.00 4.55
326.00 4.30
327.00 4.05
328.00 3.82
329.00 3.59
330.00 3.37
331.00 3.15
332.00 2.95
333.00 2.75
334.00 2.56
335.00 2.38
336.00 2.20
337.00 2.03
338.00 1.87
339.00 1.72
340.00 1.57
341.00 1.43
342.00 1.30
343.00 1.17
344.00 1.05
345.00 0.94
346.00 0.83
347.00 0.73
348.00 0.64
349.00 0.55
350.00 0.47
351.00 0.40
352.00 0.33
353.00 0.27
354.00 0.22
355.00 0.17
356.00 0.12
357.00 0.09
358.00 0.06
359.00 0.03
VERTICAL 360
0.00 14.35
1.00 8.84
2.00 5.17
3.00 2.68
4.00 1.06
5.00 0.19
6.00 0.00
7.00 0.51
8.00 1.81
9.00 4.03
10.00 7.55
11.00 13.44
12.00 26.84
13.00 21.24
14.00 15.81
15.00 14.83
16.00 16.24
17.00 20.10
18.00 24.90
19.00 21.55
20.00 17.79
21.00 16.23
22.00 16.24
23.00 17.67
24.00 20.79
25.00 25.78
26.00 26.47
27.00 22.30
28.00 20.16
29.00 19.93
30.00 21.40
31.00 25.07
32.00 34.44
33.00 34.09
34.00 25.05
35.00 21.40
36.00 19.81
37.00 19.67
38.00 20.97
39.00 24.14
40.00 31.06
41.00 63.36
42.00 31.17
43.00 27.28
44.00 25.86
45.00 25.33
46.00 25.16
47.00 25.24
48.00 25.73
49.00 26.79
50.00 28.34
51.00 29.45
52.00 28.86
53.00 27.48
54.00 26.70
55.00 27.02
56.00 28.54
57.00 31.28
58.00 34.33
59.00 34.43
60.00 31.96
61.00 29.79
62.00 28.35
63.00 27.52
64.00 27.24
65.00 27.44
66.00 28.02
67.00 28.85
68.00 29.80
69.00 30.64
70.00 31.11
71.00 31.06
72.00 30.64
73.00 30.16
74.00 29.83
75.00 29.63
76.00 29.33
77.00 28.72
78.00 27.82
79.00 26.93
80.00 26.34
81.00 26.19
82.00 26.40
83.00 26.71
84.00 26.80
85.00 26.57
86.00 26.24
87.00 26.17
88.00 26.61
89.00 27.64
90.00 28.96
91.00 29.93
92.00 29.96
93.00 29.31
94.00 28.74
95.00 28.69
96.00 29.22
97.00 30.13
98.00 31.09
99.00 31.92
100.00 32.79
101.00 34.17
102.00 36.58
103.00 40.41
104.00 44.74
105.00 45.61
106.00 44.14
107.00 43.11
108.00 42.73
109.00 42.91
110.00 43.40
111.00 44.09
112.00 45.23
113.00 47.19
114.00 50.71
115.00 58.63
116.00 64.30
117.00 54.70
118.00 51.86
119.00 50.33
120.00 49.37
121.00 49.55
122.00 49.81
123.00 47.63
124.00 44.72
125.00 42.91
126.00 42.30
127.00 42.75
128.00 44.00
129.00 45.38
130.00 45.69
131.00 44.48
132.00 42.62
133.00 40.81
134.00 39.22
135.00 38.00
136.00 37.50
137.00 38.03
138.00 39.39
139.00 39.82
140.00 37.85
141.00 35.56
142.00 34.20
143.00 33.85
144.00 34.43
145.00 35.77
146.00 37.67
147.00 39.74
148.00 40.99
149.00 40.34
150.00 38.58
151.00 37.01
152.00 35.93
153.00 35.12
154.00 34.51
155.00 34.34
156.00 34.51
157.00 34.18
158.00 33.13
159.00 32.51
160.00 33.28
161.00 35.84
162.00 40.32
163.00 45.67
164.00 51.25
165.00 54.16
166.00 45.59
167.00 41.63
168.00 39.46
169.00 37.29
170.00 35.23
171.00 33.97
172.00 33.63
173.00 33.89
174.00 34.34
175.00 34.40
176.00 33.95
177.00 33.51
178.00 33.92
179.00 35.81
180.00 39.76
181.00 46.12
182.00 48.20
183.00 43.83
184.00 41.71
185.00 42.80
186.00 50.31
187.00 52.68
188.00 44.41
189.00 41.76
190.00 37.14
191.00 32.85
192.00 30.72
193.00 30.62
194.00 32.19
195.00 34.67
196.00 36.30
197.00 35.65
198.00 33.77
199.00 32.54
200.00 32.90
201.00 35.09
202.00 38.05
203.00 38.74
204.00 38.22
205.00 38.74
206.00 40.44
207.00 44.55
208.00 58.27
209.00 42.38
210.00 35.71
211.00 32.33
212.00 30.48
213.00 29.54
214.00 29.16
215.00 29.11
216.00 29.25
217.00 29.65
218.00 30.50
219.00 31.91
220.00 33.58
221.00 34.62
222.00 34.88
223.00 35.63
224.00 38.10
225.00 43.72
226.00 48.32
227.00 42.26
228.00 40.02
229.00 40.87
230.00 42.92
231.00 40.82
232.00 37.31
233.00 35.43
234.00 34.97
235.00 35.57
236.00 37.04
237.00 39.17
238.00 41.43
239.00 42.57
240.00 41.79
241.00 40.70
242.00 40.73
243.00 41.64
244.00 41.48
245.00 39.76
246.00 38.15
247.00 37.18
248.00 36.95
249.00 37.66
250.00 39.33
251.00 41.50
252.00 43.19
253.00 43.11
254.00 41.75
255.00 41.51
256.00 44.07
257.00 53.26
258.00 55.34
259.00 46.93
260.00 43.64
261.00 40.96
262.00 39.37
263.00 39.23
264.00 39.78
265.00 39.77
266.00 39.25
267.00 38.63
268.00 37.44
269.00 35.72
270.00 34.06
271.00 32.75
272.00 31.88
273.00 31.51
274.00 31.64
275.00 32.13
276.00 32.76
277.00 33.28
278.00 33.38
279.00 32.89
280.00 31.96
281.00 30.95
282.00 30.05
283.00 29.24
284.00 28.43
285.00 27.53
286.00 26.59
287.00 25.72
288.00 24.99
289.00 24.39
290.00 23.84
291.00 23.30
292.00 22.80
293.00 22.42
294.00 22.27
295.00 22.41
296.00 22.92
297.00 23.90
298.00 25.46
299.00 27.48
300.00 28.96
301.00 28.57
302.00 27.24
303.00 26.31
304.00 26.08
305.00 26.40
306.00 26.94
307.00 27.69
308.00 29.22
309.00 32.38
310.00 34.93
311.00 30.62
312.00 26.29
313.00 23.49
314.00 21.61
315.00 20.32
316.00 19.47
317.00 19.06
318.00 19.15
319.00 19.78
320.00 20.84
321.00 21.99
322.00 22.54
323.00 21.96
324.00 20.68
325.00 19.57
326.00 19.11
327.00 19.31
328.00 19.79
329.00 19.97
330.00 19.78
331.00 19.90
332.00 21.09
333.00 24.15
334.00 30.00
335.00 29.89
336.00 24.09
337.00 21.14
338.00 19.97
339.00 20.12
340.00 21.61
341.00 24.76
342.00 28.94
343.00 27.88
344.00 24.40
345.00 22.88
346.00 23.29
347.00 25.65
348.00 28.24
349.00 25.19
350.00 21.17
351.00 18.98
352.00 18.56
353.00 20.17
354.00 25.44
355.00 38.84
356.00 25.08
357.00 21.73
358.00 22.88
359.00 21.98
