NAME ATR4518R7_0880_X_CO_P45_09T
FREQUENCY 0880
GAIN 14.73 dBd
TILT	ELECTRICAL
COMMENT DATE 05.08.2013 +45 degrees polarized system Lever position 09T deg
HORIZONTAL 360
0.00 0.01
1.00 0.00
2.00 0.00
3.00 0.00
4.00 0.01
5.00 0.02
6.00 0.04
7.00 0.07
8.00 0.10
9.00 0.14
10.00 0.19
11.00 0.24
12.00 0.30
13.00 0.36
14.00 0.43
15.00 0.51
16.00 0.59
17.00 0.68
18.00 0.77
19.00 0.87
20.00 0.98
21.00 1.09
22.00 1.21
23.00 1.33
24.00 1.46
25.00 1.60
26.00 1.74
27.00 1.89
28.00 2.04
29.00 2.20
30.00 2.36
31.00 2.53
32.00 2.71
33.00 2.89
34.00 3.08
35.00 3.27
36.00 3.47
37.00 3.67
38.00 3.88
39.00 4.09
40.00 4.31
41.00 4.54
42.00 4.77
43.00 5.00
44.00 5.24
45.00 5.48
46.00 5.73
47.00 5.98
48.00 6.24
49.00 6.50
50.00 6.77
51.00 7.04
52.00 7.32
53.00 7.60
54.00 7.88
55.00 8.17
56.00 8.46
57.00 8.76
58.00 9.06
59.00 9.37
60.00 9.68
61.00 9.99
62.00 10.31
63.00 10.63
64.00 10.96
65.00 11.29
66.00 11.62
67.00 11.96
68.00 12.31
69.00 12.66
70.00 13.01
71.00 13.37
72.00 13.74
73.00 14.11
74.00 14.48
75.00 14.86
76.00 15.25
77.00 15.64
78.00 16.03
79.00 16.44
80.00 16.84
81.00 17.26
82.00 17.67
83.00 18.10
84.00 18.53
85.00 18.96
86.00 19.40
87.00 19.84
88.00 20.29
89.00 20.74
90.00 21.19
91.00 21.64
92.00 22.09
93.00 22.55
94.00 22.99
95.00 23.44
96.00 23.87
97.00 24.31
98.00 24.72
99.00 25.13
100.00 25.52
101.00 25.88
102.00 26.23
103.00 26.56
104.00 26.87
105.00 27.14
106.00 27.40
107.00 27.62
108.00 27.83
109.00 28.01
110.00 28.16
111.00 28.30
112.00 28.42
113.00 28.52
114.00 28.61
115.00 28.69
116.00 28.76
117.00 28.83
118.00 28.89
119.00 28.95
120.00 29.00
121.00 29.07
122.00 29.13
123.00 29.19
124.00 29.26
125.00 29.34
126.00 29.42
127.00 29.51
128.00 29.61
129.00 29.71
130.00 29.83
131.00 29.95
132.00 30.09
133.00 30.24
134.00 30.40
135.00 30.57
136.00 30.76
137.00 30.96
138.00 31.18
139.00 31.42
140.00 31.67
141.00 31.95
142.00 32.25
143.00 32.57
144.00 32.92
145.00 33.30
146.00 33.71
147.00 34.16
148.00 34.65
149.00 35.18
150.00 35.77
151.00 36.41
152.00 37.12
153.00 37.90
154.00 38.77
155.00 39.75
156.00 40.84
157.00 42.06
158.00 43.41
159.00 44.81
160.00 46.17
161.00 47.10
162.00 47.22
163.00 46.44
164.00 45.13
165.00 43.68
166.00 42.27
167.00 40.99
168.00 39.84
169.00 38.81
170.00 37.89
171.00 37.07
172.00 36.33
173.00 35.65
174.00 35.05
175.00 34.50
176.00 34.01
177.00 33.57
178.00 33.17
179.00 32.80
180.00 32.48
181.00 32.19
182.00 31.94
183.00 31.72
184.00 31.53
185.00 31.36
186.00 31.23
187.00 31.12
188.00 31.03
189.00 30.98
190.00 30.94
191.00 30.93
192.00 30.95
193.00 30.99
194.00 31.05
195.00 31.14
196.00 31.24
197.00 31.37
198.00 31.51
199.00 31.68
200.00 31.87
201.00 32.07
202.00 32.28
203.00 32.52
204.00 32.76
205.00 33.01
206.00 33.27
207.00 33.52
208.00 33.76
209.00 34.00
210.00 34.22
211.00 34.41
212.00 34.57
213.00 34.70
214.00 34.78
215.00 34.80
216.00 34.79
217.00 34.72
218.00 34.62
219.00 34.48
220.00 34.30
221.00 34.09
222.00 33.86
223.00 33.62
224.00 33.37
225.00 33.11
226.00 32.84
227.00 32.58
228.00 32.33
229.00 32.08
230.00 31.83
231.00 31.59
232.00 31.36
233.00 31.13
234.00 30.91
235.00 30.70
236.00 30.49
237.00 30.29
238.00 30.09
239.00 29.90
240.00 29.71
241.00 29.52
242.00 29.33
243.00 29.14
244.00 28.95
245.00 28.76
246.00 28.56
247.00 28.37
248.00 28.16
249.00 27.95
250.00 27.74
251.00 27.52
252.00 27.29
253.00 27.05
254.00 26.80
255.00 26.54
256.00 26.28
257.00 26.00
258.00 25.72
259.00 25.43
260.00 25.12
261.00 24.81
262.00 24.48
263.00 24.15
264.00 23.81
265.00 23.47
266.00 23.11
267.00 22.75
268.00 22.38
269.00 22.01
270.00 21.64
271.00 21.26
272.00 20.87
273.00 20.49
274.00 20.10
275.00 19.72
276.00 19.33
277.00 18.94
278.00 18.56
279.00 18.17
280.00 17.79
281.00 17.41
282.00 17.03
283.00 16.65
284.00 16.28
285.00 15.91
286.00 15.54
287.00 15.18
288.00 14.82
289.00 14.46
290.00 14.11
291.00 13.76
292.00 13.41
293.00 13.07
294.00 12.73
295.00 12.39
296.00 12.06
297.00 11.73
298.00 11.41
299.00 11.08
300.00 10.77
301.00 10.45
302.00 10.14
303.00 9.84
304.00 9.53
305.00 9.24
306.00 8.94
307.00 8.65
308.00 8.36
309.00 8.08
310.00 7.80
311.00 7.52
312.00 7.25
313.00 6.98
314.00 6.71
315.00 6.45
316.00 6.20
317.00 5.94
318.00 5.70
319.00 5.45
320.00 5.22
321.00 4.98
322.00 4.75
323.00 4.53
324.00 4.31
325.00 4.09
326.00 3.88
327.00 3.67
328.00 3.47
329.00 3.28
330.00 3.09
331.00 2.90
332.00 2.72
333.00 2.55
334.00 2.38
335.00 2.22
336.00 2.06
337.00 1.91
338.00 1.76
339.00 1.62
340.00 1.48
341.00 1.35
342.00 1.23
343.00 1.11
344.00 1.00
345.00 0.89
346.00 0.79
347.00 0.70
348.00 0.61
349.00 0.53
350.00 0.45
351.00 0.38
352.00 0.31
353.00 0.26
354.00 0.20
355.00 0.16
356.00 0.11
357.00 0.08
358.00 0.05
359.00 0.03
VERTICAL 360
0.00 21.11
1.00 15.09
2.00 10.85
3.00 7.67
4.00 5.20
5.00 3.30
6.00 1.88
7.00 0.88
8.00 0.26
9.00 0.00
10.00 0.09
11.00 0.52
12.00 1.31
13.00 2.49
14.00 4.11
15.00 6.27
16.00 9.12
17.00 13.00
18.00 18.76
19.00 30.34
20.00 28.80
21.00 22.62
22.00 20.88
23.00 21.13
24.00 23.03
25.00 27.25
26.00 38.26
27.00 33.99
28.00 26.76
29.00 23.79
30.00 22.51
31.00 22.25
32.00 22.79
33.00 24.10
34.00 26.28
35.00 29.63
36.00 34.87
37.00 44.13
38.00 46.04
39.00 41.02
40.00 39.42
41.00 38.07
42.00 35.87
43.00 33.39
44.00 31.03
45.00 28.77
46.00 26.73
47.00 25.11
48.00 24.07
49.00 23.64
50.00 23.80
51.00 24.46
52.00 25.54
53.00 27.00
54.00 29.01
55.00 32.06
56.00 37.66
57.00 54.55
58.00 38.77
59.00 33.82
60.00 31.94
61.00 31.58
62.00 32.14
63.00 33.07
64.00 33.40
65.00 32.49
66.00 31.08
67.00 30.13
68.00 29.95
69.00 30.48
70.00 31.48
71.00 32.64
72.00 33.77
73.00 34.97
74.00 36.67
75.00 39.25
76.00 41.41
77.00 39.15
78.00 35.82
79.00 33.91
80.00 33.65
81.00 35.16
82.00 37.89
83.00 36.90
84.00 33.16
85.00 30.78
86.00 29.85
87.00 30.06
88.00 30.92
89.00 31.32
90.00 30.29
91.00 28.65
92.00 27.38
93.00 26.79
94.00 26.87
95.00 27.59
96.00 28.87
97.00 30.51
98.00 31.87
99.00 32.23
100.00 31.84
101.00 31.51
102.00 31.75
103.00 32.82
104.00 34.93
105.00 38.06
106.00 40.94
107.00 40.18
108.00 37.73
109.00 36.11
110.00 35.66
111.00 36.41
112.00 38.32
113.00 41.25
114.00 44.46
115.00 45.59
116.00 44.28
117.00 43.06
118.00 42.85
119.00 43.63
120.00 44.96
121.00 45.99
122.00 45.93
123.00 45.18
124.00 44.68
125.00 44.80
126.00 45.35
127.00 45.70
128.00 45.13
129.00 43.77
130.00 42.48
131.00 41.83
132.00 41.85
133.00 42.12
134.00 41.99
135.00 41.12
136.00 39.91
137.00 38.99
138.00 38.80
139.00 39.53
140.00 41.11
141.00 43.10
142.00 44.70
143.00 45.42
144.00 45.53
145.00 45.47
146.00 45.67
147.00 46.56
148.00 48.44
149.00 50.12
150.00 48.09
151.00 44.71
152.00 42.19
153.00 40.45
154.00 39.27
155.00 38.59
156.00 38.40
157.00 38.57
158.00 39.02
159.00 39.97
160.00 41.90
161.00 44.63
162.00 44.73
163.00 41.70
164.00 39.01
165.00 36.92
166.00 35.12
167.00 33.61
168.00 32.49
169.00 31.86
170.00 31.67
171.00 31.82
172.00 32.03
173.00 32.36
174.00 32.76
175.00 33.31
176.00 34.03
177.00 34.98
178.00 36.22
179.00 37.78
180.00 39.72
181.00 41.99
182.00 44.66
183.00 48.11
184.00 54.03
185.00 59.83
186.00 49.43
187.00 44.28
188.00 41.33
189.00 39.63
190.00 38.82
191.00 38.72
192.00 39.26
193.00 40.45
194.00 42.23
195.00 44.40
196.00 46.67
197.00 49.26
198.00 53.15
199.00 58.88
200.00 57.30
201.00 53.02
202.00 50.51
203.00 49.02
204.00 48.25
205.00 48.02
206.00 47.88
207.00 47.18
208.00 45.73
209.00 44.08
210.00 42.97
211.00 42.95
212.00 44.35
213.00 46.84
214.00 46.95
215.00 43.85
216.00 41.23
217.00 39.47
218.00 38.16
219.00 36.99
220.00 35.87
221.00 34.90
222.00 34.28
223.00 34.16
224.00 34.60
225.00 35.43
226.00 36.39
227.00 37.26
228.00 38.08
229.00 38.94
230.00 40.15
231.00 42.71
232.00 49.41
233.00 51.11
234.00 42.23
235.00 38.98
236.00 38.34
237.00 39.59
238.00 42.18
239.00 44.44
240.00 44.67
241.00 44.03
242.00 43.15
243.00 42.32
244.00 42.26
245.00 43.27
246.00 44.02
247.00 41.78
248.00 38.34
249.00 35.60
250.00 33.78
251.00 32.73
252.00 32.28
253.00 32.15
254.00 32.02
255.00 31.64
256.00 31.04
257.00 30.47
258.00 30.23
259.00 30.49
260.00 31.26
261.00 32.34
262.00 33.23
263.00 33.17
264.00 32.03
265.00 30.66
266.00 29.84
267.00 29.86
268.00 30.71
269.00 32.19
270.00 34.13
271.00 36.27
272.00 37.21
273.00 35.87
274.00 34.45
275.00 34.23
276.00 35.27
277.00 37.23
278.00 39.50
279.00 40.50
280.00 38.49
281.00 35.97
282.00 34.68
283.00 34.86
284.00 36.52
285.00 39.94
286.00 44.97
287.00 42.20
288.00 37.27
289.00 34.71
290.00 33.95
291.00 34.78
292.00 37.42
293.00 43.05
294.00 46.55
295.00 39.04
296.00 35.16
297.00 33.43
298.00 33.13
299.00 33.78
300.00 34.61
301.00 34.52
302.00 33.74
303.00 33.37
304.00 34.03
305.00 35.99
306.00 39.53
307.00 44.98
308.00 47.77
309.00 43.54
310.00 40.05
311.00 37.48
312.00 35.48
313.00 34.01
314.00 32.87
315.00 31.67
316.00 30.03
317.00 28.15
318.00 26.45
319.00 25.21
320.00 24.49
321.00 24.27
322.00 24.49
323.00 25.15
324.00 26.30
325.00 28.30
326.00 32.10
327.00 41.55
328.00 36.59
329.00 28.89
330.00 25.06
331.00 22.90
332.00 21.81
333.00 21.55
334.00 22.01
335.00 23.20
336.00 25.24
337.00 28.58
338.00 34.75
339.00 52.51
340.00 35.35
341.00 30.91
342.00 29.56
343.00 30.16
344.00 31.97
345.00 31.56
346.00 27.77
347.00 24.42
348.00 22.22
349.00 20.98
350.00 20.61
351.00 21.09
352.00 22.50
353.00 24.90
354.00 27.65
355.00 28.32
356.00 27.27
357.00 27.58
358.00 31.59
359.00 31.04
