NAME ATR4518R7_1750_X_CO_M45_02T_yyR
FREQUENCY 1750
GAIN 14.87 dBd
TILT	ELECTRICAL
COMMENT DATE 05.08.2013 -45 degrees polarized system Lever position 02T deg
HORIZONTAL 360
0.00 0.01
1.00 0.00
2.00 0.01
3.00 0.01
4.00 0.02
5.00 0.04
6.00 0.06
7.00 0.09
8.00 0.12
9.00 0.16
10.00 0.21
11.00 0.26
12.00 0.32
13.00 0.38
14.00 0.45
15.00 0.54
16.00 0.62
17.00 0.72
18.00 0.83
19.00 0.95
20.00 1.07
21.00 1.21
22.00 1.35
23.00 1.51
24.00 1.68
25.00 1.85
26.00 2.04
27.00 2.24
28.00 2.45
29.00 2.67
30.00 2.90
31.00 3.13
32.00 3.38
33.00 3.64
34.00 3.91
35.00 4.19
36.00 4.47
37.00 4.77
38.00 5.06
39.00 5.37
40.00 5.68
41.00 6.00
42.00 6.32
43.00 6.64
44.00 6.97
45.00 7.29
46.00 7.61
47.00 7.94
48.00 8.26
49.00 8.59
50.00 8.90
51.00 9.22
52.00 9.54
53.00 9.85
54.00 10.15
55.00 10.46
56.00 10.76
57.00 11.06
58.00 11.36
59.00 11.65
60.00 11.94
61.00 12.24
62.00 12.53
63.00 12.81
64.00 13.10
65.00 13.39
66.00 13.67
67.00 13.95
68.00 14.23
69.00 14.50
70.00 14.77
71.00 15.04
72.00 15.30
73.00 15.56
74.00 15.82
75.00 16.07
76.00 16.32
77.00 16.57
78.00 16.81
79.00 17.06
80.00 17.30
81.00 17.55
82.00 17.80
83.00 18.06
84.00 18.32
85.00 18.59
86.00 18.87
87.00 19.17
88.00 19.47
89.00 19.78
90.00 20.11
91.00 20.45
92.00 20.81
93.00 21.17
94.00 21.55
95.00 21.94
96.00 22.33
97.00 22.72
98.00 23.10
99.00 23.48
100.00 23.84
101.00 24.17
102.00 24.48
103.00 24.75
104.00 24.98
105.00 25.16
106.00 25.30
107.00 25.41
108.00 25.48
109.00 25.53
110.00 25.56
111.00 25.58
112.00 25.61
113.00 25.64
114.00 25.68
115.00 25.75
116.00 25.84
117.00 25.96
118.00 26.11
119.00 26.30
120.00 26.52
121.00 26.78
122.00 27.08
123.00 27.41
124.00 27.78
125.00 28.17
126.00 28.58
127.00 29.00
128.00 29.42
129.00 29.82
130.00 30.18
131.00 30.49
132.00 30.73
133.00 30.89
134.00 30.98
135.00 31.00
136.00 30.97
137.00 30.91
138.00 30.84
139.00 30.77
140.00 30.72
141.00 30.71
142.00 30.76
143.00 30.87
144.00 31.05
145.00 31.32
146.00 31.68
147.00 32.14
148.00 32.73
149.00 33.46
150.00 34.36
151.00 35.45
152.00 36.82
153.00 38.52
154.00 40.65
155.00 43.31
156.00 46.07
157.00 46.68
158.00 44.27
159.00 41.43
160.00 39.08
161.00 37.21
162.00 35.71
163.00 34.49
164.00 33.50
165.00 32.70
166.00 32.05
167.00 31.53
168.00 31.14
169.00 30.86
170.00 30.68
171.00 30.60
172.00 30.62
173.00 30.73
174.00 30.95
175.00 31.27
176.00 31.70
177.00 32.24
178.00 32.92
179.00 33.74
180.00 34.73
181.00 35.91
182.00 37.32
183.00 39.00
184.00 40.90
185.00 42.80
186.00 43.94
187.00 43.47
188.00 41.85
189.00 40.01
190.00 38.35
191.00 36.95
192.00 35.79
193.00 34.85
194.00 34.08
195.00 33.46
196.00 32.98
197.00 32.63
198.00 32.38
199.00 32.25
200.00 32.21
201.00 32.27
202.00 32.43
203.00 32.69
204.00 33.06
205.00 33.52
206.00 34.10
207.00 34.78
208.00 35.59
209.00 36.52
210.00 37.55
211.00 38.63
212.00 39.68
213.00 40.51
214.00 40.89
215.00 40.70
216.00 40.04
217.00 39.12
218.00 38.14
219.00 37.21
220.00 36.38
221.00 35.67
222.00 35.07
223.00 34.60
224.00 34.23
225.00 33.97
226.00 33.81
227.00 33.76
228.00 33.80
229.00 33.93
230.00 34.16
231.00 34.49
232.00 34.91
233.00 35.42
234.00 36.02
235.00 36.68
236.00 37.37
237.00 38.01
238.00 38.51
239.00 38.74
240.00 38.62
241.00 38.14
242.00 37.42
243.00 36.55
244.00 35.64
245.00 34.75
246.00 33.91
247.00 33.14
248.00 32.44
249.00 31.82
250.00 31.26
251.00 30.77
252.00 30.33
253.00 29.94
254.00 29.59
255.00 29.28
256.00 29.00
257.00 28.74
258.00 28.49
259.00 28.25
260.00 28.00
261.00 27.75
262.00 27.48
263.00 27.19
264.00 26.88
265.00 26.54
266.00 26.17
267.00 25.78
268.00 25.36
269.00 24.92
270.00 24.47
271.00 24.01
272.00 23.53
273.00 23.06
274.00 22.58
275.00 22.10
276.00 21.62
277.00 21.15
278.00 20.69
279.00 20.23
280.00 19.78
281.00 19.33
282.00 18.90
283.00 18.46
284.00 18.03
285.00 17.61
286.00 17.19
287.00 16.78
288.00 16.37
289.00 15.96
290.00 15.55
291.00 15.15
292.00 14.75
293.00 14.35
294.00 13.95
295.00 13.55
296.00 13.16
297.00 12.76
298.00 12.37
299.00 11.98
300.00 11.59
301.00 11.21
302.00 10.82
303.00 10.44
304.00 10.07
305.00 9.70
306.00 9.33
307.00 8.97
308.00 8.61
309.00 8.26
310.00 7.91
311.00 7.57
312.00 7.23
313.00 6.90
314.00 6.58
315.00 6.26
316.00 5.95
317.00 5.66
318.00 5.36
319.00 5.08
320.00 4.80
321.00 4.53
322.00 4.27
323.00 4.02
324.00 3.77
325.00 3.54
326.00 3.31
327.00 3.09
328.00 2.88
329.00 2.68
330.00 2.49
331.00 2.30
332.00 2.13
333.00 1.96
334.00 1.80
335.00 1.65
336.00 1.51
337.00 1.37
338.00 1.25
339.00 1.13
340.00 1.02
341.00 0.91
342.00 0.81
343.00 0.72
344.00 0.64
345.00 0.56
346.00 0.49
347.00 0.42
348.00 0.36
349.00 0.31
350.00 0.26
351.00 0.21
352.00 0.17
353.00 0.14
354.00 0.11
355.00 0.08
356.00 0.05
357.00 0.04
358.00 0.02
359.00 0.01
VERTICAL 360
0.00 1.59
1.00 0.45
2.00 0.00
3.00 0.23
4.00 1.18
5.00 2.94
6.00 5.72
7.00 10.02
8.00 17.68
9.00 27.98
10.00 18.53
11.00 15.46
12.00 15.46
13.00 18.01
14.00 25.63
15.00 32.31
16.00 20.15
17.00 16.74
18.00 16.01
19.00 17.16
20.00 20.36
21.00 26.76
22.00 29.34
23.00 22.73
24.00 19.30
25.00 17.88
26.00 17.88
27.00 19.27
28.00 22.55
29.00 29.55
30.00 32.85
31.00 24.85
32.00 21.24
33.00 19.70
34.00 19.41
35.00 20.10
36.00 21.69
37.00 24.21
38.00 27.79
39.00 32.51
40.00 37.48
41.00 39.26
42.00 39.00
43.00 39.72
44.00 39.13
45.00 34.30
46.00 29.50
47.00 26.12
48.00 23.90
49.00 22.60
50.00 22.06
51.00 22.19
52.00 23.00
53.00 24.60
54.00 27.25
55.00 31.34
56.00 36.04
57.00 35.48
58.00 32.30
59.00 30.29
60.00 29.12
61.00 28.40
62.00 27.99
63.00 27.91
64.00 28.18
65.00 28.67
66.00 29.09
67.00 29.14
68.00 28.93
69.00 28.57
70.00 28.20
71.00 27.90
72.00 27.69
73.00 27.52
74.00 27.33
75.00 27.09
76.00 26.81
77.00 26.61
78.00 26.56
79.00 26.46
80.00 26.44
81.00 26.42
82.00 26.22
83.00 25.83
84.00 25.44
85.00 25.28
86.00 25.41
87.00 25.76
88.00 26.28
89.00 26.89
90.00 27.38
91.00 27.58
92.00 27.40
93.00 27.11
94.00 27.14
95.00 27.63
96.00 28.52
97.00 29.74
98.00 31.21
99.00 32.85
100.00 34.65
101.00 36.72
102.00 39.24
103.00 42.43
104.00 45.50
105.00 45.07
106.00 42.38
107.00 40.70
108.00 40.47
109.00 41.41
110.00 42.43
111.00 41.70
112.00 39.50
113.00 37.43
114.00 36.06
115.00 35.48
116.00 35.63
117.00 36.44
118.00 37.86
119.00 39.97
120.00 43.04
121.00 47.57
122.00 53.94
123.00 53.44
124.00 45.27
125.00 39.74
126.00 36.49
127.00 35.00
128.00 34.74
129.00 34.77
130.00 34.30
131.00 33.92
132.00 34.58
133.00 36.70
134.00 39.94
135.00 42.13
136.00 41.55
137.00 39.78
138.00 37.68
139.00 35.62
140.00 34.09
141.00 33.46
142.00 33.89
143.00 35.25
144.00 36.64
145.00 37.01
146.00 36.77
147.00 36.64
148.00 36.18
149.00 34.85
150.00 33.25
151.00 32.34
152.00 32.65
153.00 34.30
154.00 35.98
155.00 35.04
156.00 33.13
157.00 32.35
158.00 32.76
159.00 33.78
160.00 34.60
161.00 34.84
162.00 34.72
163.00 34.46
164.00 34.22
165.00 34.20
166.00 34.40
167.00 34.45
168.00 33.99
169.00 33.41
170.00 33.43
171.00 34.62
172.00 37.37
173.00 41.29
174.00 42.59
175.00 41.35
176.00 39.96
177.00 37.97
178.00 35.91
179.00 34.39
180.00 34.15
181.00 35.10
182.00 36.60
183.00 37.02
184.00 35.67
185.00 34.13
186.00 33.25
187.00 32.98
188.00 32.90
189.00 32.74
190.00 32.70
191.00 33.11
192.00 33.98
193.00 34.83
194.00 35.11
195.00 34.85
196.00 34.46
197.00 34.25
198.00 34.36
199.00 34.80
200.00 35.79
201.00 37.97
202.00 43.03
203.00 51.54
204.00 44.54
205.00 40.87
206.00 40.43
207.00 40.19
208.00 38.12
209.00 35.74
210.00 34.08
211.00 32.97
212.00 32.08
213.00 31.29
214.00 30.68
215.00 30.45
216.00 30.75
217.00 31.63
218.00 32.98
219.00 34.61
220.00 36.43
221.00 38.56
222.00 41.00
223.00 42.72
224.00 42.01
225.00 39.56
226.00 37.04
227.00 35.14
228.00 34.13
229.00 34.09
230.00 35.04
231.00 36.92
232.00 39.48
233.00 41.99
234.00 43.37
235.00 43.44
236.00 42.94
237.00 42.45
238.00 42.40
239.00 42.97
240.00 43.40
241.00 42.48
242.00 40.94
243.00 39.87
244.00 39.39
245.00 39.32
246.00 39.86
247.00 41.57
248.00 44.77
249.00 47.11
250.00 45.40
251.00 43.89
252.00 44.37
253.00 46.98
254.00 50.54
255.00 49.49
256.00 46.72
257.00 46.13
258.00 47.89
259.00 50.96
260.00 49.51
261.00 45.14
262.00 42.00
263.00 40.02
264.00 38.85
265.00 38.16
266.00 37.72
267.00 37.41
268.00 37.08
269.00 36.60
270.00 36.26
271.00 36.54
272.00 37.53
273.00 38.32
274.00 37.99
275.00 37.62
276.00 38.38
277.00 39.56
278.00 38.26
279.00 35.21
280.00 32.73
281.00 30.98
282.00 29.65
283.00 28.51
284.00 27.42
285.00 26.33
286.00 25.18
287.00 24.00
288.00 22.86
289.00 21.84
290.00 20.99
291.00 20.33
292.00 19.85
293.00 19.54
294.00 19.37
295.00 19.38
296.00 19.64
297.00 20.29
298.00 21.50
299.00 23.54
300.00 26.87
301.00 32.60
302.00 38.42
303.00 32.44
304.00 27.80
305.00 25.01
306.00 23.08
307.00 21.69
308.00 20.76
309.00 20.29
310.00 20.27
311.00 20.69
312.00 21.52
313.00 22.70
314.00 24.14
315.00 25.68
316.00 26.99
317.00 27.68
318.00 27.46
319.00 26.38
320.00 24.81
321.00 23.16
322.00 21.77
323.00 20.84
324.00 20.52
325.00 20.93
326.00 22.22
327.00 24.41
328.00 26.48
329.00 25.47
330.00 22.43
331.00 19.96
332.00 18.51
333.00 18.06
334.00 18.63
335.00 20.30
336.00 22.82
337.00 24.16
338.00 22.47
339.00 20.41
340.00 19.56
341.00 20.33
342.00 23.56
343.00 32.39
344.00 27.83
345.00 20.58
346.00 17.68
347.00 16.98
348.00 18.16
349.00 21.72
350.00 28.01
351.00 25.73
352.00 21.07
353.00 20.04
354.00 23.19
355.00 31.46
356.00 17.82
357.00 10.68
358.00 6.39
359.00 3.51
