NAME ATR4518R7_1750_X_CO_P45_08T_yyR
FREQUENCY 1750
GAIN 14.46 dBd
TILT	ELECTRICAL
COMMENT DATE 05.08.2013 +45 degrees polarized system Lever position 08T deg
HORIZONTAL 360
0.00 0.00
1.00 0.01
2.00 0.02
3.00 0.04
4.00 0.06
5.00 0.09
6.00 0.12
7.00 0.16
8.00 0.21
9.00 0.27
10.00 0.33
11.00 0.40
12.00 0.48
13.00 0.57
14.00 0.67
15.00 0.77
16.00 0.89
17.00 1.01
18.00 1.14
19.00 1.28
20.00 1.43
21.00 1.59
22.00 1.75
23.00 1.93
24.00 2.11
25.00 2.29
26.00 2.49
27.00 2.69
28.00 2.89
29.00 3.10
30.00 3.32
31.00 3.53
32.00 3.75
33.00 3.97
34.00 4.19
35.00 4.41
36.00 4.62
37.00 4.84
38.00 5.05
39.00 5.26
40.00 5.46
41.00 5.66
42.00 5.85
43.00 6.04
44.00 6.23
45.00 6.41
46.00 6.59
47.00 6.77
48.00 6.94
49.00 7.12
50.00 7.30
51.00 7.47
52.00 7.65
53.00 7.83
54.00 8.01
55.00 8.19
56.00 8.38
57.00 8.57
58.00 8.76
59.00 8.96
60.00 9.16
61.00 9.37
62.00 9.58
63.00 9.80
64.00 10.02
65.00 10.24
66.00 10.48
67.00 10.71
68.00 10.96
69.00 11.20
70.00 11.45
71.00 11.71
72.00 11.97
73.00 12.23
74.00 12.50
75.00 12.78
76.00 13.06
77.00 13.35
78.00 13.64
79.00 13.94
80.00 14.24
81.00 14.55
82.00 14.87
83.00 15.19
84.00 15.51
85.00 15.84
86.00 16.17
87.00 16.51
88.00 16.85
89.00 17.19
90.00 17.52
91.00 17.86
92.00 18.19
93.00 18.52
94.00 18.83
95.00 19.14
96.00 19.44
97.00 19.72
98.00 20.00
99.00 20.25
100.00 20.49
101.00 20.72
102.00 20.93
103.00 21.12
104.00 21.31
105.00 21.48
106.00 21.64
107.00 21.79
108.00 21.93
109.00 22.08
110.00 22.22
111.00 22.35
112.00 22.49
113.00 22.64
114.00 22.79
115.00 22.94
116.00 23.10
117.00 23.27
118.00 23.45
119.00 23.64
120.00 23.85
121.00 24.06
122.00 24.29
123.00 24.54
124.00 24.80
125.00 25.08
126.00 25.37
127.00 25.68
128.00 26.01
129.00 26.36
130.00 26.73
131.00 27.12
132.00 27.52
133.00 27.95
134.00 28.39
135.00 28.84
136.00 29.31
137.00 29.78
138.00 30.26
139.00 30.74
140.00 31.22
141.00 31.68
142.00 32.14
143.00 32.58
144.00 33.00
145.00 33.42
146.00 33.82
147.00 34.23
148.00 34.65
149.00 35.10
150.00 35.59
151.00 36.13
152.00 36.76
153.00 37.50
154.00 38.38
155.00 39.45
156.00 40.77
157.00 42.46
158.00 44.68
159.00 47.83
160.00 52.70
161.00 57.80
162.00 52.15
163.00 47.19
164.00 43.88
165.00 41.48
166.00 39.63
167.00 38.13
168.00 36.92
169.00 35.91
170.00 35.07
171.00 34.38
172.00 33.81
173.00 33.35
174.00 33.00
175.00 32.74
176.00 32.57
177.00 32.48
178.00 32.47
179.00 32.54
180.00 32.68
181.00 32.89
182.00 33.15
183.00 33.45
184.00 33.78
185.00 34.10
186.00 34.39
187.00 34.60
188.00 34.69
189.00 34.63
190.00 34.42
191.00 34.06
192.00 33.60
193.00 33.08
194.00 32.52
195.00 31.97
196.00 31.44
197.00 30.96
198.00 30.53
199.00 30.15
200.00 29.84
201.00 29.58
202.00 29.39
203.00 29.26
204.00 29.19
205.00 29.19
206.00 29.24
207.00 29.36
208.00 29.54
209.00 29.77
210.00 30.07
211.00 30.41
212.00 30.81
213.00 31.25
214.00 31.71
215.00 32.19
216.00 32.66
217.00 33.08
218.00 33.43
219.00 33.66
220.00 33.75
221.00 33.71
222.00 33.53
223.00 33.25
224.00 32.90
225.00 32.52
226.00 32.12
227.00 31.75
228.00 31.40
229.00 31.08
230.00 30.81
231.00 30.58
232.00 30.39
233.00 30.25
234.00 30.16
235.00 30.10
236.00 30.09
237.00 30.11
238.00 30.17
239.00 30.26
240.00 30.38
241.00 30.52
242.00 30.69
243.00 30.87
244.00 31.07
245.00 31.29
246.00 31.52
247.00 31.76
248.00 32.01
249.00 32.28
250.00 32.56
251.00 32.87
252.00 33.19
253.00 33.55
254.00 33.93
255.00 34.36
256.00 34.85
257.00 35.37
258.00 35.95
259.00 36.57
260.00 37.22
261.00 37.85
262.00 38.38
263.00 38.68
264.00 38.61
265.00 38.13
266.00 37.27
267.00 36.16
268.00 34.94
269.00 33.68
270.00 32.46
271.00 31.28
272.00 30.16
273.00 29.10
274.00 28.10
275.00 27.15
276.00 26.24
277.00 25.38
278.00 24.56
279.00 23.77
280.00 23.01
281.00 22.29
282.00 21.58
283.00 20.90
284.00 20.24
285.00 19.60
286.00 18.98
287.00 18.37
288.00 17.78
289.00 17.20
290.00 16.63
291.00 16.08
292.00 15.54
293.00 15.01
294.00 14.49
295.00 13.98
296.00 13.48
297.00 12.99
298.00 12.51
299.00 12.04
300.00 11.58
301.00 11.13
302.00 10.69
303.00 10.25
304.00 9.83
305.00 9.42
306.00 9.02
307.00 8.62
308.00 8.24
309.00 7.86
310.00 7.49
311.00 7.14
312.00 6.79
313.00 6.45
314.00 6.12
315.00 5.80
316.00 5.49
317.00 5.19
318.00 4.90
319.00 4.62
320.00 4.35
321.00 4.09
322.00 3.84
323.00 3.59
324.00 3.36
325.00 3.14
326.00 2.92
327.00 2.72
328.00 2.52
329.00 2.34
330.00 2.16
331.00 1.99
332.00 1.83
333.00 1.68
334.00 1.54
335.00 1.40
336.00 1.27
337.00 1.16
338.00 1.04
339.00 0.94
340.00 0.84
341.00 0.75
342.00 0.67
343.00 0.59
344.00 0.52
345.00 0.45
346.00 0.39
347.00 0.33
348.00 0.28
349.00 0.23
350.00 0.19
351.00 0.15
352.00 0.12
353.00 0.09
354.00 0.07
355.00 0.05
356.00 0.03
357.00 0.01
358.00 0.01
359.00 0.00
VERTICAL 360
0.00 21.49
1.00 17.43
2.00 11.99
3.00 7.70
4.00 4.58
5.00 2.39
6.00 0.95
7.00 0.18
8.00 0.00
9.00 0.43
10.00 1.51
11.00 3.39
12.00 6.35
13.00 11.06
14.00 19.98
15.00 26.40
16.00 18.01
17.00 16.30
18.00 17.66
19.00 22.80
20.00 31.43
21.00 20.57
22.00 15.80
23.00 13.67
24.00 13.00
25.00 13.42
26.00 14.92
27.00 17.86
28.00 23.61
29.00 37.64
30.00 26.58
31.00 21.61
32.00 20.19
33.00 20.74
34.00 23.25
35.00 28.60
36.00 29.79
37.00 22.86
38.00 19.04
39.00 17.26
40.00 16.91
41.00 17.72
42.00 19.52
43.00 22.16
44.00 25.61
45.00 29.48
46.00 29.46
47.00 25.25
48.00 22.05
49.00 20.30
50.00 19.63
51.00 19.55
52.00 19.50
53.00 19.11
54.00 18.44
55.00 17.83
56.00 17.56
57.00 17.77
58.00 18.44
59.00 19.49
60.00 20.76
61.00 22.18
62.00 23.69
63.00 25.27
64.00 26.87
65.00 28.42
66.00 30.00
67.00 31.73
68.00 33.68
69.00 36.01
70.00 39.55
71.00 46.86
72.00 43.99
73.00 36.63
74.00 32.91
75.00 30.84
76.00 29.62
77.00 28.78
78.00 28.11
79.00 27.52
80.00 26.93
81.00 26.29
82.00 25.73
83.00 25.47
84.00 25.66
85.00 26.32
86.00 27.33
87.00 28.12
88.00 28.12
89.00 27.95
90.00 29.44
91.00 33.24
92.00 33.32
93.00 29.31
94.00 27.63
95.00 27.90
96.00 29.42
97.00 31.62
98.00 33.86
99.00 34.78
100.00 34.15
101.00 33.71
102.00 34.24
103.00 35.79
104.00 38.14
105.00 40.40
106.00 41.35
107.00 41.25
108.00 40.78
109.00 40.63
110.00 41.40
111.00 42.54
112.00 42.00
113.00 39.59
114.00 37.41
115.00 36.52
116.00 37.09
117.00 38.75
118.00 40.11
119.00 39.31
120.00 36.93
121.00 34.75
122.00 33.37
123.00 32.75
124.00 32.79
125.00 33.51
126.00 34.90
127.00 36.56
128.00 37.81
129.00 38.54
130.00 39.60
131.00 41.14
132.00 41.56
133.00 41.28
134.00 42.17
135.00 41.70
136.00 38.55
137.00 36.62
138.00 36.61
139.00 38.12
140.00 39.76
141.00 38.70
142.00 36.75
143.00 36.79
144.00 39.61
145.00 43.10
146.00 40.81
147.00 38.81
148.00 38.37
149.00 38.12
150.00 37.05
151.00 34.70
152.00 32.50
153.00 31.73
154.00 32.76
155.00 35.63
156.00 40.34
157.00 48.45
158.00 54.55
159.00 41.35
160.00 36.54
161.00 34.47
162.00 34.19
163.00 35.25
164.00 37.35
165.00 40.61
166.00 47.13
167.00 50.90
168.00 40.30
169.00 35.41
170.00 32.92
171.00 32.09
172.00 32.60
173.00 34.17
174.00 36.46
175.00 39.55
176.00 42.25
177.00 41.05
178.00 39.51
179.00 40.76
180.00 45.77
181.00 44.35
182.00 39.25
183.00 38.37
184.00 39.64
185.00 37.44
186.00 33.73
187.00 31.99
188.00 31.77
189.00 31.99
190.00 31.91
191.00 31.75
192.00 31.79
193.00 32.20
194.00 33.28
195.00 34.81
196.00 35.34
197.00 35.08
198.00 36.02
199.00 38.82
200.00 40.59
201.00 38.83
202.00 37.86
203.00 38.19
204.00 38.23
205.00 37.57
206.00 37.90
207.00 40.45
208.00 41.99
209.00 37.18
210.00 33.65
211.00 32.13
212.00 31.66
213.00 31.27
214.00 30.61
215.00 30.19
216.00 30.50
217.00 31.66
218.00 33.41
219.00 34.95
220.00 35.73
221.00 36.39
222.00 37.35
223.00 37.58
224.00 36.47
225.00 35.11
226.00 34.07
227.00 33.26
228.00 32.59
229.00 32.23
230.00 32.44
231.00 33.49
232.00 35.50
233.00 38.46
234.00 42.41
235.00 47.10
236.00 45.47
237.00 39.86
238.00 36.15
239.00 34.18
240.00 33.83
241.00 35.06
242.00 37.43
243.00 38.92
244.00 38.00
245.00 36.37
246.00 34.81
247.00 33.42
248.00 32.38
249.00 32.03
250.00 32.74
251.00 34.85
252.00 38.29
253.00 40.97
254.00 40.84
255.00 41.01
256.00 43.78
257.00 53.00
258.00 46.76
259.00 39.28
260.00 36.20
261.00 35.18
262.00 35.42
263.00 36.20
264.00 36.68
265.00 36.37
266.00 35.58
267.00 34.68
268.00 33.73
269.00 32.66
270.00 31.68
271.00 31.23
272.00 31.77
273.00 33.43
274.00 35.01
275.00 33.70
276.00 30.85
277.00 28.60
278.00 27.21
279.00 26.61
280.00 26.67
281.00 27.03
282.00 27.01
283.00 26.11
284.00 24.76
285.00 23.73
286.00 23.32
287.00 23.45
288.00 23.80
289.00 23.93
290.00 23.69
291.00 23.45
292.00 23.81
293.00 25.29
294.00 28.53
295.00 35.65
296.00 50.70
297.00 32.97
298.00 28.23
299.00 25.55
300.00 23.72
301.00 22.44
302.00 21.72
303.00 21.56
304.00 22.02
305.00 23.16
306.00 25.14
307.00 28.09
308.00 31.61
309.00 32.22
310.00 28.53
311.00 24.77
312.00 21.86
313.00 19.74
314.00 18.32
315.00 17.54
316.00 17.35
317.00 17.81
318.00 19.10
319.00 21.63
320.00 26.54
321.00 36.19
322.00 29.71
323.00 23.99
324.00 21.40
325.00 20.20
326.00 19.84
327.00 20.11
328.00 20.92
329.00 22.01
330.00 22.97
331.00 23.79
332.00 25.55
333.00 30.63
334.00 32.51
335.00 23.10
336.00 18.30
337.00 15.68
338.00 14.36
339.00 13.96
340.00 14.24
341.00 15.13
342.00 16.79
343.00 19.69
344.00 24.50
345.00 26.73
346.00 22.67
347.00 20.70
348.00 21.33
349.00 24.39
350.00 26.58
351.00 22.88
352.00 19.98
353.00 19.17
354.00 20.37
355.00 24.25
356.00 31.85
357.00 27.93
358.00 23.16
359.00 21.95
