NAME ATR4518R7_1850_X_CO_M45_08T_yyR
FREQUENCY 1850
GAIN 14.97 dBd
TILT	ELECTRICAL
COMMENT DATE 05.08.2013 -45 degrees polarized system Lever position 08T deg
HORIZONTAL 360
0.00 0.13
1.00 0.10
2.00 0.07
3.00 0.05
4.00 0.03
5.00 0.01
6.00 0.00
7.00 0.00
8.00 0.00
9.00 0.01
10.00 0.02
11.00 0.04
12.00 0.07
13.00 0.10
14.00 0.14
15.00 0.19
16.00 0.24
17.00 0.30
18.00 0.38
19.00 0.46
20.00 0.54
21.00 0.64
22.00 0.75
23.00 0.86
24.00 0.99
25.00 1.13
26.00 1.27
27.00 1.43
28.00 1.59
29.00 1.77
30.00 1.95
31.00 2.15
32.00 2.36
33.00 2.57
34.00 2.80
35.00 3.03
36.00 3.28
37.00 3.53
38.00 3.80
39.00 4.07
40.00 4.35
41.00 4.64
42.00 4.94
43.00 5.24
44.00 5.56
45.00 5.88
46.00 6.21
47.00 6.54
48.00 6.89
49.00 7.24
50.00 7.60
51.00 7.97
52.00 8.34
53.00 8.71
54.00 9.10
55.00 9.49
56.00 9.89
57.00 10.29
58.00 10.70
59.00 11.12
60.00 11.54
61.00 11.96
62.00 12.40
63.00 12.83
64.00 13.27
65.00 13.72
66.00 14.17
67.00 14.62
68.00 15.07
69.00 15.53
70.00 15.99
71.00 16.44
72.00 16.90
73.00 17.37
74.00 17.83
75.00 18.29
76.00 18.75
77.00 19.22
78.00 19.69
79.00 20.17
80.00 20.65
81.00 21.15
82.00 21.65
83.00 22.17
84.00 22.71
85.00 23.27
86.00 23.86
87.00 24.48
88.00 25.12
89.00 25.81
90.00 26.54
91.00 27.32
92.00 28.14
93.00 29.03
94.00 29.97
95.00 30.96
96.00 32.00
97.00 33.07
98.00 34.12
99.00 35.09
100.00 35.89
101.00 36.42
102.00 36.60
103.00 36.48
104.00 36.12
105.00 35.63
106.00 35.09
107.00 34.57
108.00 34.08
109.00 33.66
110.00 33.29
111.00 32.99
112.00 32.75
113.00 32.56
114.00 32.41
115.00 32.31
116.00 32.25
117.00 32.21
118.00 32.20
119.00 32.20
120.00 32.22
121.00 32.24
122.00 32.27
123.00 32.29
124.00 32.32
125.00 32.35
126.00 32.38
127.00 32.41
128.00 32.45
129.00 32.50
130.00 32.57
131.00 32.66
132.00 32.78
133.00 32.92
134.00 33.10
135.00 33.30
136.00 33.54
137.00 33.81
138.00 34.10
139.00 34.41
140.00 34.72
141.00 35.02
142.00 35.28
143.00 35.49
144.00 35.63
145.00 35.68
146.00 35.63
147.00 35.50
148.00 35.29
149.00 35.02
150.00 34.73
151.00 34.43
152.00 34.15
153.00 33.89
154.00 33.67
155.00 33.49
156.00 33.37
157.00 33.31
158.00 33.31
159.00 33.38
160.00 33.52
161.00 33.74
162.00 34.03
163.00 34.41
164.00 34.87
165.00 35.43
166.00 36.09
167.00 36.86
168.00 37.76
169.00 38.80
170.00 39.99
171.00 41.35
172.00 42.88
173.00 44.56
174.00 46.26
175.00 47.69
176.00 48.39
177.00 48.18
178.00 47.38
179.00 46.42
180.00 45.56
181.00 44.88
182.00 44.41
183.00 44.14
184.00 44.08
185.00 44.20
186.00 44.50
187.00 44.96
188.00 45.57
189.00 46.24
190.00 46.83
191.00 47.15
192.00 46.97
193.00 46.26
194.00 45.17
195.00 43.92
196.00 42.68
197.00 41.52
198.00 40.49
199.00 39.57
200.00 38.77
201.00 38.08
202.00 37.50
203.00 37.02
204.00 36.62
205.00 36.29
206.00 36.04
207.00 35.85
208.00 35.72
209.00 35.62
210.00 35.56
211.00 35.51
212.00 35.48
213.00 35.43
214.00 35.35
215.00 35.23
216.00 35.07
217.00 34.84
218.00 34.57
219.00 34.25
220.00 33.89
221.00 33.50
222.00 33.09
223.00 32.69
224.00 32.28
225.00 31.90
226.00 31.53
227.00 31.18
228.00 30.86
229.00 30.57
230.00 30.31
231.00 30.07
232.00 29.86
233.00 29.67
234.00 29.51
235.00 29.36
236.00 29.22
237.00 29.10
238.00 28.98
239.00 28.87
240.00 28.76
241.00 28.65
242.00 28.52
243.00 28.39
244.00 28.25
245.00 28.09
246.00 27.92
247.00 27.72
248.00 27.52
249.00 27.30
250.00 27.06
251.00 26.81
252.00 26.55
253.00 26.28
254.00 26.01
255.00 25.72
256.00 25.44
257.00 25.14
258.00 24.85
259.00 24.55
260.00 24.25
261.00 23.95
262.00 23.65
263.00 23.34
264.00 23.04
265.00 22.74
266.00 22.43
267.00 22.12
268.00 21.81
269.00 21.50
270.00 21.19
271.00 20.88
272.00 20.56
273.00 20.24
274.00 19.93
275.00 19.61
276.00 19.29
277.00 18.97
278.00 18.65
279.00 18.33
280.00 18.01
281.00 17.69
282.00 17.37
283.00 17.06
284.00 16.75
285.00 16.43
286.00 16.13
287.00 15.82
288.00 15.52
289.00 15.22
290.00 14.93
291.00 14.64
292.00 14.35
293.00 14.06
294.00 13.77
295.00 13.49
296.00 13.21
297.00 12.93
298.00 12.65
299.00 12.37
300.00 12.09
301.00 11.81
302.00 11.52
303.00 11.24
304.00 10.96
305.00 10.68
306.00 10.39
307.00 10.11
308.00 9.82
309.00 9.53
310.00 9.24
311.00 8.95
312.00 8.66
313.00 8.37
314.00 8.07
315.00 7.79
316.00 7.50
317.00 7.21
318.00 6.92
319.00 6.64
320.00 6.36
321.00 6.08
322.00 5.81
323.00 5.54
324.00 5.28
325.00 5.02
326.00 4.76
327.00 4.52
328.00 4.27
329.00 4.04
330.00 3.81
331.00 3.59
332.00 3.37
333.00 3.16
334.00 2.96
335.00 2.77
336.00 2.58
337.00 2.40
338.00 2.23
339.00 2.07
340.00 1.91
341.00 1.76
342.00 1.62
343.00 1.49
344.00 1.36
345.00 1.24
346.00 1.13
347.00 1.02
348.00 0.92
349.00 0.82
350.00 0.73
351.00 0.65
352.00 0.57
353.00 0.50
354.00 0.43
355.00 0.37
356.00 0.31
357.00 0.26
358.00 0.22
359.00 0.17
VERTICAL 360
0.00 37.11
1.00 22.10
2.00 13.34
3.00 8.21
4.00 4.79
5.00 2.47
6.00 0.96
7.00 0.15
8.00 0.00
9.00 0.51
10.00 1.78
11.00 4.01
12.00 7.64
13.00 14.20
14.00 29.22
15.00 16.79
16.00 12.45
17.00 11.32
18.00 12.08
19.00 14.76
20.00 20.35
21.00 24.76
22.00 18.53
23.00 15.37
24.00 14.66
25.00 15.87
26.00 19.39
27.00 27.47
28.00 29.38
29.00 21.62
30.00 18.82
31.00 18.09
32.00 18.75
33.00 20.85
34.00 24.99
35.00 29.13
36.00 24.35
37.00 20.12
38.00 18.08
39.00 17.60
40.00 18.45
41.00 20.67
42.00 24.56
43.00 31.18
44.00 37.43
45.00 30.92
46.00 26.86
47.00 24.62
48.00 23.55
49.00 23.59
50.00 24.85
51.00 27.15
52.00 28.63
53.00 26.99
54.00 24.61
55.00 23.02
56.00 22.27
57.00 22.25
58.00 22.91
59.00 24.19
60.00 25.99
61.00 28.08
62.00 29.92
63.00 30.76
64.00 30.61
65.00 30.28
66.00 30.32
67.00 30.88
68.00 31.85
69.00 32.95
70.00 33.92
71.00 34.72
72.00 35.18
73.00 34.95
74.00 33.97
75.00 32.66
76.00 31.60
77.00 31.10
78.00 31.17
79.00 31.56
80.00 32.02
81.00 32.30
82.00 32.13
83.00 31.58
84.00 31.24
85.00 31.56
86.00 32.53
87.00 33.73
88.00 34.42
89.00 33.89
90.00 32.24
91.00 30.43
92.00 29.14
93.00 28.56
94.00 28.65
95.00 29.28
96.00 30.16
97.00 30.95
98.00 31.55
99.00 32.23
100.00 33.29
101.00 34.83
102.00 36.77
103.00 38.77
104.00 40.20
105.00 40.93
106.00 41.70
107.00 42.98
108.00 44.55
109.00 45.76
110.00 45.25
111.00 43.05
112.00 41.22
113.00 40.64
114.00 41.12
115.00 41.91
116.00 41.87
117.00 40.60
118.00 38.89
119.00 37.60
120.00 37.09
121.00 37.28
122.00 37.82
123.00 38.18
124.00 38.05
125.00 37.57
126.00 37.20
127.00 37.19
128.00 37.61
129.00 38.42
130.00 39.51
131.00 40.30
132.00 40.61
133.00 41.78
134.00 46.87
135.00 60.02
136.00 42.09
137.00 37.36
138.00 35.61
139.00 35.51
140.00 36.29
141.00 37.02
142.00 37.07
143.00 36.93
144.00 37.25
145.00 37.97
146.00 38.32
147.00 38.17
148.00 39.06
149.00 43.98
150.00 57.67
151.00 38.55
152.00 33.59
153.00 31.63
154.00 31.44
155.00 32.51
156.00 34.54
157.00 37.28
158.00 39.40
159.00 38.82
160.00 38.07
161.00 39.75
162.00 43.84
163.00 40.90
164.00 36.26
165.00 34.28
166.00 33.85
167.00 33.89
168.00 34.22
169.00 35.14
170.00 37.26
171.00 40.82
172.00 44.58
173.00 45.03
174.00 43.59
175.00 42.44
176.00 41.78
177.00 41.09
178.00 39.81
179.00 38.58
180.00 38.37
181.00 39.34
182.00 41.50
183.00 43.98
184.00 45.03
185.00 44.08
186.00 42.88
187.00 43.19
188.00 46.73
189.00 54.96
190.00 45.15
191.00 39.36
192.00 36.51
193.00 35.20
194.00 34.97
195.00 35.55
196.00 36.70
197.00 38.35
198.00 40.63
199.00 42.63
200.00 42.01
201.00 39.99
202.00 38.00
203.00 36.12
204.00 34.94
205.00 35.18
206.00 37.54
207.00 43.31
208.00 47.43
209.00 41.47
210.00 38.65
211.00 37.12
212.00 35.78
213.00 34.95
214.00 35.18
215.00 36.75
216.00 39.70
217.00 43.37
218.00 44.95
219.00 44.17
220.00 44.16
221.00 46.59
222.00 56.31
223.00 50.45
224.00 41.59
225.00 37.44
226.00 35.25
227.00 34.41
228.00 34.73
229.00 36.11
230.00 38.25
231.00 40.23
232.00 40.96
233.00 40.92
234.00 41.05
235.00 41.45
236.00 41.48
237.00 40.32
238.00 38.16
239.00 36.17
240.00 35.11
241.00 35.29
242.00 36.90
243.00 40.17
244.00 44.37
245.00 44.62
246.00 42.01
247.00 40.39
248.00 39.65
249.00 39.29
250.00 39.02
251.00 38.89
252.00 38.77
253.00 38.20
254.00 37.14
255.00 36.11
256.00 35.57
257.00 35.63
258.00 36.05
259.00 36.16
260.00 35.60
261.00 34.93
262.00 34.77
263.00 35.18
264.00 35.68
265.00 35.45
266.00 34.13
267.00 32.33
268.00 30.80
269.00 29.91
270.00 29.73
271.00 30.10
272.00 30.73
273.00 31.24
274.00 31.52
275.00 31.82
276.00 32.29
277.00 32.81
278.00 32.95
279.00 32.37
280.00 31.19
281.00 29.90
282.00 28.91
283.00 28.43
284.00 28.46
285.00 28.89
286.00 29.59
287.00 30.54
288.00 31.98
289.00 34.54
290.00 39.66
291.00 43.36
292.00 35.39
293.00 30.65
294.00 27.97
295.00 26.44
296.00 25.65
297.00 25.35
298.00 25.46
299.00 26.09
300.00 27.55
301.00 30.30
302.00 33.34
303.00 31.35
304.00 27.40
305.00 24.75
306.00 23.13
307.00 22.13
308.00 21.45
309.00 21.00
310.00 20.80
311.00 20.99
312.00 21.68
313.00 22.87
314.00 24.02
315.00 23.84
316.00 22.15
317.00 20.28
318.00 18.98
319.00 18.41
320.00 18.56
321.00 19.42
322.00 20.99
323.00 23.35
324.00 26.43
325.00 28.94
326.00 28.30
327.00 26.17
328.00 24.48
329.00 23.13
330.00 21.68
331.00 20.23
332.00 19.19
333.00 18.89
334.00 19.52
335.00 21.20
336.00 23.95
337.00 26.20
338.00 24.12
339.00 20.52
340.00 17.88
341.00 16.33
342.00 15.84
343.00 16.52
344.00 18.72
345.00 23.16
346.00 28.20
347.00 25.24
348.00 23.10
349.00 24.61
350.00 33.81
351.00 31.34
352.00 21.99
353.00 18.54
354.00 17.49
355.00 18.36
356.00 21.51
357.00 28.10
358.00 30.99
359.00 28.79
