NAME ATR4518R7_1880_X_CO_M45_00T_yyR
FREQUENCY 1880
GAIN 14.78 dBd
TILT	ELECTRICAL
COMMENT DATE 05.08.2013 -45 degrees polarized system Lever position 00T deg
HORIZONTAL 360
0.00 0.09
1.00 0.06
2.00 0.04
3.00 0.02
4.00 0.01
5.00 0.00
6.00 0.00
7.00 0.00
8.00 0.00
9.00 0.01
10.00 0.03
11.00 0.05
12.00 0.07
13.00 0.11
14.00 0.15
15.00 0.19
16.00 0.25
17.00 0.31
18.00 0.38
19.00 0.46
20.00 0.55
21.00 0.64
22.00 0.74
23.00 0.86
24.00 0.98
25.00 1.11
26.00 1.25
27.00 1.41
28.00 1.57
29.00 1.74
30.00 1.92
31.00 2.11
32.00 2.31
33.00 2.52
34.00 2.74
35.00 2.96
36.00 3.20
37.00 3.45
38.00 3.71
39.00 3.97
40.00 4.25
41.00 4.53
42.00 4.82
43.00 5.12
44.00 5.43
45.00 5.74
46.00 6.07
47.00 6.40
48.00 6.74
49.00 7.08
50.00 7.43
51.00 7.79
52.00 8.15
53.00 8.52
54.00 8.89
55.00 9.27
56.00 9.65
57.00 10.03
58.00 10.41
59.00 10.79
60.00 11.17
61.00 11.56
62.00 11.94
63.00 12.32
64.00 12.69
65.00 13.06
66.00 13.43
67.00 13.80
68.00 14.15
69.00 14.52
70.00 14.87
71.00 15.22
72.00 15.58
73.00 15.93
74.00 16.28
75.00 16.64
76.00 17.00
77.00 17.36
78.00 17.73
79.00 18.11
80.00 18.49
81.00 18.89
82.00 19.30
83.00 19.71
84.00 20.14
85.00 20.58
86.00 21.03
87.00 21.49
88.00 21.96
89.00 22.44
90.00 22.92
91.00 23.41
92.00 23.90
93.00 24.39
94.00 24.87
95.00 25.35
96.00 25.80
97.00 26.24
98.00 26.67
99.00 27.06
100.00 27.42
101.00 27.76
102.00 28.05
103.00 28.31
104.00 28.52
105.00 28.70
106.00 28.82
107.00 28.91
108.00 28.94
109.00 28.93
110.00 28.88
111.00 28.79
112.00 28.67
113.00 28.52
114.00 28.36
115.00 28.18
116.00 28.00
117.00 27.82
118.00 27.66
119.00 27.51
120.00 27.38
121.00 27.29
122.00 27.23
123.00 27.20
124.00 27.22
125.00 27.28
126.00 27.39
127.00 27.56
128.00 27.78
129.00 28.07
130.00 28.42
131.00 28.84
132.00 29.35
133.00 29.94
134.00 30.63
135.00 31.43
136.00 32.36
137.00 33.43
138.00 34.67
139.00 36.12
140.00 37.79
141.00 39.70
142.00 41.74
143.00 43.48
144.00 44.08
145.00 43.25
146.00 41.74
147.00 40.24
148.00 38.95
149.00 37.91
150.00 37.09
151.00 36.48
152.00 36.04
153.00 35.77
154.00 35.63
155.00 35.62
156.00 35.74
157.00 35.98
158.00 36.33
159.00 36.78
160.00 37.32
161.00 37.93
162.00 38.58
163.00 39.20
164.00 39.74
165.00 40.10
166.00 40.22
167.00 40.09
168.00 39.76
169.00 39.30
170.00 38.80
171.00 38.33
172.00 37.91
173.00 37.57
174.00 37.33
175.00 37.20
176.00 37.19
177.00 37.30
178.00 37.54
179.00 37.92
180.00 38.45
181.00 39.16
182.00 40.07
183.00 41.22
184.00 42.67
185.00 44.50
186.00 46.81
187.00 49.52
188.00 51.58
189.00 50.70
190.00 48.05
191.00 45.53
192.00 43.50
193.00 41.89
194.00 40.62
195.00 39.60
196.00 38.81
197.00 38.19
198.00 37.72
199.00 37.39
200.00 37.19
201.00 37.11
202.00 37.14
203.00 37.29
204.00 37.55
205.00 37.92
206.00 38.41
207.00 39.03
208.00 39.78
209.00 40.67
210.00 41.72
211.00 42.91
212.00 44.21
213.00 45.50
214.00 46.50
215.00 46.81
216.00 46.27
217.00 45.15
218.00 43.81
219.00 42.49
220.00 41.25
221.00 40.15
222.00 39.18
223.00 38.30
224.00 37.52
225.00 36.83
226.00 36.21
227.00 35.65
228.00 35.15
229.00 34.70
230.00 34.29
231.00 33.93
232.00 33.61
233.00 33.33
234.00 33.09
235.00 32.88
236.00 32.71
237.00 32.57
238.00 32.47
239.00 32.40
240.00 32.36
241.00 32.34
242.00 32.35
243.00 32.37
244.00 32.41
245.00 32.44
246.00 32.46
247.00 32.47
248.00 32.43
249.00 32.34
250.00 32.20
251.00 32.00
252.00 31.73
253.00 31.40
254.00 31.01
255.00 30.58
256.00 30.11
257.00 29.62
258.00 29.12
259.00 28.61
260.00 28.10
261.00 27.60
262.00 27.10
263.00 26.61
264.00 26.13
265.00 25.66
266.00 25.21
267.00 24.75
268.00 24.31
269.00 23.87
270.00 23.44
271.00 23.01
272.00 22.58
273.00 22.15
274.00 21.72
275.00 21.29
276.00 20.86
277.00 20.43
278.00 20.00
279.00 19.57
280.00 19.15
281.00 18.72
282.00 18.29
283.00 17.87
284.00 17.44
285.00 17.02
286.00 16.61
287.00 16.20
288.00 15.78
289.00 15.38
290.00 14.98
291.00 14.58
292.00 14.19
293.00 13.80
294.00 13.42
295.00 13.03
296.00 12.66
297.00 12.29
298.00 11.92
299.00 11.55
300.00 11.20
301.00 10.84
302.00 10.49
303.00 10.14
304.00 9.80
305.00 9.46
306.00 9.12
307.00 8.79
308.00 8.47
309.00 8.15
310.00 7.83
311.00 7.52
312.00 7.22
313.00 6.92
314.00 6.62
315.00 6.33
316.00 6.05
317.00 5.77
318.00 5.50
319.00 5.24
320.00 4.98
321.00 4.73
322.00 4.49
323.00 4.26
324.00 4.03
325.00 3.81
326.00 3.59
327.00 3.39
328.00 3.19
329.00 3.00
330.00 2.81
331.00 2.64
332.00 2.47
333.00 2.30
334.00 2.15
335.00 2.00
336.00 1.86
337.00 1.73
338.00 1.60
339.00 1.48
340.00 1.36
341.00 1.25
342.00 1.15
343.00 1.05
344.00 0.96
345.00 0.87
346.00 0.79
347.00 0.72
348.00 0.64
349.00 0.58
350.00 0.51
351.00 0.45
352.00 0.40
353.00 0.35
354.00 0.30
355.00 0.26
356.00 0.21
357.00 0.18
358.00 0.14
359.00 0.11
VERTICAL 360
0.00 0.07
1.00 0.12
2.00 0.92
3.00 2.57
4.00 5.28
5.00 9.64
6.00 17.92
7.00 26.95
8.00 17.00
9.00 14.49
10.00 15.16
11.00 19.04
12.00 30.30
13.00 22.14
14.00 15.83
15.00 13.44
16.00 13.03
17.00 14.26
18.00 17.47
19.00 23.85
20.00 26.14
21.00 20.32
22.00 17.64
23.00 17.24
24.00 18.74
25.00 22.88
26.00 35.90
27.00 28.40
28.00 21.10
29.00 18.23
30.00 17.16
31.00 17.34
32.00 18.63
33.00 21.12
34.00 25.10
35.00 30.54
36.00 32.85
37.00 30.34
38.00 27.62
39.00 24.75
40.00 21.94
41.00 19.73
42.00 18.32
43.00 17.71
44.00 17.80
45.00 18.46
46.00 19.53
47.00 20.94
48.00 22.85
49.00 25.82
50.00 30.70
51.00 32.66
52.00 27.69
53.00 24.30
54.00 22.71
55.00 22.31
56.00 22.78
57.00 23.93
58.00 25.70
59.00 28.08
60.00 30.89
61.00 32.93
62.00 32.46
63.00 30.81
64.00 29.60
65.00 29.09
66.00 29.15
67.00 29.65
68.00 30.55
69.00 31.92
70.00 33.86
71.00 35.79
72.00 35.80
73.00 34.23
74.00 32.93
75.00 32.21
76.00 31.54
77.00 30.37
78.00 28.69
79.00 27.00
80.00 25.74
81.00 25.15
82.00 25.22
83.00 25.80
84.00 26.64
85.00 27.50
86.00 28.28
87.00 29.03
88.00 29.98
89.00 31.32
90.00 32.90
91.00 33.67
92.00 32.79
93.00 31.62
94.00 31.38
95.00 32.24
96.00 33.77
97.00 35.33
98.00 36.88
99.00 39.14
100.00 42.40
101.00 45.66
102.00 46.94
103.00 45.34
104.00 42.87
105.00 41.38
106.00 40.87
107.00 40.53
108.00 39.74
109.00 38.64
110.00 37.62
111.00 37.00
112.00 36.93
113.00 37.17
114.00 37.25
115.00 36.91
116.00 36.48
117.00 36.46
118.00 37.19
119.00 38.63
120.00 39.82
121.00 39.60
122.00 39.06
123.00 39.62
124.00 41.47
125.00 43.43
126.00 44.48
127.00 46.87
128.00 55.52
129.00 50.44
130.00 43.02
131.00 39.49
132.00 36.99
133.00 34.91
134.00 33.46
135.00 32.80
136.00 32.84
137.00 33.28
138.00 33.73
139.00 34.02
140.00 34.34
141.00 35.04
142.00 36.31
143.00 37.95
144.00 39.40
145.00 40.43
146.00 41.77
147.00 44.66
148.00 51.52
149.00 61.74
150.00 50.61
151.00 46.36
152.00 43.51
153.00 41.30
154.00 40.32
155.00 40.91
156.00 43.09
157.00 45.94
158.00 46.69
159.00 45.97
160.00 46.98
161.00 53.34
162.00 53.66
163.00 43.19
164.00 38.82
165.00 36.83
166.00 36.22
167.00 36.38
168.00 36.73
169.00 36.90
170.00 36.85
171.00 36.63
172.00 36.28
173.00 36.00
174.00 35.90
175.00 36.39
176.00 37.90
177.00 40.47
178.00 43.75
179.00 46.72
180.00 50.35
181.00 62.97
182.00 55.24
183.00 47.69
184.00 45.34
185.00 44.68
186.00 43.87
187.00 42.54
188.00 41.71
189.00 41.97
190.00 43.65
191.00 47.38
192.00 51.71
193.00 50.59
194.00 48.93
195.00 48.91
196.00 48.57
197.00 48.20
198.00 49.47
199.00 49.76
200.00 46.57
201.00 44.63
202.00 45.07
203.00 46.85
204.00 47.87
205.00 47.90
206.00 46.42
207.00 43.90
208.00 43.45
209.00 46.46
210.00 43.76
211.00 37.12
212.00 33.53
213.00 31.94
214.00 31.41
215.00 31.17
216.00 30.91
217.00 30.87
218.00 31.26
219.00 32.07
220.00 33.19
221.00 34.64
222.00 36.31
223.00 37.50
224.00 37.51
225.00 36.91
226.00 36.50
227.00 36.54
228.00 37.03
229.00 37.78
230.00 38.42
231.00 38.61
232.00 38.56
233.00 38.59
234.00 38.60
235.00 38.57
236.00 39.01
237.00 40.61
238.00 43.81
239.00 47.82
240.00 48.72
241.00 46.85
242.00 44.86
243.00 43.16
244.00 41.86
245.00 41.32
246.00 42.20
247.00 45.73
248.00 53.19
249.00 49.96
250.00 46.86
251.00 49.91
252.00 56.58
253.00 46.83
254.00 42.33
255.00 40.76
256.00 40.23
257.00 39.64
258.00 38.44
259.00 36.88
260.00 35.64
261.00 35.16
262.00 35.43
263.00 36.00
264.00 36.22
265.00 35.70
266.00 34.70
267.00 33.66
268.00 32.67
269.00 31.64
270.00 30.62
271.00 29.81
272.00 29.26
273.00 28.86
274.00 28.47
275.00 28.07
276.00 27.70
277.00 27.33
278.00 27.00
279.00 26.75
280.00 26.63
281.00 26.61
282.00 26.63
283.00 26.55
284.00 26.30
285.00 25.98
286.00 25.77
287.00 25.80
288.00 26.06
289.00 26.49
290.00 27.06
291.00 27.69
292.00 28.10
293.00 27.86
294.00 26.93
295.00 25.75
296.00 24.69
297.00 23.87
298.00 23.27
299.00 22.85
300.00 22.56
301.00 22.37
302.00 22.25
303.00 22.18
304.00 22.14
305.00 22.22
306.00 22.55
307.00 23.24
308.00 24.37
309.00 25.92
310.00 27.58
311.00 28.51
312.00 28.07
313.00 26.93
314.00 25.88
315.00 25.13
316.00 24.61
317.00 24.17
318.00 23.69
319.00 23.07
320.00 22.20
321.00 21.15
322.00 20.13
323.00 19.38
324.00 19.05
325.00 19.25
326.00 20.10
327.00 21.89
328.00 25.33
329.00 32.39
330.00 32.37
331.00 25.29
332.00 22.09
333.00 21.17
334.00 22.21
335.00 26.01
336.00 41.44
337.00 30.32
338.00 23.06
339.00 20.49
340.00 20.33
341.00 22.73
342.00 30.11
343.00 29.14
344.00 21.10
345.00 17.71
346.00 16.58
347.00 17.22
348.00 19.97
349.00 26.72
350.00 29.94
351.00 22.41
352.00 19.94
353.00 20.69
354.00 20.27
355.00 14.06
356.00 8.56
357.00 4.81
358.00 2.31
359.00 0.78
