NAME ATR4518R7_1880_X_CO_M45_01T_yyR
FREQUENCY 1880
GAIN 14.86 dBd
TILT	ELECTRICAL
COMMENT DATE 05.08.2013 -45 degrees polarized system Lever position 01T deg
HORIZONTAL 360
0.00 0.10
1.00 0.08
2.00 0.06
3.00 0.04
4.00 0.02
5.00 0.01
6.00 0.01
7.00 0.00
8.00 0.00
9.00 0.01
10.00 0.02
11.00 0.04
12.00 0.07
13.00 0.10
14.00 0.13
15.00 0.18
16.00 0.23
17.00 0.29
18.00 0.36
19.00 0.44
20.00 0.52
21.00 0.62
22.00 0.72
23.00 0.83
24.00 0.96
25.00 1.09
26.00 1.23
27.00 1.39
28.00 1.55
29.00 1.72
30.00 1.90
31.00 2.09
32.00 2.29
33.00 2.51
34.00 2.73
35.00 2.96
36.00 3.20
37.00 3.45
38.00 3.70
39.00 3.97
40.00 4.25
41.00 4.53
42.00 4.82
43.00 5.12
44.00 5.43
45.00 5.75
46.00 6.07
47.00 6.40
48.00 6.74
49.00 7.08
50.00 7.43
51.00 7.79
52.00 8.15
53.00 8.52
54.00 8.89
55.00 9.26
56.00 9.63
57.00 10.01
58.00 10.39
59.00 10.77
60.00 11.15
61.00 11.53
62.00 11.91
63.00 12.29
64.00 12.66
65.00 13.03
66.00 13.40
67.00 13.77
68.00 14.13
69.00 14.49
70.00 14.85
71.00 15.21
72.00 15.57
73.00 15.93
74.00 16.30
75.00 16.67
76.00 17.04
77.00 17.42
78.00 17.81
79.00 18.21
80.00 18.62
81.00 19.04
82.00 19.47
83.00 19.91
84.00 20.36
85.00 20.82
86.00 21.30
87.00 21.78
88.00 22.27
89.00 22.76
90.00 23.26
91.00 23.76
92.00 24.25
93.00 24.74
94.00 25.22
95.00 25.69
96.00 26.14
97.00 26.57
98.00 26.99
99.00 27.37
100.00 27.74
101.00 28.08
102.00 28.38
103.00 28.66
104.00 28.90
105.00 29.10
106.00 29.26
107.00 29.37
108.00 29.42
109.00 29.42
110.00 29.37
111.00 29.28
112.00 29.14
113.00 28.97
114.00 28.77
115.00 28.56
116.00 28.34
117.00 28.13
118.00 27.93
119.00 27.76
120.00 27.61
121.00 27.50
122.00 27.43
123.00 27.40
124.00 27.42
125.00 27.49
126.00 27.61
127.00 27.80
128.00 28.05
129.00 28.36
130.00 28.76
131.00 29.23
132.00 29.79
133.00 30.45
134.00 31.22
135.00 32.12
136.00 33.17
137.00 34.40
138.00 35.85
139.00 37.59
140.00 39.69
141.00 42.26
142.00 45.24
143.00 47.57
144.00 46.99
145.00 44.57
146.00 42.28
147.00 40.46
148.00 39.08
149.00 38.02
150.00 37.22
151.00 36.63
152.00 36.22
153.00 35.96
154.00 35.83
155.00 35.82
156.00 35.91
157.00 36.08
158.00 36.33
159.00 36.62
160.00 36.94
161.00 37.25
162.00 37.51
163.00 37.69
164.00 37.77
165.00 37.73
166.00 37.58
167.00 37.35
168.00 37.07
169.00 36.77
170.00 36.49
171.00 36.25
172.00 36.07
173.00 35.95
174.00 35.92
175.00 35.97
176.00 36.12
177.00 36.37
178.00 36.73
179.00 37.21
180.00 37.84
181.00 38.61
182.00 39.58
183.00 40.76
184.00 42.24
185.00 44.09
186.00 46.49
187.00 49.69
188.00 53.79
189.00 55.62
190.00 52.13
191.00 48.61
192.00 46.05
193.00 44.16
194.00 42.73
195.00 41.63
196.00 40.79
197.00 40.16
198.00 39.71
199.00 39.43
200.00 39.28
201.00 39.27
202.00 39.39
203.00 39.65
204.00 40.04
205.00 40.58
206.00 41.26
207.00 42.12
208.00 43.18
209.00 44.45
210.00 45.91
211.00 47.48
212.00 48.81
213.00 49.20
214.00 48.34
215.00 46.69
216.00 44.93
217.00 43.29
218.00 41.83
219.00 40.57
220.00 39.47
221.00 38.51
222.00 37.66
223.00 36.91
224.00 36.25
225.00 35.66
226.00 35.14
227.00 34.68
228.00 34.27
229.00 33.91
230.00 33.59
231.00 33.32
232.00 33.10
233.00 32.90
234.00 32.74
235.00 32.63
236.00 32.54
237.00 32.48
238.00 32.45
239.00 32.46
240.00 32.48
241.00 32.52
242.00 32.58
243.00 32.64
244.00 32.70
245.00 32.74
246.00 32.76
247.00 32.74
248.00 32.67
249.00 32.54
250.00 32.34
251.00 32.08
252.00 31.75
253.00 31.36
254.00 30.92
255.00 30.45
256.00 29.95
257.00 29.44
258.00 28.92
259.00 28.40
260.00 27.88
261.00 27.38
262.00 26.89
263.00 26.40
264.00 25.94
265.00 25.48
266.00 25.03
267.00 24.60
268.00 24.17
269.00 23.75
270.00 23.34
271.00 22.93
272.00 22.52
273.00 22.12
274.00 21.72
275.00 21.31
276.00 20.91
277.00 20.50
278.00 20.10
279.00 19.69
280.00 19.28
281.00 18.87
282.00 18.45
283.00 18.04
284.00 17.63
285.00 17.22
286.00 16.81
287.00 16.41
288.00 16.00
289.00 15.60
290.00 15.20
291.00 14.81
292.00 14.42
293.00 14.03
294.00 13.65
295.00 13.27
296.00 12.89
297.00 12.52
298.00 12.15
299.00 11.78
300.00 11.42
301.00 11.07
302.00 10.71
303.00 10.36
304.00 10.02
305.00 9.67
306.00 9.33
307.00 9.00
308.00 8.67
309.00 8.34
310.00 8.02
311.00 7.70
312.00 7.39
313.00 7.09
314.00 6.78
315.00 6.49
316.00 6.19
317.00 5.91
318.00 5.63
319.00 5.36
320.00 5.09
321.00 4.83
322.00 4.58
323.00 4.34
324.00 4.10
325.00 3.87
326.00 3.64
327.00 3.43
328.00 3.22
329.00 3.02
330.00 2.83
331.00 2.65
332.00 2.47
333.00 2.31
334.00 2.14
335.00 1.99
336.00 1.85
337.00 1.71
338.00 1.58
339.00 1.46
340.00 1.34
341.00 1.23
342.00 1.13
343.00 1.03
344.00 0.94
345.00 0.86
346.00 0.78
347.00 0.70
348.00 0.64
349.00 0.57
350.00 0.51
351.00 0.46
352.00 0.40
353.00 0.35
354.00 0.31
355.00 0.27
356.00 0.23
357.00 0.19
358.00 0.16
359.00 0.13
VERTICAL 360
0.00 0.57
1.00 0.01
2.00 0.18
3.00 1.10
4.00 2.89
5.00 5.83
6.00 10.70
7.00 21.56
8.00 24.53
9.00 15.31
10.00 13.53
11.00 14.56
12.00 18.74
13.00 32.54
14.00 22.39
15.00 16.01
16.00 13.72
17.00 13.42
18.00 14.81
19.00 18.38
20.00 26.11
21.00 26.28
22.00 19.69
23.00 17.18
24.00 16.94
25.00 18.61
26.00 22.95
27.00 32.68
28.00 26.74
29.00 20.60
30.00 17.99
31.00 17.09
32.00 17.45
33.00 19.02
34.00 22.00
35.00 27.02
36.00 34.84
37.00 35.16
38.00 31.15
39.00 28.42
40.00 25.39
41.00 22.51
42.00 20.42
43.00 19.20
44.00 18.70
45.00 18.72
46.00 19.03
47.00 19.58
48.00 20.49
49.00 22.13
50.00 25.11
51.00 30.58
52.00 34.35
53.00 28.78
54.00 25.11
55.00 23.42
56.00 22.89
57.00 23.18
58.00 24.13
59.00 25.71
60.00 27.87
61.00 30.28
62.00 31.70
63.00 31.19
64.00 29.94
65.00 29.04
66.00 28.72
67.00 28.93
68.00 29.57
69.00 30.57
70.00 31.84
71.00 33.05
72.00 33.60
73.00 33.47
74.00 33.23
75.00 33.00
76.00 32.33
77.00 30.90
78.00 29.02
79.00 27.26
80.00 26.01
81.00 25.43
82.00 25.47
83.00 25.93
84.00 26.52
85.00 27.01
86.00 27.36
87.00 27.73
88.00 28.45
89.00 29.77
90.00 31.80
91.00 33.53
92.00 33.06
93.00 31.43
94.00 30.56
95.00 30.72
96.00 31.61
97.00 32.96
98.00 34.99
99.00 38.18
100.00 42.72
101.00 47.08
102.00 47.80
103.00 44.27
104.00 40.73
105.00 38.87
106.00 38.29
107.00 38.17
108.00 37.76
109.00 36.93
110.00 36.00
111.00 35.41
112.00 35.43
113.00 35.93
114.00 36.32
115.00 36.10
116.00 35.51
117.00 35.15
118.00 35.49
119.00 36.76
120.00 38.66
121.00 39.80
122.00 39.74
123.00 40.12
124.00 41.94
125.00 44.89
126.00 47.73
127.00 50.17
128.00 47.86
129.00 42.19
130.00 38.43
131.00 36.30
132.00 35.06
133.00 34.18
134.00 33.54
135.00 33.27
136.00 33.47
137.00 34.02
138.00 34.64
139.00 35.08
140.00 35.43
141.00 36.04
142.00 37.14
143.00 38.48
144.00 39.41
145.00 39.95
146.00 41.08
147.00 43.92
148.00 50.10
149.00 54.30
150.00 48.18
151.00 44.69
152.00 42.54
153.00 41.21
154.00 41.08
155.00 42.48
156.00 45.18
157.00 47.37
158.00 47.98
159.00 49.52
160.00 55.56
161.00 58.31
162.00 45.77
163.00 40.19
164.00 37.26
165.00 36.09
166.00 36.14
167.00 36.67
168.00 36.85
169.00 36.63
170.00 36.46
171.00 36.41
172.00 36.32
173.00 36.52
174.00 37.35
175.00 39.03
176.00 41.89
177.00 46.07
178.00 50.31
179.00 52.40
180.00 55.81
181.00 60.90
182.00 52.41
183.00 47.85
184.00 46.13
185.00 45.96
186.00 46.12
187.00 44.62
188.00 42.24
189.00 41.18
190.00 42.40
191.00 46.90
192.00 53.10
193.00 50.51
194.00 51.22
195.00 60.03
196.00 51.87
197.00 47.95
198.00 49.84
199.00 50.47
200.00 45.25
201.00 43.07
202.00 44.33
203.00 49.08
204.00 53.29
205.00 50.36
206.00 46.87
207.00 43.93
208.00 42.61
209.00 41.94
210.00 38.93
211.00 35.18
212.00 32.71
213.00 31.51
214.00 31.07
215.00 30.85
216.00 30.73
217.00 30.89
218.00 31.49
219.00 32.45
220.00 33.69
221.00 35.24
222.00 37.01
223.00 38.31
224.00 38.35
225.00 37.72
226.00 37.39
227.00 37.66
228.00 38.32
229.00 38.59
230.00 37.97
231.00 37.08
232.00 36.77
233.00 37.26
234.00 38.37
235.00 39.76
236.00 41.54
237.00 44.24
238.00 47.64
239.00 49.67
240.00 50.44
241.00 51.67
242.00 51.40
243.00 48.76
244.00 46.18
245.00 45.07
246.00 46.42
247.00 50.57
248.00 48.86
249.00 44.87
250.00 44.97
251.00 51.60
252.00 56.21
253.00 44.22
254.00 41.01
255.00 40.15
256.00 39.99
257.00 39.36
258.00 37.91
259.00 36.32
260.00 35.45
261.00 35.67
262.00 36.86
263.00 38.09
264.00 37.77
265.00 36.04
266.00 34.21
267.00 32.91
268.00 32.14
269.00 31.53
270.00 30.74
271.00 29.80
272.00 28.96
273.00 28.36
274.00 28.01
275.00 27.83
276.00 27.70
277.00 27.45
278.00 27.06
279.00 26.58
280.00 26.13
281.00 25.76
282.00 25.50
283.00 25.29
284.00 25.06
285.00 24.81
286.00 24.60
287.00 24.48
288.00 24.51
289.00 24.76
290.00 25.34
291.00 26.32
292.00 27.61
293.00 28.70
294.00 28.80
295.00 27.89
296.00 26.65
297.00 25.54
298.00 24.67
299.00 23.99
300.00 23.47
301.00 23.10
302.00 22.84
303.00 22.66
304.00 22.52
305.00 22.44
306.00 22.53
307.00 22.88
308.00 23.57
309.00 24.58
310.00 25.77
311.00 26.78
312.00 27.16
313.00 26.91
314.00 26.38
315.00 25.79
316.00 25.18
317.00 24.60
318.00 24.10
319.00 23.68
320.00 23.15
321.00 22.31
322.00 21.25
323.00 20.26
324.00 19.54
325.00 19.18
326.00 19.27
327.00 19.96
328.00 21.64
329.00 25.09
330.00 31.32
331.00 29.54
332.00 23.96
333.00 21.38
334.00 20.79
335.00 21.93
336.00 25.40
337.00 35.07
338.00 32.34
339.00 24.35
340.00 21.55
341.00 21.31
342.00 23.71
343.00 30.51
344.00 28.09
345.00 20.93
346.00 17.60
347.00 16.35
348.00 16.77
349.00 19.10
350.00 24.76
351.00 31.93
352.00 24.80
353.00 22.14
354.00 23.13
355.00 19.73
356.00 12.64
357.00 7.57
358.00 4.16
359.00 1.91
