NAME ATR4518R7_2655_X_CO_P45_01T_yyR
FREQUENCY 2655
GAIN 15.39 dBd
TILT	ELECTRICAL
COMMENT DATE 05.08.2013 +45 degrees polarized system Lever position 01T deg
HORIZONTAL 360
0.00 0.01
1.00 0.02
2.00 0.05
3.00 0.09
4.00 0.14
5.00 0.20
6.00 0.28
7.00 0.36
8.00 0.46
9.00 0.57
10.00 0.69
11.00 0.82
12.00 0.96
13.00 1.11
14.00 1.27
15.00 1.43
16.00 1.60
17.00 1.77
18.00 1.95
19.00 2.12
20.00 2.30
21.00 2.47
22.00 2.64
23.00 2.80
24.00 2.96
25.00 3.11
26.00 3.25
27.00 3.39
28.00 3.52
29.00 3.65
30.00 3.77
31.00 3.88
32.00 4.00
33.00 4.11
34.00 4.23
35.00 4.34
36.00 4.46
37.00 4.59
38.00 4.72
39.00 4.86
40.00 5.01
41.00 5.16
42.00 5.34
43.00 5.52
44.00 5.72
45.00 5.93
46.00 6.16
47.00 6.40
48.00 6.66
49.00 6.93
50.00 7.22
51.00 7.53
52.00 7.85
53.00 8.20
54.00 8.56
55.00 8.94
56.00 9.34
57.00 9.77
58.00 10.21
59.00 10.67
60.00 11.16
61.00 11.67
62.00 12.21
63.00 12.77
64.00 13.35
65.00 13.96
66.00 14.60
67.00 15.27
68.00 15.96
69.00 16.68
70.00 17.42
71.00 18.18
72.00 18.96
73.00 19.76
74.00 20.56
75.00 21.36
76.00 22.16
77.00 22.95
78.00 23.70
79.00 24.42
80.00 25.09
81.00 25.69
82.00 26.20
83.00 26.61
84.00 26.92
85.00 27.12
86.00 27.20
87.00 27.19
88.00 27.10
89.00 26.95
90.00 26.77
91.00 26.57
92.00 26.37
93.00 26.19
94.00 26.04
95.00 25.93
96.00 25.87
97.00 25.85
98.00 25.87
99.00 25.94
100.00 26.05
101.00 26.19
102.00 26.35
103.00 26.52
104.00 26.67
105.00 26.79
106.00 26.86
107.00 26.88
108.00 26.83
109.00 26.73
110.00 26.59
111.00 26.43
112.00 26.26
113.00 26.13
114.00 26.03
115.00 26.01
116.00 26.06
117.00 26.21
118.00 26.48
119.00 26.88
120.00 27.44
121.00 28.19
122.00 29.18
123.00 30.48
124.00 32.19
125.00 34.53
126.00 37.99
127.00 44.09
128.00 56.45
129.00 42.91
130.00 37.42
131.00 34.20
132.00 32.00
133.00 30.40
134.00 29.23
135.00 28.37
136.00 27.77
137.00 27.40
138.00 27.22
139.00 27.25
140.00 27.46
141.00 27.87
142.00 28.47
143.00 29.30
144.00 30.35
145.00 31.64
146.00 33.12
147.00 34.65
148.00 35.81
149.00 36.02
150.00 35.20
151.00 33.90
152.00 32.59
153.00 31.46
154.00 30.57
155.00 29.91
156.00 29.47
157.00 29.23
158.00 29.19
159.00 29.33
160.00 29.65
161.00 30.16
162.00 30.86
163.00 31.74
164.00 32.81
165.00 34.04
166.00 35.36
167.00 36.58
168.00 37.38
169.00 37.49
170.00 36.93
171.00 36.01
172.00 35.03
173.00 34.13
174.00 33.36
175.00 32.72
176.00 32.22
177.00 31.82
178.00 31.52
179.00 31.30
180.00 31.15
181.00 31.07
182.00 31.06
183.00 31.10
184.00 31.22
185.00 31.41
186.00 31.69
187.00 32.06
188.00 32.52
189.00 33.08
190.00 33.72
191.00 34.38
192.00 35.01
193.00 35.44
194.00 35.55
195.00 35.22
196.00 34.53
197.00 33.61
198.00 32.62
199.00 31.64
200.00 30.73
201.00 29.92
202.00 29.21
203.00 28.60
204.00 28.10
205.00 27.68
206.00 27.36
207.00 27.12
208.00 26.96
209.00 26.88
210.00 26.87
211.00 26.93
212.00 27.07
213.00 27.28
214.00 27.55
215.00 27.89
216.00 28.27
217.00 28.67
218.00 29.08
219.00 29.43
220.00 29.69
221.00 29.79
222.00 29.70
223.00 29.43
224.00 29.01
225.00 28.49
226.00 27.94
227.00 27.39
228.00 26.89
229.00 26.45
230.00 26.08
231.00 25.80
232.00 25.60
233.00 25.50
234.00 25.48
235.00 25.56
236.00 25.71
237.00 25.95
238.00 26.27
239.00 26.65
240.00 27.08
241.00 27.54
242.00 28.02
243.00 28.45
244.00 28.83
245.00 29.09
246.00 29.23
247.00 29.23
248.00 29.11
249.00 28.90
250.00 28.63
251.00 28.33
252.00 28.04
253.00 27.76
254.00 27.50
255.00 27.28
256.00 27.08
257.00 26.90
258.00 26.74
259.00 26.59
260.00 26.45
261.00 26.31
262.00 26.15
263.00 25.98
264.00 25.80
265.00 25.61
266.00 25.39
267.00 25.17
268.00 24.93
269.00 24.68
270.00 24.43
271.00 24.18
272.00 23.92
273.00 23.66
274.00 23.40
275.00 23.14
276.00 22.88
277.00 22.62
278.00 22.35
279.00 22.08
280.00 21.80
281.00 21.51
282.00 21.21
283.00 20.89
284.00 20.56
285.00 20.22
286.00 19.85
287.00 19.46
288.00 19.05
289.00 18.62
290.00 18.17
291.00 17.71
292.00 17.24
293.00 16.76
294.00 16.27
295.00 15.78
296.00 15.29
297.00 14.81
298.00 14.34
299.00 13.87
300.00 13.42
301.00 12.98
302.00 12.54
303.00 12.12
304.00 11.72
305.00 11.32
306.00 10.93
307.00 10.54
308.00 10.17
309.00 9.80
310.00 9.43
311.00 9.07
312.00 8.70
313.00 8.34
314.00 7.98
315.00 7.62
316.00 7.25
317.00 6.89
318.00 6.54
319.00 6.18
320.00 5.82
321.00 5.47
322.00 5.12
323.00 4.78
324.00 4.45
325.00 4.13
326.00 3.82
327.00 3.52
328.00 3.23
329.00 2.96
330.00 2.70
331.00 2.46
332.00 2.24
333.00 2.02
334.00 1.83
335.00 1.64
336.00 1.48
337.00 1.32
338.00 1.18
339.00 1.06
340.00 0.94
341.00 0.83
342.00 0.74
343.00 0.65
344.00 0.57
345.00 0.50
346.00 0.43
347.00 0.37
348.00 0.32
349.00 0.27
350.00 0.22
351.00 0.17
352.00 0.13
353.00 0.10
354.00 0.07
355.00 0.04
356.00 0.02
357.00 0.00
358.00 0.00
359.00 0.00
VERTICAL 360
0.00 0.44
1.00 0.00
2.00 0.94
3.00 3.41
4.00 7.89
5.00 14.89
6.00 17.02
7.00 15.26
8.00 17.88
9.00 22.92
10.00 16.82
11.00 13.28
12.00 13.31
13.00 16.40
14.00 22.48
15.00 20.60
16.00 16.52
17.00 15.96
18.00 18.81
19.00 28.53
20.00 29.27
21.00 20.97
22.00 18.46
23.00 17.65
24.00 17.86
25.00 18.46
26.00 18.05
27.00 15.97
28.00 13.28
29.00 11.37
30.00 10.96
31.00 12.35
32.00 15.80
33.00 21.13
34.00 23.08
35.00 20.38
36.00 19.17
37.00 20.50
38.00 24.34
39.00 26.18
40.00 23.99
41.00 22.72
42.00 21.92
43.00 21.55
44.00 22.78
45.00 26.87
46.00 35.56
47.00 34.85
48.00 31.12
49.00 31.86
50.00 36.87
51.00 47.42
52.00 43.49
53.00 33.41
54.00 27.46
55.00 25.39
56.00 26.69
57.00 31.15
58.00 31.98
59.00 26.57
60.00 21.72
61.00 18.36
62.00 16.55
63.00 15.96
64.00 16.10
65.00 16.42
66.00 16.65
67.00 17.17
68.00 18.32
69.00 19.82
70.00 21.01
71.00 21.48
72.00 21.65
73.00 22.28
74.00 23.80
75.00 25.88
76.00 27.54
77.00 27.96
78.00 27.73
79.00 26.87
80.00 25.32
81.00 25.68
82.00 26.89
83.00 28.33
84.00 29.27
85.00 29.05
86.00 27.22
87.00 25.56
88.00 25.48
89.00 27.67
90.00 31.00
91.00 29.74
92.00 27.42
93.00 28.42
94.00 33.07
95.00 32.02
96.00 28.40
97.00 28.63
98.00 30.96
99.00 32.01
100.00 34.10
101.00 44.05
102.00 39.68
103.00 34.87
104.00 33.87
105.00 32.73
106.00 33.01
107.00 36.42
108.00 43.56
109.00 50.43
110.00 48.06
111.00 45.66
112.00 48.85
113.00 53.47
114.00 47.61
115.00 40.59
116.00 36.47
117.00 35.84
118.00 38.64
119.00 44.91
120.00 46.65
121.00 43.05
122.00 42.77
123.00 42.69
124.00 38.23
125.00 35.37
126.00 34.54
127.00 33.86
128.00 33.81
129.00 36.43
130.00 39.58
131.00 37.66
132.00 36.86
133.00 34.70
134.00 32.33
135.00 33.56
136.00 38.03
137.00 36.44
138.00 35.39
139.00 39.63
140.00 46.94
141.00 44.57
142.00 37.50
143.00 33.92
144.00 34.27
145.00 37.71
146.00 42.07
147.00 42.97
148.00 39.58
149.00 38.73
150.00 40.75
151.00 39.46
152.00 37.66
153.00 37.67
154.00 37.39
155.00 37.77
156.00 40.28
157.00 43.66
158.00 43.47
159.00 40.84
160.00 40.31
161.00 42.46
162.00 43.84
163.00 41.91
164.00 39.55
165.00 38.20
166.00 39.01
167.00 42.72
168.00 45.15
169.00 40.21
170.00 36.86
171.00 36.33
172.00 37.95
173.00 39.76
174.00 42.18
175.00 45.17
176.00 36.64
177.00 31.73
178.00 30.38
179.00 31.40
180.00 34.09
181.00 37.43
182.00 40.48
183.00 41.65
184.00 42.28
185.00 42.18
186.00 41.34
187.00 43.43
188.00 47.21
189.00 41.47
190.00 37.84
191.00 37.69
192.00 41.03
193.00 46.66
194.00 40.97
195.00 37.23
196.00 37.05
197.00 37.99
198.00 37.30
199.00 36.13
200.00 35.24
201.00 34.68
202.00 35.68
203.00 39.24
204.00 42.39
205.00 38.59
206.00 34.95
207.00 33.69
208.00 34.81
209.00 37.91
210.00 41.20
211.00 41.85
212.00 40.64
213.00 39.30
214.00 37.01
215.00 35.08
216.00 35.20
217.00 37.18
218.00 38.61
219.00 36.63
220.00 33.49
221.00 32.26
222.00 33.80
223.00 36.60
224.00 36.54
225.00 36.94
226.00 39.47
227.00 39.00
228.00 36.96
229.00 36.05
230.00 36.16
231.00 37.87
232.00 39.75
233.00 38.32
234.00 36.77
235.00 36.66
236.00 37.13
237.00 37.85
238.00 39.66
239.00 43.25
240.00 47.03
241.00 45.63
242.00 40.40
243.00 36.22
244.00 33.90
245.00 32.90
246.00 32.45
247.00 31.91
248.00 31.13
249.00 30.49
250.00 30.69
251.00 32.15
252.00 34.01
253.00 33.77
254.00 32.52
255.00 32.12
256.00 32.40
257.00 32.95
258.00 33.74
259.00 34.80
260.00 36.22
261.00 38.34
262.00 40.90
263.00 41.10
264.00 40.15
265.00 42.31
266.00 75.32
267.00 44.00
268.00 37.80
269.00 36.96
270.00 38.63
271.00 38.56
272.00 37.21
273.00 38.02
274.00 40.45
275.00 42.54
276.00 44.66
277.00 41.92
278.00 35.12
279.00 30.58
280.00 28.49
281.00 28.35
282.00 29.32
283.00 30.26
284.00 30.53
285.00 30.50
286.00 30.63
287.00 29.12
288.00 25.66
289.00 22.66
290.00 20.57
291.00 18.93
292.00 17.38
293.00 15.87
294.00 14.51
295.00 13.40
296.00 12.55
297.00 11.94
298.00 11.60
299.00 11.59
300.00 11.97
301.00 12.77
302.00 14.11
303.00 16.24
304.00 19.60
305.00 25.08
306.00 30.95
307.00 26.87
308.00 23.13
309.00 22.18
310.00 24.04
311.00 30.89
312.00 42.19
313.00 29.44
314.00 26.87
315.00 26.35
316.00 25.75
317.00 24.88
318.00 23.92
319.00 22.27
320.00 20.38
321.00 19.55
322.00 20.51
323.00 23.83
324.00 28.40
325.00 25.24
326.00 21.36
327.00 20.08
328.00 20.61
329.00 21.92
330.00 22.85
331.00 23.17
332.00 23.00
333.00 21.58
334.00 19.12
335.00 17.13
336.00 16.50
337.00 17.68
338.00 21.59
339.00 36.19
340.00 27.96
341.00 21.13
342.00 20.22
343.00 23.81
344.00 32.61
345.00 24.33
346.00 20.46
347.00 20.71
348.00 23.53
349.00 25.52
350.00 24.31
351.00 25.77
352.00 37.57
353.00 25.29
354.00 20.17
355.00 22.70
356.00 28.45
357.00 12.31
358.00 5.90
359.00 2.30
