NAME ATR4518R7_1850_X_CO_M45_10T_yL
FREQUENCY 1850
GAIN 15.05 dBd
TILT	ELECTRICAL
COMMENT DATE 05.08.2013 -45 degrees polarized system Lever position 10T deg
HORIZONTAL 360
0.00 0.00
1.00 0.00
2.00 0.00
3.00 0.01
4.00 0.02
5.00 0.04
6.00 0.07
7.00 0.10
8.00 0.14
9.00 0.18
10.00 0.22
11.00 0.28
12.00 0.33
13.00 0.39
14.00 0.46
15.00 0.52
16.00 0.60
17.00 0.67
18.00 0.75
19.00 0.82
20.00 0.90
21.00 0.99
22.00 1.07
23.00 1.16
24.00 1.25
25.00 1.34
26.00 1.44
27.00 1.54
28.00 1.65
29.00 1.76
30.00 1.88
31.00 2.00
32.00 2.13
33.00 2.27
34.00 2.41
35.00 2.57
36.00 2.73
37.00 2.90
38.00 3.08
39.00 3.27
40.00 3.46
41.00 3.67
42.00 3.88
43.00 4.10
44.00 4.33
45.00 4.56
46.00 4.80
47.00 5.05
48.00 5.30
49.00 5.55
50.00 5.81
51.00 6.07
52.00 6.34
53.00 6.61
54.00 6.88
55.00 7.15
56.00 7.43
57.00 7.70
58.00 7.98
59.00 8.27
60.00 8.55
61.00 8.85
62.00 9.14
63.00 9.43
64.00 9.74
65.00 10.04
66.00 10.36
67.00 10.68
68.00 11.01
69.00 11.34
70.00 11.68
71.00 12.03
72.00 12.39
73.00 12.75
74.00 13.12
75.00 13.50
76.00 13.87
77.00 14.26
78.00 14.65
79.00 15.04
80.00 15.42
81.00 15.81
82.00 16.19
83.00 16.56
84.00 16.91
85.00 17.26
86.00 17.60
87.00 17.91
88.00 18.22
89.00 18.51
90.00 18.78
91.00 19.04
92.00 19.30
93.00 19.55
94.00 19.79
95.00 20.04
96.00 20.29
97.00 20.55
98.00 20.82
99.00 21.11
100.00 21.41
101.00 21.74
102.00 22.08
103.00 22.45
104.00 22.83
105.00 23.22
106.00 23.62
107.00 24.01
108.00 24.39
109.00 24.74
110.00 25.05
111.00 25.30
112.00 25.50
113.00 25.62
114.00 25.69
115.00 25.70
116.00 25.68
117.00 25.64
118.00 25.60
119.00 25.58
120.00 25.58
121.00 25.61
122.00 25.69
123.00 25.81
124.00 25.99
125.00 26.23
126.00 26.51
127.00 26.85
128.00 27.23
129.00 27.64
130.00 28.06
131.00 28.48
132.00 28.87
133.00 29.21
134.00 29.47
135.00 29.64
136.00 29.73
137.00 29.75
138.00 29.72
139.00 29.67
140.00 29.62
141.00 29.62
142.00 29.66
143.00 29.77
144.00 29.97
145.00 30.26
146.00 30.65
147.00 31.14
148.00 31.72
149.00 32.39
150.00 33.09
151.00 33.79
152.00 34.37
153.00 34.72
154.00 34.75
155.00 34.47
156.00 33.93
157.00 33.28
158.00 32.61
159.00 32.00
160.00 31.46
161.00 31.04
162.00 30.73
163.00 30.55
164.00 30.48
165.00 30.54
166.00 30.71
167.00 31.00
168.00 31.38
169.00 31.86
170.00 32.37
171.00 32.89
172.00 33.30
173.00 33.53
174.00 33.48
175.00 33.16
176.00 32.61
177.00 31.93
178.00 31.22
179.00 30.53
180.00 29.90
181.00 29.37
182.00 28.94
183.00 28.62
184.00 28.41
185.00 28.32
186.00 28.35
187.00 28.50
188.00 28.78
189.00 29.21
190.00 29.80
191.00 30.57
192.00 31.56
193.00 32.82
194.00 34.42
195.00 36.44
196.00 38.91
197.00 41.27
198.00 41.49
199.00 39.16
200.00 36.45
201.00 34.14
202.00 32.27
203.00 30.75
204.00 29.50
205.00 28.46
206.00 27.59
207.00 26.87
208.00 26.29
209.00 25.81
210.00 25.45
211.00 25.18
212.00 25.00
213.00 24.92
214.00 24.92
215.00 25.02
216.00 25.21
217.00 25.51
218.00 25.91
219.00 26.44
220.00 27.12
221.00 27.95
222.00 28.99
223.00 30.29
224.00 31.92
225.00 34.02
226.00 36.82
227.00 40.42
228.00 42.95
229.00 40.37
230.00 36.70
231.00 33.84
232.00 31.67
233.00 29.97
234.00 28.62
235.00 27.52
236.00 26.63
237.00 25.90
238.00 25.31
239.00 24.84
240.00 24.48
241.00 24.21
242.00 24.02
243.00 23.90
244.00 23.84
245.00 23.82
246.00 23.83
247.00 23.85
248.00 23.87
249.00 23.85
250.00 23.80
251.00 23.68
252.00 23.50
253.00 23.25
254.00 22.94
255.00 22.58
256.00 22.19
257.00 21.78
258.00 21.37
259.00 20.97
260.00 20.59
261.00 20.23
262.00 19.89
263.00 19.59
264.00 19.31
265.00 19.06
266.00 18.83
267.00 18.63
268.00 18.43
269.00 18.25
270.00 18.07
271.00 17.89
272.00 17.70
273.00 17.50
274.00 17.28
275.00 17.03
276.00 16.76
277.00 16.46
278.00 16.14
279.00 15.80
280.00 15.43
281.00 15.06
282.00 14.67
283.00 14.28
284.00 13.89
285.00 13.50
286.00 13.11
287.00 12.74
288.00 12.37
289.00 12.02
290.00 11.68
291.00 11.36
292.00 11.04
293.00 10.75
294.00 10.46
295.00 10.19
296.00 9.92
297.00 9.67
298.00 9.43
299.00 9.19
300.00 8.95
301.00 8.73
302.00 8.50
303.00 8.27
304.00 8.05
305.00 7.83
306.00 7.61
307.00 7.39
308.00 7.17
309.00 6.96
310.00 6.74
311.00 6.53
312.00 6.33
313.00 6.13
314.00 5.93
315.00 5.74
316.00 5.55
317.00 5.37
318.00 5.20
319.00 5.03
320.00 4.86
321.00 4.70
322.00 4.53
323.00 4.37
324.00 4.21
325.00 4.05
326.00 3.88
327.00 3.71
328.00 3.54
329.00 3.36
330.00 3.18
331.00 3.00
332.00 2.82
333.00 2.63
334.00 2.44
335.00 2.26
336.00 2.08
337.00 1.90
338.00 1.73
339.00 1.56
340.00 1.40
341.00 1.25
342.00 1.11
343.00 0.98
344.00 0.86
345.00 0.74
346.00 0.64
347.00 0.55
348.00 0.46
349.00 0.38
350.00 0.32
351.00 0.26
352.00 0.20
353.00 0.16
354.00 0.12
355.00 0.08
356.00 0.06
357.00 0.03
358.00 0.02
359.00 0.01
VERTICAL 360
0.00 26.18
1.00 28.13
2.00 22.00
3.00 15.45
4.00 10.52
5.00 6.80
6.00 4.03
7.00 2.03
8.00 0.73
9.00 0.08
10.00 0.07
11.00 0.72
12.00 2.12
13.00 4.46
14.00 8.14
15.00 14.30
16.00 23.55
17.00 16.99
18.00 13.58
19.00 12.89
20.00 14.03
21.00 16.93
22.00 20.96
23.00 20.61
24.00 17.56
25.00 15.95
26.00 15.75
27.00 16.74
28.00 18.93
29.00 22.80
30.00 28.35
31.00 26.35
32.00 22.26
33.00 20.59
34.00 20.80
35.00 22.69
36.00 26.15
37.00 29.10
38.00 27.00
39.00 23.59
40.00 20.99
41.00 19.35
42.00 18.72
43.00 19.11
44.00 20.43
45.00 22.24
46.00 23.41
47.00 22.99
48.00 21.57
49.00 19.94
50.00 18.43
51.00 17.19
52.00 16.29
53.00 15.73
54.00 15.47
55.00 15.47
56.00 15.74
57.00 16.33
58.00 17.36
59.00 18.89
60.00 20.93
61.00 23.44
62.00 26.30
63.00 29.53
64.00 33.38
65.00 38.56
66.00 45.71
67.00 47.05
68.00 44.89
69.00 44.81
70.00 44.41
71.00 42.86
72.00 41.91
73.00 42.13
74.00 43.38
75.00 45.16
76.00 44.51
77.00 40.57
78.00 37.24
79.00 35.42
80.00 34.99
81.00 35.68
82.00 36.78
83.00 37.02
84.00 36.21
85.00 35.50
86.00 35.57
87.00 36.75
88.00 39.46
89.00 44.75
90.00 56.21
91.00 53.83
92.00 51.34
93.00 54.04
94.00 53.54
95.00 47.45
96.00 42.72
97.00 39.47
98.00 37.76
99.00 37.56
100.00 38.83
101.00 41.24
102.00 43.71
103.00 44.25
104.00 42.47
105.00 40.30
106.00 39.12
107.00 39.33
108.00 40.87
109.00 43.34
110.00 45.67
111.00 46.42
112.00 46.00
113.00 46.40
114.00 49.43
115.00 54.69
116.00 48.30
117.00 43.79
118.00 41.76
119.00 40.86
120.00 40.21
121.00 39.39
122.00 38.48
123.00 37.89
124.00 37.89
125.00 38.61
126.00 40.20
127.00 42.84
128.00 45.58
129.00 44.37
130.00 41.37
131.00 39.13
132.00 37.49
133.00 36.42
134.00 36.29
135.00 37.52
136.00 40.45
137.00 44.68
138.00 46.16
139.00 44.75
140.00 43.91
141.00 43.56
142.00 43.89
143.00 45.76
144.00 48.93
145.00 47.24
146.00 43.74
147.00 42.50
148.00 43.37
149.00 44.33
150.00 41.54
151.00 38.12
152.00 35.99
153.00 34.96
154.00 34.74
155.00 35.23
156.00 36.35
157.00 37.40
158.00 36.45
159.00 34.03
160.00 32.11
161.00 31.27
162.00 31.59
163.00 33.06
164.00 35.69
165.00 39.45
166.00 44.66
167.00 44.49
168.00 37.29
169.00 32.70
170.00 30.10
171.00 28.98
172.00 28.96
173.00 29.63
174.00 30.62
175.00 31.98
176.00 33.91
177.00 35.78
178.00 35.65
179.00 34.82
180.00 35.60
181.00 39.28
182.00 48.80
183.00 46.88
184.00 42.06
185.00 39.73
186.00 37.22
187.00 35.79
188.00 36.36
189.00 38.92
190.00 40.65
191.00 39.19
192.00 38.81
193.00 40.94
194.00 46.48
195.00 59.52
196.00 51.54
197.00 47.04
198.00 42.95
199.00 37.86
200.00 33.87
201.00 31.62
202.00 31.18
203.00 32.71
204.00 36.53
205.00 38.63
206.00 34.33
207.00 31.22
208.00 29.62
209.00 28.94
210.00 28.90
211.00 29.42
212.00 30.53
213.00 32.29
214.00 34.76
215.00 38.05
216.00 42.27
217.00 47.51
218.00 53.56
219.00 57.44
220.00 55.63
221.00 53.48
222.00 51.57
223.00 48.77
224.00 45.95
225.00 44.13
226.00 43.59
227.00 44.30
228.00 45.86
229.00 46.80
230.00 46.04
231.00 45.09
232.00 44.94
233.00 45.63
234.00 47.23
235.00 50.47
236.00 58.65
237.00 58.31
238.00 48.12
239.00 42.99
240.00 39.81
241.00 38.10
242.00 37.73
243.00 38.66
244.00 40.89
245.00 44.47
246.00 49.51
247.00 54.97
248.00 52.93
249.00 46.83
250.00 42.22
251.00 39.44
252.00 38.44
253.00 39.45
254.00 43.43
255.00 57.49
256.00 46.46
257.00 40.54
258.00 38.10
259.00 36.91
260.00 36.04
261.00 34.99
262.00 33.71
263.00 32.43
264.00 31.33
265.00 30.54
266.00 30.05
267.00 29.80
268.00 29.64
269.00 29.37
270.00 28.83
271.00 28.01
272.00 27.05
273.00 26.21
274.00 25.65
275.00 25.46
276.00 25.59
277.00 25.92
278.00 26.23
279.00 26.37
280.00 26.35
281.00 26.33
282.00 26.47
283.00 26.89
284.00 27.62
285.00 28.63
286.00 29.89
287.00 31.39
288.00 33.30
289.00 36.08
290.00 41.27
291.00 49.02
292.00 37.41
293.00 31.43
294.00 27.71
295.00 25.18
296.00 23.39
297.00 22.09
298.00 21.11
299.00 20.40
300.00 20.02
301.00 20.07
302.00 20.66
303.00 21.82
304.00 23.55
305.00 25.68
306.00 27.84
307.00 28.88
308.00 27.41
309.00 24.79
310.00 22.68
311.00 21.56
312.00 21.45
313.00 22.33
314.00 24.11
315.00 26.54
316.00 28.45
317.00 27.12
318.00 23.67
319.00 20.70
320.00 18.80
321.00 18.03
322.00 18.43
323.00 20.17
324.00 23.84
325.00 32.38
326.00 34.09
327.00 24.33
328.00 20.24
329.00 18.09
330.00 17.20
331.00 17.41
332.00 18.73
333.00 21.29
334.00 25.43
335.00 31.06
336.00 32.30
337.00 29.82
338.00 29.45
339.00 32.42
340.00 49.31
341.00 31.85
342.00 25.31
343.00 22.53
344.00 21.88
345.00 23.02
346.00 25.73
347.00 28.26
348.00 27.60
349.00 26.58
350.00 27.39
351.00 30.86
352.00 33.08
353.00 26.18
354.00 21.52
355.00 19.00
356.00 18.05
357.00 18.44
358.00 20.05
359.00 22.71
