NAME ATR4518R7_0847_X_CO_P45_02T
FREQUENCY 0847
GAIN 14.40 dBd
TILT	ELECTRICAL
COMMENT DATE 05.08.2013 +45 degrees polarized system Lever position 02T deg
HORIZONTAL 360
0.00 0.00
1.00 0.01
2.00 0.03
3.00 0.05
4.00 0.08
5.00 0.11
6.00 0.15
7.00 0.19
8.00 0.25
9.00 0.30
10.00 0.36
11.00 0.43
12.00 0.51
13.00 0.59
14.00 0.67
15.00 0.77
16.00 0.86
17.00 0.97
18.00 1.07
19.00 1.19
20.00 1.31
21.00 1.44
22.00 1.57
23.00 1.71
24.00 1.85
25.00 2.00
26.00 2.16
27.00 2.32
28.00 2.49
29.00 2.66
30.00 2.84
31.00 3.02
32.00 3.21
33.00 3.41
34.00 3.61
35.00 3.81
36.00 4.03
37.00 4.24
38.00 4.47
39.00 4.70
40.00 4.93
41.00 5.17
42.00 5.42
43.00 5.67
44.00 5.92
45.00 6.19
46.00 6.46
47.00 6.73
48.00 7.01
49.00 7.29
50.00 7.58
51.00 7.88
52.00 8.18
53.00 8.49
54.00 8.80
55.00 9.11
56.00 9.44
57.00 9.77
58.00 10.10
59.00 10.44
60.00 10.79
61.00 11.13
62.00 11.49
63.00 11.85
64.00 12.22
65.00 12.59
66.00 12.97
67.00 13.35
68.00 13.74
69.00 14.14
70.00 14.53
71.00 14.94
72.00 15.35
73.00 15.76
74.00 16.18
75.00 16.60
76.00 17.03
77.00 17.46
78.00 17.89
79.00 18.33
80.00 18.77
81.00 19.21
82.00 19.65
83.00 20.09
84.00 20.52
85.00 20.95
86.00 21.38
87.00 21.80
88.00 22.21
89.00 22.61
90.00 22.99
91.00 23.36
92.00 23.71
93.00 24.04
94.00 24.35
95.00 24.64
96.00 24.90
97.00 25.15
98.00 25.36
99.00 25.56
100.00 25.74
101.00 25.90
102.00 26.04
103.00 26.16
104.00 26.28
105.00 26.38
106.00 26.47
107.00 26.56
108.00 26.64
109.00 26.72
110.00 26.80
111.00 26.89
112.00 26.97
113.00 27.06
114.00 27.15
115.00 27.25
116.00 27.36
117.00 27.47
118.00 27.58
119.00 27.71
120.00 27.85
121.00 27.99
122.00 28.14
123.00 28.30
124.00 28.46
125.00 28.64
126.00 28.82
127.00 29.02
128.00 29.22
129.00 29.42
130.00 29.64
131.00 29.86
132.00 30.09
133.00 30.32
134.00 30.56
135.00 30.81
136.00 31.06
137.00 31.31
138.00 31.56
139.00 31.82
140.00 32.08
141.00 32.34
142.00 32.60
143.00 32.86
144.00 33.11
145.00 33.37
146.00 33.62
147.00 33.86
148.00 34.10
149.00 34.33
150.00 34.56
151.00 34.77
152.00 34.98
153.00 35.18
154.00 35.37
155.00 35.55
156.00 35.72
157.00 35.88
158.00 36.03
159.00 36.17
160.00 36.30
161.00 36.43
162.00 36.55
163.00 36.65
164.00 36.76
165.00 36.86
166.00 36.95
167.00 37.04
168.00 37.13
169.00 37.22
170.00 37.31
171.00 37.40
172.00 37.48
173.00 37.57
174.00 37.67
175.00 37.77
176.00 37.87
177.00 37.98
178.00 38.10
179.00 38.23
180.00 38.36
181.00 38.51
182.00 38.66
183.00 38.83
184.00 39.00
185.00 39.19
186.00 39.40
187.00 39.61
188.00 39.84
189.00 40.09
190.00 40.35
191.00 40.63
192.00 40.93
193.00 41.25
194.00 41.57
195.00 41.90
196.00 42.27
197.00 42.63
198.00 42.99
199.00 43.35
200.00 43.70
201.00 44.02
202.00 44.30
203.00 44.53
204.00 44.69
205.00 44.78
206.00 44.75
207.00 44.66
208.00 44.44
209.00 44.16
210.00 43.80
211.00 43.40
212.00 42.96
213.00 42.50
214.00 42.03
215.00 41.55
216.00 41.07
217.00 40.60
218.00 40.16
219.00 39.71
220.00 39.30
221.00 38.88
222.00 38.49
223.00 38.11
224.00 37.74
225.00 37.39
226.00 37.05
227.00 36.71
228.00 36.39
229.00 36.07
230.00 35.75
231.00 35.44
232.00 35.12
233.00 34.80
234.00 34.48
235.00 34.15
236.00 33.82
237.00 33.47
238.00 33.11
239.00 32.74
240.00 32.36
241.00 31.97
242.00 31.56
243.00 31.15
244.00 30.72
245.00 30.28
246.00 29.84
247.00 29.39
248.00 28.94
249.00 28.47
250.00 28.01
251.00 27.55
252.00 27.08
253.00 26.62
254.00 26.16
255.00 25.71
256.00 25.25
257.00 24.80
258.00 24.36
259.00 23.92
260.00 23.49
261.00 23.06
262.00 22.64
263.00 22.23
264.00 21.82
265.00 21.42
266.00 21.03
267.00 20.64
268.00 20.26
269.00 19.88
270.00 19.51
271.00 19.14
272.00 18.78
273.00 18.43
274.00 18.08
275.00 17.73
276.00 17.39
277.00 17.05
278.00 16.71
279.00 16.38
280.00 16.05
281.00 15.72
282.00 15.40
283.00 15.08
284.00 14.75
285.00 14.43
286.00 14.12
287.00 13.80
288.00 13.48
289.00 13.17
290.00 12.86
291.00 12.54
292.00 12.23
293.00 11.92
294.00 11.61
295.00 11.31
296.00 11.00
297.00 10.69
298.00 10.39
299.00 10.09
300.00 9.79
301.00 9.49
302.00 9.19
303.00 8.90
304.00 8.61
305.00 8.32
306.00 8.04
307.00 7.76
308.00 7.48
309.00 7.20
310.00 6.93
311.00 6.66
312.00 6.40
313.00 6.14
314.00 5.88
315.00 5.63
316.00 5.38
317.00 5.14
318.00 4.90
319.00 4.67
320.00 4.45
321.00 4.22
322.00 4.01
323.00 3.80
324.00 3.59
325.00 3.39
326.00 3.19
327.00 3.00
328.00 2.82
329.00 2.64
330.00 2.47
331.00 2.30
332.00 2.14
333.00 1.98
334.00 1.83
335.00 1.69
336.00 1.55
337.00 1.42
338.00 1.29
339.00 1.17
340.00 1.06
341.00 0.95
342.00 0.84
343.00 0.75
344.00 0.65
345.00 0.57
346.00 0.49
347.00 0.42
348.00 0.35
349.00 0.29
350.00 0.23
351.00 0.18
352.00 0.14
353.00 0.10
354.00 0.07
355.00 0.04
356.00 0.02
357.00 0.01
358.00 0.00
359.00 0.00
VERTICAL 360
0.00 0.74
1.00 0.20
2.00 0.00
3.00 0.14
4.00 0.62
5.00 1.46
6.00 2.69
7.00 4.36
8.00 6.56
9.00 9.48
10.00 13.47
11.00 19.53
12.00 32.73
13.00 28.93
14.00 23.72
15.00 23.07
16.00 24.98
17.00 29.26
18.00 29.20
19.00 23.95
20.00 20.53
21.00 18.58
22.00 17.65
23.00 17.54
24.00 18.21
25.00 19.71
26.00 22.27
27.00 26.41
28.00 34.10
29.00 47.87
30.00 33.47
31.00 30.16
32.00 29.57
33.00 31.18
34.00 36.23
35.00 35.65
36.00 27.29
37.00 22.40
38.00 19.26
39.00 17.21
40.00 15.91
41.00 15.17
42.00 14.86
43.00 14.84
44.00 15.03
45.00 15.40
46.00 15.98
47.00 16.82
48.00 17.98
49.00 19.51
50.00 21.37
51.00 23.50
52.00 25.86
53.00 28.53
54.00 31.95
55.00 36.84
56.00 39.94
57.00 36.10
58.00 33.57
59.00 33.06
60.00 34.05
61.00 35.81
62.00 36.65
63.00 35.13
64.00 32.81
65.00 31.24
66.00 31.07
67.00 32.71
68.00 36.67
69.00 39.77
70.00 36.07
71.00 33.44
72.00 32.38
73.00 32.15
74.00 32.65
75.00 34.08
76.00 35.19
77.00 32.99
78.00 29.89
79.00 27.86
80.00 26.94
81.00 27.04
82.00 28.13
83.00 29.90
84.00 30.69
85.00 29.37
86.00 27.93
87.00 27.45
88.00 27.75
89.00 28.25
90.00 28.67
91.00 29.35
92.00 30.65
93.00 32.36
94.00 33.58
95.00 33.74
96.00 33.14
97.00 32.10
98.00 31.11
99.00 30.75
100.00 31.26
101.00 32.71
102.00 34.95
103.00 37.69
104.00 40.59
105.00 43.56
106.00 47.01
107.00 50.52
108.00 50.83
109.00 50.45
110.00 53.53
111.00 57.22
112.00 48.97
113.00 44.65
114.00 42.62
115.00 41.75
116.00 41.66
117.00 42.47
118.00 43.62
119.00 42.42
120.00 39.33
121.00 36.86
122.00 35.40
123.00 34.64
124.00 34.22
125.00 33.71
126.00 32.92
127.00 31.98
128.00 31.24
129.00 30.96
130.00 31.24
131.00 32.08
132.00 33.37
133.00 34.85
134.00 36.03
135.00 36.36
136.00 35.88
137.00 35.06
138.00 34.32
139.00 33.84
140.00 33.78
141.00 34.28
142.00 35.49
143.00 37.59
144.00 40.30
145.00 41.41
146.00 39.59
147.00 37.64
148.00 36.62
149.00 36.39
150.00 36.64
151.00 37.01
152.00 37.20
153.00 37.11
154.00 36.77
155.00 36.30
156.00 35.86
157.00 35.65
158.00 35.93
159.00 36.95
160.00 39.00
161.00 42.66
162.00 48.43
163.00 48.03
164.00 43.12
165.00 40.34
166.00 39.04
167.00 38.91
168.00 40.09
169.00 43.43
170.00 53.99
171.00 48.54
172.00 40.60
173.00 37.21
174.00 35.68
175.00 35.37
176.00 35.91
177.00 37.00
178.00 38.23
179.00 38.87
180.00 39.62
181.00 40.69
182.00 42.14
183.00 43.50
184.00 43.95
185.00 43.42
186.00 41.84
187.00 39.94
188.00 38.15
189.00 36.64
190.00 35.39
191.00 34.40
192.00 33.61
193.00 32.93
194.00 32.33
195.00 31.81
196.00 31.50
197.00 31.53
198.00 32.01
199.00 32.99
200.00 34.45
201.00 36.27
202.00 38.04
203.00 39.13
204.00 39.07
205.00 38.20
206.00 37.37
207.00 37.26
208.00 38.33
209.00 41.11
210.00 46.14
211.00 47.85
212.00 43.48
213.00 40.83
214.00 39.38
215.00 38.25
216.00 36.94
217.00 35.50
218.00 34.27
219.00 33.47
220.00 33.06
221.00 32.74
222.00 32.22
223.00 31.52
224.00 30.84
225.00 30.29
226.00 29.84
227.00 29.50
228.00 29.32
229.00 29.34
230.00 29.55
231.00 29.84
232.00 30.04
233.00 29.98
234.00 29.66
235.00 29.23
236.00 28.86
237.00 28.63
238.00 28.56
239.00 28.64
240.00 28.91
241.00 29.45
242.00 30.33
243.00 31.53
244.00 32.88
245.00 33.98
246.00 34.42
247.00 34.03
248.00 33.10
249.00 32.14
250.00 31.54
251.00 31.56
252.00 32.38
253.00 34.07
254.00 36.35
255.00 37.73
256.00 36.80
257.00 34.91
258.00 33.31
259.00 32.44
260.00 32.68
261.00 34.49
262.00 38.63
263.00 43.90
264.00 40.01
265.00 36.48
266.00 34.73
267.00 33.87
268.00 33.90
269.00 35.10
270.00 36.66
271.00 35.32
272.00 32.46
273.00 30.70
274.00 30.25
275.00 30.84
276.00 32.20
277.00 33.93
278.00 35.03
279.00 34.26
280.00 32.62
281.00 31.52
282.00 31.32
283.00 31.98
284.00 33.30
285.00 34.92
286.00 36.23
287.00 37.00
288.00 38.02
289.00 40.54
290.00 46.52
291.00 48.49
292.00 40.81
293.00 36.96
294.00 34.82
295.00 33.55
296.00 32.87
297.00 32.71
298.00 33.12
299.00 34.21
300.00 35.67
301.00 35.72
302.00 33.24
303.00 30.22
304.00 27.61
305.00 25.40
306.00 23.40
307.00 21.54
308.00 19.85
309.00 18.40
310.00 17.25
311.00 16.45
312.00 15.96
313.00 15.75
314.00 15.75
315.00 15.91
316.00 16.19
317.00 16.59
318.00 17.15
319.00 17.94
320.00 19.03
321.00 20.52
322.00 22.48
323.00 25.03
324.00 28.26
325.00 32.07
326.00 35.56
327.00 37.27
328.00 37.87
329.00 38.87
330.00 40.86
331.00 41.90
332.00 37.83
333.00 33.22
334.00 29.79
335.00 27.24
336.00 25.27
337.00 23.71
338.00 22.52
339.00 21.72
340.00 21.42
341.00 21.77
342.00 22.99
343.00 25.51
344.00 30.67
345.00 52.34
346.00 32.32
347.00 26.60
348.00 24.23
349.00 23.80
350.00 25.54
351.00 30.83
352.00 26.52
353.00 18.47
354.00 13.31
355.00 9.61
356.00 6.78
357.00 4.59
358.00 2.90
359.00 1.63
