NAME ATR4518R7_0880_X_CO_M45_07T
FREQUENCY 0880
GAIN 14.93 dBd
TILT	ELECTRICAL
COMMENT DATE 05.08.2013 -45 degrees polarized system Lever position 07T deg
HORIZONTAL 360
0.00 0.01
1.00 0.00
2.00 0.01
3.00 0.01
4.00 0.03
5.00 0.05
6.00 0.08
7.00 0.12
8.00 0.16
9.00 0.21
10.00 0.26
11.00 0.32
12.00 0.39
13.00 0.47
14.00 0.55
15.00 0.64
16.00 0.74
17.00 0.84
18.00 0.95
19.00 1.07
20.00 1.19
21.00 1.32
22.00 1.46
23.00 1.60
24.00 1.75
25.00 1.91
26.00 2.08
27.00 2.25
28.00 2.43
29.00 2.62
30.00 2.81
31.00 3.01
32.00 3.22
33.00 3.43
34.00 3.65
35.00 3.88
36.00 4.11
37.00 4.35
38.00 4.60
39.00 4.85
40.00 5.12
41.00 5.38
42.00 5.66
43.00 5.94
44.00 6.23
45.00 6.52
46.00 6.83
47.00 7.13
48.00 7.45
49.00 7.77
50.00 8.10
51.00 8.44
52.00 8.78
53.00 9.12
54.00 9.48
55.00 9.84
56.00 10.21
57.00 10.58
58.00 10.96
59.00 11.34
60.00 11.73
61.00 12.13
62.00 12.54
63.00 12.95
64.00 13.37
65.00 13.79
66.00 14.22
67.00 14.65
68.00 15.09
69.00 15.54
70.00 15.99
71.00 16.45
72.00 16.92
73.00 17.39
74.00 17.86
75.00 18.34
76.00 18.83
77.00 19.31
78.00 19.81
79.00 20.30
80.00 20.80
81.00 21.31
82.00 21.81
83.00 22.31
84.00 22.81
85.00 23.32
86.00 23.81
87.00 24.31
88.00 24.80
89.00 25.28
90.00 25.75
91.00 26.22
92.00 26.67
93.00 27.11
94.00 27.54
95.00 27.95
96.00 28.34
97.00 28.72
98.00 29.08
99.00 29.43
100.00 29.76
101.00 30.08
102.00 30.38
103.00 30.67
104.00 30.95
105.00 31.22
106.00 31.47
107.00 31.73
108.00 31.97
109.00 32.22
110.00 32.46
111.00 32.69
112.00 32.93
113.00 33.16
114.00 33.40
115.00 33.64
116.00 33.87
117.00 34.11
118.00 34.35
119.00 34.59
120.00 34.83
121.00 35.07
122.00 35.31
123.00 35.56
124.00 35.80
125.00 36.05
126.00 36.30
127.00 36.54
128.00 36.79
129.00 37.04
130.00 37.28
131.00 37.53
132.00 37.78
133.00 38.03
134.00 38.28
135.00 38.54
136.00 38.80
137.00 39.07
138.00 39.34
139.00 39.62
140.00 39.92
141.00 40.21
142.00 40.53
143.00 40.85
144.00 41.20
145.00 41.57
146.00 41.96
147.00 42.37
148.00 42.81
149.00 43.29
150.00 43.80
151.00 44.36
152.00 44.96
153.00 45.63
154.00 46.36
155.00 47.16
156.00 48.06
157.00 49.07
158.00 50.22
159.00 51.53
160.00 53.11
161.00 55.02
162.00 57.43
163.00 60.49
164.00 64.07
165.00 65.75
166.00 62.73
167.00 59.27
168.00 56.66
169.00 54.59
170.00 52.97
171.00 51.60
172.00 50.46
173.00 49.53
174.00 48.66
175.00 47.95
176.00 47.31
177.00 46.75
178.00 46.25
179.00 45.85
180.00 45.48
181.00 45.16
182.00 44.89
183.00 44.66
184.00 44.48
185.00 44.33
186.00 44.21
187.00 44.14
188.00 44.11
189.00 44.09
190.00 44.11
191.00 44.17
192.00 44.28
193.00 44.39
194.00 44.56
195.00 44.76
196.00 44.98
197.00 45.25
198.00 45.57
199.00 45.91
200.00 46.32
201.00 46.78
202.00 47.30
203.00 47.91
204.00 48.59
205.00 49.37
206.00 50.30
207.00 51.38
208.00 52.65
209.00 54.20
210.00 56.15
211.00 58.64
212.00 61.75
213.00 64.29
214.00 62.75
215.00 59.20
216.00 56.20
217.00 53.74
218.00 51.77
219.00 50.12
220.00 48.68
221.00 47.43
222.00 46.32
223.00 45.35
224.00 44.43
225.00 43.62
226.00 42.87
227.00 42.19
228.00 41.56
229.00 40.97
230.00 40.44
231.00 39.95
232.00 39.48
233.00 39.06
234.00 38.67
235.00 38.31
236.00 37.96
237.00 37.65
238.00 37.35
239.00 37.06
240.00 36.79
241.00 36.52
242.00 36.26
243.00 35.99
244.00 35.71
245.00 35.43
246.00 35.12
247.00 34.79
248.00 34.43
249.00 34.04
250.00 33.61
251.00 33.15
252.00 32.66
253.00 32.14
254.00 31.59
255.00 31.02
256.00 30.43
257.00 29.83
258.00 29.22
259.00 28.60
260.00 27.98
261.00 27.36
262.00 26.75
263.00 26.14
264.00 25.53
265.00 24.94
266.00 24.36
267.00 23.78
268.00 23.22
269.00 22.67
270.00 22.13
271.00 21.60
272.00 21.09
273.00 20.58
274.00 20.09
275.00 19.61
276.00 19.14
277.00 18.67
278.00 18.22
279.00 17.78
280.00 17.35
281.00 16.93
282.00 16.51
283.00 16.11
284.00 15.71
285.00 15.32
286.00 14.94
287.00 14.56
288.00 14.19
289.00 13.83
290.00 13.48
291.00 13.13
292.00 12.79
293.00 12.45
294.00 12.12
295.00 11.79
296.00 11.47
297.00 11.15
298.00 10.84
299.00 10.53
300.00 10.23
301.00 9.93
302.00 9.63
303.00 9.34
304.00 9.05
305.00 8.77
306.00 8.49
307.00 8.22
308.00 7.94
309.00 7.68
310.00 7.41
311.00 7.15
312.00 6.89
313.00 6.64
314.00 6.39
315.00 6.14
316.00 5.90
317.00 5.66
318.00 5.43
319.00 5.20
320.00 4.97
321.00 4.75
322.00 4.53
323.00 4.32
324.00 4.11
325.00 3.90
326.00 3.70
327.00 3.51
328.00 3.31
329.00 3.13
330.00 2.94
331.00 2.77
332.00 2.59
333.00 2.43
334.00 2.26
335.00 2.11
336.00 1.95
337.00 1.81
338.00 1.66
339.00 1.53
340.00 1.40
341.00 1.27
342.00 1.15
343.00 1.04
344.00 0.93
345.00 0.82
346.00 0.73
347.00 0.64
348.00 0.55
349.00 0.47
350.00 0.40
351.00 0.33
352.00 0.27
353.00 0.22
354.00 0.17
355.00 0.12
356.00 0.09
357.00 0.06
358.00 0.04
359.00 0.02
VERTICAL 360
0.00 9.83
1.00 6.83
2.00 4.52
3.00 2.77
4.00 1.48
5.00 0.62
6.00 0.13
7.00 0.00
8.00 0.22
9.00 0.79
10.00 1.74
11.00 3.11
12.00 4.99
13.00 7.49
14.00 10.86
15.00 15.61
16.00 23.44
17.00 35.93
18.00 24.57
19.00 21.53
20.00 21.11
21.00 22.48
22.00 25.95
23.00 32.46
24.00 30.22
25.00 24.73
26.00 21.99
27.00 20.84
28.00 20.75
29.00 21.53
30.00 23.07
31.00 25.35
32.00 28.08
33.00 29.63
34.00 28.62
35.00 27.11
36.00 26.48
37.00 26.96
38.00 28.38
39.00 29.59
40.00 28.59
41.00 26.29
42.00 24.25
43.00 22.70
44.00 21.50
45.00 20.60
46.00 20.07
47.00 20.01
48.00 20.54
49.00 21.71
50.00 23.54
51.00 26.05
52.00 29.23
53.00 33.23
54.00 38.45
55.00 39.23
56.00 33.86
57.00 30.15
58.00 28.03
59.00 27.09
60.00 27.11
61.00 27.92
62.00 29.13
63.00 30.05
64.00 30.09
65.00 29.68
66.00 29.51
67.00 29.90
68.00 30.73
69.00 31.38
70.00 31.13
71.00 30.41
72.00 30.11
73.00 30.72
74.00 32.22
75.00 33.70
76.00 33.03
77.00 30.64
78.00 28.47
79.00 27.17
80.00 26.84
81.00 27.42
82.00 28.32
83.00 28.36
84.00 27.76
85.00 26.78
86.00 25.88
87.00 25.56
88.00 25.97
89.00 26.49
90.00 26.75
91.00 26.81
92.00 26.66
93.00 26.25
94.00 25.89
95.00 26.08
96.00 26.92
97.00 28.30
98.00 29.93
99.00 31.25
100.00 31.71
101.00 31.33
102.00 30.78
103.00 30.64
104.00 31.15
105.00 32.37
106.00 34.26
107.00 36.49
108.00 37.72
109.00 36.80
110.00 35.14
111.00 33.93
112.00 33.33
113.00 33.27
114.00 33.69
115.00 34.53
116.00 35.42
117.00 35.80
118.00 35.61
119.00 35.42
120.00 35.66
121.00 36.45
122.00 37.65
123.00 38.86
124.00 39.35
125.00 38.99
126.00 38.52
127.00 38.47
128.00 38.82
129.00 39.23
130.00 39.40
131.00 39.49
132.00 39.84
133.00 40.47
134.00 40.86
135.00 40.47
136.00 39.54
137.00 38.53
138.00 37.52
139.00 36.49
140.00 35.48
141.00 34.68
142.00 34.32
143.00 34.50
144.00 35.10
145.00 35.64
146.00 35.52
147.00 34.79
148.00 33.99
149.00 33.45
150.00 33.24
151.00 33.22
152.00 33.22
153.00 33.15
154.00 33.11
155.00 33.27
156.00 33.76
157.00 34.66
158.00 35.94
159.00 37.13
160.00 37.10
161.00 35.76
162.00 34.30
163.00 33.43
164.00 33.38
165.00 34.22
166.00 35.99
167.00 38.70
168.00 42.47
169.00 48.41
170.00 61.97
171.00 49.96
172.00 45.94
173.00 45.16
174.00 45.43
175.00 46.78
176.00 47.01
177.00 44.63
178.00 41.81
179.00 39.74
180.00 38.51
181.00 38.17
182.00 38.59
183.00 39.16
184.00 38.92
185.00 37.30
186.00 35.23
187.00 33.60
188.00 32.60
189.00 32.08
190.00 31.77
191.00 31.46
192.00 31.07
193.00 30.71
194.00 30.51
195.00 30.58
196.00 30.99
197.00 31.77
198.00 33.00
199.00 34.68
200.00 36.57
201.00 37.74
202.00 37.35
203.00 36.13
204.00 34.96
205.00 34.13
206.00 33.66
207.00 33.62
208.00 34.06
209.00 35.07
210.00 36.68
211.00 38.83
212.00 41.44
213.00 44.79
214.00 50.40
215.00 67.57
216.00 49.62
217.00 43.92
218.00 40.91
219.00 39.05
220.00 37.68
221.00 36.56
222.00 35.72
223.00 35.24
224.00 35.09
225.00 35.14
226.00 35.34
227.00 35.75
228.00 36.41
229.00 37.23
230.00 38.12
231.00 39.04
232.00 40.04
233.00 41.37
234.00 43.59
235.00 46.71
236.00 47.03
237.00 44.57
238.00 43.34
239.00 43.29
240.00 43.29
241.00 43.02
242.00 43.27
243.00 44.13
244.00 44.76
245.00 44.87
246.00 45.02
247.00 44.64
248.00 43.35
249.00 42.36
250.00 42.28
251.00 42.65
252.00 42.21
253.00 40.35
254.00 38.03
255.00 36.23
256.00 35.37
257.00 35.50
258.00 36.40
259.00 37.39
260.00 37.50
261.00 36.46
262.00 35.09
263.00 34.20
264.00 34.20
265.00 35.19
266.00 37.08
267.00 39.46
268.00 41.47
269.00 41.71
270.00 40.50
271.00 39.79
272.00 40.55
273.00 43.09
274.00 47.27
275.00 51.43
276.00 48.98
277.00 43.57
278.00 40.15
279.00 38.81
280.00 39.25
281.00 40.89
282.00 42.14
283.00 42.11
284.00 42.20
285.00 42.84
286.00 42.75
287.00 41.13
288.00 38.90
289.00 36.87
290.00 35.38
291.00 34.58
292.00 34.48
293.00 35.01
294.00 36.01
295.00 37.46
296.00 39.55
297.00 42.83
298.00 48.09
299.00 51.30
300.00 46.29
301.00 41.81
302.00 38.09
303.00 35.09
304.00 32.83
305.00 31.22
306.00 30.25
307.00 30.03
308.00 30.75
309.00 32.65
310.00 35.75
311.00 37.62
312.00 34.88
313.00 31.40
314.00 28.46
315.00 25.89
316.00 23.62
317.00 21.73
318.00 20.32
319.00 19.44
320.00 19.10
321.00 19.29
322.00 19.97
323.00 21.13
324.00 22.77
325.00 25.00
326.00 28.20
327.00 33.44
328.00 40.77
329.00 33.76
330.00 29.07
331.00 26.79
332.00 25.93
333.00 26.18
334.00 27.51
335.00 30.21
336.00 35.44
337.00 53.44
338.00 38.78
339.00 33.16
340.00 31.15
341.00 30.91
342.00 31.15
343.00 29.57
344.00 26.41
345.00 23.66
346.00 21.86
347.00 21.05
348.00 21.23
349.00 22.51
350.00 24.97
351.00 27.81
352.00 27.58
353.00 25.31
354.00 24.15
355.00 24.83
356.00 27.79
357.00 26.48
358.00 19.17
359.00 13.77
