NAME ATR4518R7_2655_X_CO_M45_04T_yyR
FREQUENCY 2655
GAIN 16.14 dBd
TILT	ELECTRICAL
COMMENT DATE 05.08.2013 -45 degrees polarized system Lever position 04T deg
HORIZONTAL 360
0.00 0.02
1.00 0.00
2.00 0.00
3.00 0.01
4.00 0.03
5.00 0.07
6.00 0.11
7.00 0.17
8.00 0.24
9.00 0.33
10.00 0.43
11.00 0.54
12.00 0.67
13.00 0.81
14.00 0.95
15.00 1.11
16.00 1.27
17.00 1.45
18.00 1.62
19.00 1.81
20.00 2.00
21.00 2.18
22.00 2.37
23.00 2.55
24.00 2.73
25.00 2.90
26.00 3.07
27.00 3.24
28.00 3.41
29.00 3.57
30.00 3.73
31.00 3.88
32.00 4.05
33.00 4.22
34.00 4.39
35.00 4.57
36.00 4.76
37.00 4.96
38.00 5.18
39.00 5.40
40.00 5.65
41.00 5.93
42.00 6.25
43.00 6.60
44.00 6.96
45.00 7.35
46.00 7.74
47.00 8.17
48.00 8.63
49.00 9.10
50.00 9.59
51.00 10.11
52.00 10.65
53.00 11.21
54.00 11.78
55.00 12.38
56.00 13.00
57.00 13.65
58.00 14.31
59.00 15.00
60.00 15.73
61.00 16.48
62.00 17.27
63.00 18.09
64.00 18.96
65.00 19.88
66.00 20.86
67.00 21.88
68.00 22.97
69.00 24.13
70.00 25.35
71.00 26.63
72.00 27.99
73.00 29.41
74.00 30.87
75.00 32.38
76.00 33.87
77.00 35.32
78.00 36.67
79.00 37.83
80.00 38.68
81.00 39.10
82.00 39.01
83.00 38.41
84.00 37.44
85.00 36.27
86.00 35.05
87.00 33.85
88.00 32.74
89.00 31.73
90.00 30.83
91.00 30.06
92.00 29.39
93.00 28.84
94.00 28.40
95.00 28.07
96.00 27.84
97.00 27.71
98.00 27.67
99.00 27.73
100.00 27.87
101.00 28.08
102.00 28.37
103.00 28.70
104.00 29.07
105.00 29.44
106.00 29.78
107.00 30.07
108.00 30.28
109.00 30.39
110.00 30.42
111.00 30.38
112.00 30.32
113.00 30.26
114.00 30.24
115.00 30.29
116.00 30.44
117.00 30.70
118.00 31.11
119.00 31.68
120.00 32.44
121.00 33.43
122.00 34.70
123.00 36.34
124.00 38.47
125.00 41.26
126.00 44.82
127.00 47.48
128.00 45.60
129.00 42.39
130.00 39.91
131.00 38.15
132.00 36.92
133.00 36.10
134.00 35.62
135.00 35.44
136.00 35.54
137.00 35.91
138.00 36.56
139.00 37.50
140.00 38.73
141.00 40.17
142.00 41.59
143.00 42.37
144.00 41.95
145.00 40.64
146.00 39.11
147.00 37.74
148.00 36.63
149.00 35.80
150.00 35.23
151.00 34.90
152.00 34.80
153.00 34.92
154.00 35.23
155.00 35.70
156.00 36.28
157.00 36.84
158.00 37.17
159.00 37.07
160.00 36.46
161.00 35.47
162.00 34.33
163.00 33.20
164.00 32.16
165.00 31.25
166.00 30.49
167.00 29.88
168.00 29.41
169.00 29.07
170.00 28.87
171.00 28.80
172.00 28.84
173.00 29.01
174.00 29.31
175.00 29.73
176.00 30.27
177.00 30.96
178.00 31.78
179.00 32.76
180.00 33.92
181.00 35.26
182.00 36.84
183.00 38.70
184.00 40.91
185.00 43.64
186.00 47.12
187.00 51.81
188.00 56.63
189.00 54.09
190.00 49.95
191.00 47.04
192.00 44.90
193.00 43.20
194.00 41.78
195.00 40.55
196.00 39.48
197.00 38.55
198.00 37.75
199.00 37.07
200.00 36.53
201.00 36.10
202.00 35.79
203.00 35.60
204.00 35.51
205.00 35.51
206.00 35.59
207.00 35.71
208.00 35.86
209.00 35.98
210.00 36.05
211.00 36.03
212.00 35.91
213.00 35.69
214.00 35.41
215.00 35.10
216.00 34.79
217.00 34.50
218.00 34.25
219.00 34.05
220.00 33.90
221.00 33.77
222.00 33.67
223.00 33.55
224.00 33.40
225.00 33.21
226.00 32.96
227.00 32.66
228.00 32.33
229.00 31.99
230.00 31.65
231.00 31.35
232.00 31.11
233.00 30.94
234.00 30.84
235.00 30.84
236.00 30.94
237.00 31.13
238.00 31.43
239.00 31.82
240.00 32.29
241.00 32.84
242.00 33.42
243.00 33.99
244.00 34.49
245.00 34.84
246.00 35.01
247.00 34.98
248.00 34.78
249.00 34.48
250.00 34.15
251.00 33.85
252.00 33.60
253.00 33.45
254.00 33.39
255.00 33.45
256.00 33.63
257.00 33.93
258.00 34.38
259.00 34.97
260.00 35.72
261.00 36.65
262.00 37.80
263.00 39.23
264.00 41.01
265.00 43.26
266.00 46.12
267.00 49.26
268.00 49.95
269.00 47.07
270.00 43.87
271.00 41.26
272.00 39.14
273.00 37.36
274.00 35.84
275.00 34.50
276.00 33.29
277.00 32.19
278.00 31.17
279.00 30.22
280.00 29.32
281.00 28.48
282.00 27.68
283.00 26.92
284.00 26.19
285.00 25.50
286.00 24.84
287.00 24.20
288.00 23.59
289.00 22.99
290.00 22.41
291.00 21.84
292.00 21.28
293.00 20.73
294.00 20.18
295.00 19.63
296.00 19.08
297.00 18.53
298.00 17.98
299.00 17.44
300.00 16.89
301.00 16.35
302.00 15.79
303.00 15.25
304.00 14.70
305.00 14.16
306.00 13.61
307.00 13.08
308.00 12.55
309.00 12.02
310.00 11.50
311.00 10.99
312.00 10.48
313.00 9.98
314.00 9.51
315.00 9.06
316.00 8.63
317.00 8.20
318.00 7.79
319.00 7.37
320.00 6.98
321.00 6.59
322.00 6.22
323.00 5.85
324.00 5.50
325.00 5.17
326.00 4.85
327.00 4.54
328.00 4.24
329.00 3.95
330.00 3.68
331.00 3.43
332.00 3.18
333.00 2.96
334.00 2.74
335.00 2.53
336.00 2.33
337.00 2.16
338.00 1.99
339.00 1.83
340.00 1.68
341.00 1.54
342.00 1.41
343.00 1.28
344.00 1.17
345.00 1.05
346.00 0.95
347.00 0.85
348.00 0.76
349.00 0.67
350.00 0.58
351.00 0.49
352.00 0.42
353.00 0.35
354.00 0.29
355.00 0.22
356.00 0.16
357.00 0.12
358.00 0.08
359.00 0.04
VERTICAL 360
0.00 12.89
1.00 6.78
2.00 2.96
3.00 0.78
4.00 0.00
5.00 0.58
6.00 2.69
7.00 6.95
8.00 16.28
9.00 24.70
10.00 14.62
11.00 14.34
12.00 19.39
13.00 24.94
14.00 16.81
15.00 14.39
16.00 16.00
17.00 24.27
18.00 28.51
19.00 17.72
20.00 15.92
21.00 18.06
22.00 27.53
23.00 28.17
24.00 18.57
25.00 15.85
26.00 15.51
27.00 16.83
28.00 19.62
29.00 23.34
30.00 25.58
31.00 23.75
32.00 20.09
33.00 17.43
34.00 16.57
35.00 17.77
36.00 21.84
37.00 34.21
38.00 29.97
39.00 23.82
40.00 23.42
41.00 26.64
42.00 35.57
43.00 35.22
44.00 27.95
45.00 24.89
46.00 23.36
47.00 22.89
48.00 23.54
49.00 25.44
50.00 28.79
51.00 34.15
52.00 41.91
53.00 42.35
54.00 40.56
55.00 46.58
56.00 43.51
57.00 32.49
58.00 28.51
59.00 27.69
60.00 28.79
61.00 29.51
62.00 27.85
63.00 25.41
64.00 23.18
65.00 21.27
66.00 19.85
67.00 19.09
68.00 18.98
69.00 19.27
70.00 19.59
71.00 19.77
72.00 19.96
73.00 20.44
74.00 21.26
75.00 22.15
76.00 22.95
77.00 23.97
78.00 25.41
79.00 27.07
80.00 28.68
81.00 30.70
82.00 36.67
83.00 40.78
84.00 29.48
85.00 26.10
86.00 25.48
87.00 25.97
88.00 27.62
89.00 32.99
90.00 46.17
91.00 33.11
92.00 30.51
93.00 30.86
94.00 31.46
95.00 32.96
96.00 37.35
97.00 41.74
98.00 38.37
99.00 35.62
100.00 34.22
101.00 33.92
102.00 34.92
103.00 36.57
104.00 36.63
105.00 35.04
106.00 34.05
107.00 34.35
108.00 35.92
109.00 38.46
110.00 41.27
111.00 43.31
112.00 42.71
113.00 39.73
114.00 37.43
115.00 36.54
116.00 36.62
117.00 37.00
118.00 37.37
119.00 37.89
120.00 38.77
121.00 39.70
122.00 39.47
123.00 38.24
124.00 37.88
125.00 39.48
126.00 43.06
127.00 46.81
128.00 46.89
129.00 44.44
130.00 42.38
131.00 40.56
132.00 39.56
133.00 40.42
134.00 42.31
135.00 41.68
136.00 38.01
137.00 35.09
138.00 34.68
139.00 36.71
140.00 38.94
141.00 41.00
142.00 47.81
143.00 47.47
144.00 46.90
145.00 49.75
146.00 40.82
147.00 39.14
148.00 39.91
149.00 38.75
150.00 39.73
151.00 49.09
152.00 46.66
153.00 40.86
154.00 40.52
155.00 40.41
156.00 39.18
157.00 37.37
158.00 34.94
159.00 33.27
160.00 33.74
161.00 37.33
162.00 46.68
163.00 56.40
164.00 42.08
165.00 38.26
166.00 39.62
167.00 53.47
168.00 44.10
169.00 39.62
170.00 41.50
171.00 47.90
172.00 51.33
173.00 41.52
174.00 37.26
175.00 36.54
176.00 36.84
177.00 35.30
178.00 33.61
179.00 33.46
180.00 34.66
181.00 36.87
182.00 39.78
183.00 41.20
184.00 38.95
185.00 36.51
186.00 35.39
187.00 35.51
188.00 36.12
189.00 36.83
190.00 38.61
191.00 40.10
192.00 38.87
193.00 38.64
194.00 40.40
195.00 42.51
196.00 40.91
197.00 36.40
198.00 34.26
199.00 34.53
200.00 34.70
201.00 33.63
202.00 33.90
203.00 36.70
204.00 41.48
205.00 44.42
206.00 43.18
207.00 41.02
208.00 41.90
209.00 49.36
210.00 50.04
211.00 44.85
212.00 41.95
213.00 38.02
214.00 36.94
215.00 39.25
216.00 43.44
217.00 43.71
218.00 39.43
219.00 36.04
220.00 34.55
221.00 34.01
222.00 34.57
223.00 37.68
224.00 43.52
225.00 47.90
226.00 49.12
227.00 39.80
228.00 37.23
229.00 39.30
230.00 37.59
231.00 33.27
232.00 32.16
233.00 33.74
234.00 37.40
235.00 42.19
236.00 44.51
237.00 40.73
238.00 37.24
239.00 36.42
240.00 37.99
241.00 40.61
242.00 41.23
243.00 39.05
244.00 37.10
245.00 36.83
246.00 37.78
247.00 39.07
248.00 40.75
249.00 42.47
250.00 41.17
251.00 37.00
252.00 34.32
253.00 34.31
254.00 36.74
255.00 39.01
256.00 38.83
257.00 39.36
258.00 40.84
259.00 41.54
260.00 40.81
261.00 38.90
262.00 36.83
263.00 35.65
264.00 36.00
265.00 38.42
266.00 45.96
267.00 50.42
268.00 38.50
269.00 36.37
270.00 39.89
271.00 51.41
272.00 39.81
273.00 36.06
274.00 35.32
275.00 35.20
276.00 36.35
277.00 40.59
278.00 50.63
279.00 56.78
280.00 47.41
281.00 40.49
282.00 38.04
283.00 38.17
284.00 37.42
285.00 34.87
286.00 32.56
287.00 30.97
288.00 30.21
289.00 30.12
290.00 30.12
291.00 30.08
292.00 30.25
293.00 30.81
294.00 32.08
295.00 34.26
296.00 34.49
297.00 29.47
298.00 24.00
299.00 19.77
300.00 16.71
301.00 14.63
302.00 13.32
303.00 12.56
304.00 12.25
305.00 12.42
306.00 13.15
307.00 14.60
308.00 17.00
309.00 20.94
310.00 27.82
311.00 30.40
312.00 24.86
313.00 22.63
314.00 22.51
315.00 23.92
316.00 26.82
317.00 29.16
318.00 26.48
319.00 23.87
320.00 24.20
321.00 29.03
322.00 34.02
323.00 25.07
324.00 21.28
325.00 20.31
326.00 21.81
327.00 28.10
328.00 32.83
329.00 22.06
330.00 18.57
331.00 18.02
332.00 19.82
333.00 24.67
334.00 29.58
335.00 24.67
336.00 22.50
337.00 24.49
338.00 30.44
339.00 26.59
340.00 22.01
341.00 21.52
342.00 24.85
343.00 40.20
344.00 29.63
345.00 23.83
346.00 23.35
347.00 26.29
348.00 31.83
349.00 31.00
350.00 28.51
351.00 29.87
352.00 33.37
353.00 29.27
354.00 25.10
355.00 24.15
356.00 25.16
357.00 26.30
358.00 29.17
359.00 23.16
