NAME ATR4518R7_1950_X_CO_M45_01T_yL
FREQUENCY 1950
GAIN 15.25 dBd
TILT	ELECTRICAL
COMMENT DATE 05.08.2013 -45 degrees polarized system Lever position 01T deg
HORIZONTAL 360
0.00 0.02
1.00 0.04
2.00 0.06
3.00 0.09
4.00 0.13
5.00 0.16
6.00 0.21
7.00 0.25
8.00 0.30
9.00 0.35
10.00 0.40
11.00 0.46
12.00 0.52
13.00 0.58
14.00 0.64
15.00 0.71
16.00 0.78
17.00 0.86
18.00 0.94
19.00 1.02
20.00 1.12
21.00 1.21
22.00 1.32
23.00 1.43
24.00 1.56
25.00 1.69
26.00 1.82
27.00 1.97
28.00 2.13
29.00 2.30
30.00 2.47
31.00 2.66
32.00 2.86
33.00 3.06
34.00 3.28
35.00 3.51
36.00 3.74
37.00 3.99
38.00 4.24
39.00 4.50
40.00 4.78
41.00 5.05
42.00 5.34
43.00 5.64
44.00 5.94
45.00 6.24
46.00 6.55
47.00 6.87
48.00 7.19
49.00 7.52
50.00 7.85
51.00 8.18
52.00 8.51
53.00 8.85
54.00 9.18
55.00 9.53
56.00 9.87
57.00 10.21
58.00 10.56
59.00 10.90
60.00 11.25
61.00 11.60
62.00 11.96
63.00 12.31
64.00 12.67
65.00 13.03
66.00 13.40
67.00 13.77
68.00 14.14
69.00 14.52
70.00 14.90
71.00 15.28
72.00 15.67
73.00 16.06
74.00 16.45
75.00 16.84
76.00 17.24
77.00 17.63
78.00 18.02
79.00 18.42
80.00 18.81
81.00 19.20
82.00 19.59
83.00 19.98
84.00 20.37
85.00 20.77
86.00 21.17
87.00 21.59
88.00 22.01
89.00 22.45
90.00 22.91
91.00 23.39
92.00 23.91
93.00 24.46
94.00 25.04
95.00 25.67
96.00 26.34
97.00 27.07
98.00 27.84
99.00 28.67
100.00 29.53
101.00 30.41
102.00 31.28
103.00 32.10
104.00 32.79
105.00 33.30
106.00 33.60
107.00 33.67
108.00 33.56
109.00 33.35
110.00 33.09
111.00 32.85
112.00 32.66
113.00 32.53
114.00 32.48
115.00 32.52
116.00 32.64
117.00 32.84
118.00 33.09
119.00 33.37
120.00 33.65
121.00 33.86
122.00 33.96
123.00 33.89
124.00 33.64
125.00 33.24
126.00 32.71
127.00 32.12
128.00 31.51
129.00 30.93
130.00 30.38
131.00 29.89
132.00 29.47
133.00 29.12
134.00 28.83
135.00 28.61
136.00 28.45
137.00 28.35
138.00 28.31
139.00 28.32
140.00 28.37
141.00 28.46
142.00 28.58
143.00 28.74
144.00 28.93
145.00 29.14
146.00 29.38
147.00 29.65
148.00 29.94
149.00 30.26
150.00 30.61
151.00 30.99
152.00 31.38
153.00 31.76
154.00 32.12
155.00 32.41
156.00 32.58
157.00 32.60
158.00 32.45
159.00 32.13
160.00 31.69
161.00 31.17
162.00 30.62
163.00 30.08
164.00 29.59
165.00 29.16
166.00 28.82
167.00 28.57
168.00 28.42
169.00 28.37
170.00 28.45
171.00 28.64
172.00 28.95
173.00 29.40
174.00 29.99
175.00 30.71
176.00 31.54
177.00 32.45
178.00 33.32
179.00 33.95
180.00 34.14
181.00 33.79
182.00 33.01
183.00 32.03
184.00 31.02
185.00 30.10
186.00 29.31
187.00 28.66
188.00 28.17
189.00 27.82
190.00 27.63
191.00 27.59
192.00 27.71
193.00 28.01
194.00 28.48
195.00 29.17
196.00 30.12
197.00 31.40
198.00 33.11
199.00 35.50
200.00 39.08
201.00 45.35
202.00 50.32
203.00 41.56
204.00 36.77
205.00 33.71
206.00 31.52
207.00 29.88
208.00 28.59
209.00 27.59
210.00 26.82
211.00 26.23
212.00 25.80
213.00 25.53
214.00 25.39
215.00 25.40
216.00 25.54
217.00 25.81
218.00 26.24
219.00 26.82
220.00 27.59
221.00 28.58
222.00 29.84
223.00 31.47
224.00 33.64
225.00 36.70
226.00 41.67
227.00 53.87
228.00 45.88
229.00 38.77
230.00 34.95
231.00 32.37
232.00 30.46
233.00 28.98
234.00 27.79
235.00 26.82
236.00 26.03
237.00 25.38
238.00 24.84
239.00 24.41
240.00 24.06
241.00 23.78
242.00 23.56
243.00 23.39
244.00 23.26
245.00 23.16
246.00 23.08
247.00 23.00
248.00 22.92
249.00 22.83
250.00 22.71
251.00 22.58
252.00 22.40
253.00 22.20
254.00 21.97
255.00 21.72
256.00 21.44
257.00 21.16
258.00 20.86
259.00 20.57
260.00 20.28
261.00 20.00
262.00 19.72
263.00 19.46
264.00 19.21
265.00 18.97
266.00 18.74
267.00 18.52
268.00 18.30
269.00 18.08
270.00 17.87
271.00 17.64
272.00 17.41
273.00 17.17
274.00 16.91
275.00 16.64
276.00 16.36
277.00 16.07
278.00 15.76
279.00 15.45
280.00 15.12
281.00 14.79
282.00 14.46
283.00 14.12
284.00 13.78
285.00 13.45
286.00 13.12
287.00 12.80
288.00 12.48
289.00 12.16
290.00 11.86
291.00 11.56
292.00 11.27
293.00 10.99
294.00 10.71
295.00 10.44
296.00 10.17
297.00 9.92
298.00 9.66
299.00 9.41
300.00 9.16
301.00 8.92
302.00 8.69
303.00 8.45
304.00 8.22
305.00 7.99
306.00 7.76
307.00 7.53
308.00 7.31
309.00 7.08
310.00 6.86
311.00 6.63
312.00 6.41
313.00 6.19
314.00 5.97
315.00 5.74
316.00 5.52
317.00 5.30
318.00 5.09
319.00 4.87
320.00 4.65
321.00 4.44
322.00 4.22
323.00 4.01
324.00 3.80
325.00 3.60
326.00 3.40
327.00 3.20
328.00 3.01
329.00 2.82
330.00 2.64
331.00 2.46
332.00 2.29
333.00 2.12
334.00 1.96
335.00 1.81
336.00 1.66
337.00 1.51
338.00 1.38
339.00 1.24
340.00 1.12
341.00 1.00
342.00 0.88
343.00 0.77
344.00 0.67
345.00 0.58
346.00 0.49
347.00 0.41
348.00 0.33
349.00 0.26
350.00 0.20
351.00 0.15
352.00 0.11
353.00 0.07
354.00 0.04
355.00 0.02
356.00 0.01
357.00 0.00
358.00 0.00
359.00 0.01
VERTICAL 360
0.00 0.77
1.00 0.08
2.00 0.10
3.00 0.89
4.00 2.57
5.00 5.39
6.00 10.03
7.00 19.01
8.00 24.84
9.00 16.33
10.00 14.48
11.00 15.27
12.00 17.89
13.00 19.35
14.00 16.56
15.00 14.17
16.00 13.45
17.00 14.29
18.00 16.65
19.00 20.38
20.00 23.02
21.00 21.04
22.00 18.71
23.00 17.79
24.00 18.47
25.00 21.03
26.00 25.00
27.00 24.31
28.00 20.91
29.00 19.01
30.00 18.29
31.00 18.28
32.00 18.88
33.00 20.19
34.00 22.04
35.00 23.27
36.00 22.61
37.00 21.09
38.00 19.67
39.00 18.53
40.00 17.68
41.00 17.22
42.00 17.17
43.00 17.53
44.00 18.30
45.00 19.69
46.00 22.05
47.00 26.01
48.00 32.22
49.00 32.48
50.00 28.12
51.00 25.67
52.00 24.14
53.00 23.04
54.00 22.39
55.00 22.43
56.00 23.37
57.00 25.37
58.00 28.67
59.00 33.73
60.00 39.88
61.00 38.12
62.00 34.66
63.00 32.84
64.00 32.08
65.00 32.11
66.00 32.90
67.00 34.40
68.00 36.36
69.00 38.21
70.00 39.23
71.00 39.16
72.00 38.44
73.00 37.81
74.00 37.62
75.00 37.81
76.00 37.90
77.00 37.40
78.00 36.55
79.00 36.00
80.00 36.03
81.00 36.57
82.00 37.35
83.00 37.73
84.00 37.13
85.00 36.25
86.00 36.29
87.00 37.92
88.00 41.57
89.00 47.69
90.00 58.24
91.00 53.62
92.00 44.74
93.00 40.66
94.00 39.26
95.00 40.01
96.00 42.79
97.00 47.20
98.00 50.05
99.00 48.62
100.00 45.30
101.00 42.29
102.00 40.72
103.00 40.63
104.00 41.52
105.00 42.49
106.00 43.27
107.00 44.67
108.00 47.42
109.00 51.68
110.00 58.48
111.00 69.27
112.00 54.46
113.00 48.73
114.00 44.95
115.00 42.16
116.00 40.33
117.00 39.42
118.00 39.20
119.00 39.21
120.00 39.01
121.00 38.37
122.00 37.40
123.00 36.38
124.00 35.70
125.00 35.81
126.00 37.20
127.00 40.78
128.00 49.72
129.00 50.90
130.00 43.21
131.00 40.77
132.00 39.81
133.00 39.14
134.00 38.70
135.00 39.03
136.00 40.74
137.00 44.41
138.00 47.04
139.00 42.59
140.00 38.94
141.00 36.85
142.00 35.84
143.00 35.73
144.00 36.49
145.00 37.98
146.00 39.73
147.00 40.89
148.00 40.97
149.00 40.42
150.00 39.61
151.00 38.01
152.00 35.67
153.00 33.69
154.00 32.71
155.00 32.82
156.00 33.64
157.00 34.31
158.00 34.30
159.00 34.38
160.00 35.36
161.00 36.93
162.00 36.77
163.00 34.74
164.00 33.34
165.00 33.32
166.00 34.65
167.00 36.95
168.00 39.23
169.00 40.47
170.00 41.01
171.00 41.49
172.00 42.67
173.00 46.57
174.00 62.67
175.00 43.19
176.00 37.12
177.00 34.14
178.00 32.96
179.00 33.06
180.00 34.12
181.00 35.58
182.00 36.71
183.00 37.34
184.00 37.11
185.00 35.47
186.00 33.64
187.00 32.77
188.00 33.08
189.00 34.38
190.00 36.07
191.00 37.35
192.00 38.09
193.00 38.94
194.00 40.30
195.00 41.52
196.00 40.51
197.00 38.09
198.00 36.35
199.00 35.78
200.00 36.22
201.00 37.14
202.00 37.93
203.00 38.63
204.00 39.36
205.00 38.91
206.00 37.14
207.00 35.95
208.00 36.41
209.00 39.30
210.00 47.74
211.00 48.00
212.00 39.47
213.00 36.27
214.00 35.07
215.00 35.12
216.00 36.17
217.00 38.14
218.00 41.13
219.00 45.40
220.00 48.55
221.00 44.52
222.00 40.44
223.00 37.93
224.00 36.59
225.00 36.03
226.00 35.68
227.00 35.02
228.00 34.21
229.00 33.79
230.00 34.08
231.00 35.10
232.00 36.27
233.00 36.58
234.00 35.93
235.00 35.17
236.00 34.68
237.00 34.33
238.00 34.03
239.00 33.87
240.00 33.96
241.00 34.33
242.00 35.00
243.00 36.02
244.00 37.60
245.00 39.84
246.00 41.98
247.00 42.02
248.00 40.84
249.00 40.45
250.00 41.27
251.00 42.97
252.00 44.48
253.00 44.47
254.00 43.40
255.00 42.54
256.00 42.33
257.00 42.13
258.00 40.77
259.00 38.72
260.00 37.15
261.00 36.39
262.00 36.28
263.00 36.49
264.00 36.64
265.00 36.50
266.00 36.10
267.00 35.67
268.00 35.38
269.00 35.25
270.00 35.19
271.00 35.01
272.00 34.57
273.00 33.82
274.00 32.85
275.00 31.76
276.00 30.66
277.00 29.60
278.00 28.63
279.00 27.80
280.00 27.15
281.00 26.69
282.00 26.41
283.00 26.23
284.00 26.07
285.00 25.88
286.00 25.67
287.00 25.47
288.00 25.35
289.00 25.29
290.00 25.24
291.00 25.25
292.00 25.48
293.00 26.16
294.00 27.45
295.00 28.99
296.00 29.13
297.00 27.20
298.00 25.07
299.00 23.66
300.00 22.97
301.00 22.81
302.00 22.94
303.00 23.21
304.00 23.67
305.00 24.57
306.00 26.20
307.00 28.86
308.00 32.01
309.00 31.45
310.00 27.82
311.00 24.88
312.00 22.93
313.00 21.82
314.00 21.49
315.00 21.94
316.00 23.21
317.00 25.32
318.00 28.15
319.00 31.14
320.00 32.96
321.00 32.41
322.00 30.19
323.00 27.60
324.00 25.22
325.00 23.22
326.00 21.75
327.00 21.04
328.00 21.37
329.00 23.21
330.00 27.46
331.00 30.47
332.00 24.25
333.00 20.17
334.00 18.14
335.00 17.59
336.00 18.49
337.00 21.36
338.00 28.39
339.00 31.48
340.00 22.75
341.00 19.53
342.00 18.80
343.00 20.19
344.00 24.83
345.00 56.60
346.00 24.70
347.00 19.43
348.00 17.52
349.00 17.56
350.00 19.19
351.00 22.07
352.00 25.32
353.00 29.80
354.00 36.59
355.00 19.93
356.00 12.58
357.00 7.81
358.00 4.49
359.00 2.21
