NAME ATR4518R7_1880_X_CO_P45_08T_yL
FREQUENCY 1880
GAIN 14.70 dBd
TILT	ELECTRICAL
COMMENT DATE 05.08.2013 +45 degrees polarized system Lever position 08T deg
HORIZONTAL 360
0.00 0.11
1.00 0.08
2.00 0.06
3.00 0.04
4.00 0.02
5.00 0.01
6.00 0.00
7.00 0.00
8.00 0.00
9.00 0.01
10.00 0.02
11.00 0.04
12.00 0.06
13.00 0.10
14.00 0.14
15.00 0.18
16.00 0.24
17.00 0.31
18.00 0.38
19.00 0.46
20.00 0.54
21.00 0.64
22.00 0.74
23.00 0.85
24.00 0.97
25.00 1.10
26.00 1.23
27.00 1.37
28.00 1.51
29.00 1.67
30.00 1.83
31.00 2.00
32.00 2.17
33.00 2.35
34.00 2.54
35.00 2.73
36.00 2.93
37.00 3.13
38.00 3.34
39.00 3.56
40.00 3.78
41.00 4.00
42.00 4.23
43.00 4.47
44.00 4.71
45.00 4.95
46.00 5.19
47.00 5.44
48.00 5.69
49.00 5.95
50.00 6.20
51.00 6.46
52.00 6.72
53.00 6.98
54.00 7.25
55.00 7.51
56.00 7.78
57.00 8.05
58.00 8.32
59.00 8.59
60.00 8.86
61.00 9.14
62.00 9.42
63.00 9.70
64.00 9.99
65.00 10.28
66.00 10.57
67.00 10.87
68.00 11.17
69.00 11.48
70.00 11.78
71.00 12.10
72.00 12.42
73.00 12.74
74.00 13.06
75.00 13.39
76.00 13.73
77.00 14.07
78.00 14.41
79.00 14.75
80.00 15.11
81.00 15.46
82.00 15.83
83.00 16.20
84.00 16.57
85.00 16.95
86.00 17.35
87.00 17.75
88.00 18.17
89.00 18.60
90.00 19.05
91.00 19.52
92.00 20.01
93.00 20.52
94.00 21.06
95.00 21.64
96.00 22.24
97.00 22.89
98.00 23.57
99.00 24.30
100.00 25.07
101.00 25.89
102.00 26.76
103.00 27.67
104.00 28.62
105.00 29.59
106.00 30.56
107.00 31.50
108.00 32.38
109.00 33.13
110.00 33.72
111.00 34.14
112.00 34.40
113.00 34.54
114.00 34.61
115.00 34.66
116.00 34.72
117.00 34.84
118.00 35.01
119.00 35.26
120.00 35.58
121.00 35.96
122.00 36.39
123.00 36.82
124.00 37.21
125.00 37.50
126.00 37.62
127.00 37.52
128.00 37.21
129.00 36.73
130.00 36.13
131.00 35.49
132.00 34.85
133.00 34.25
134.00 33.70
135.00 33.22
136.00 32.80
137.00 32.45
138.00 32.17
139.00 31.97
140.00 31.83
141.00 31.76
142.00 31.75
143.00 31.81
144.00 31.94
145.00 32.14
146.00 32.41
147.00 32.76
148.00 33.18
149.00 33.70
150.00 34.31
151.00 35.03
152.00 35.87
153.00 36.86
154.00 38.03
155.00 39.42
156.00 41.09
157.00 43.14
158.00 45.79
159.00 49.41
160.00 55.07
161.00 63.53
162.00 56.48
163.00 51.46
164.00 48.64
165.00 46.90
166.00 45.83
167.00 45.27
168.00 45.12
169.00 45.39
170.00 46.10
171.00 47.38
172.00 49.46
173.00 53.01
174.00 60.60
175.00 63.15
176.00 52.82
177.00 47.92
178.00 44.69
179.00 42.32
180.00 40.48
181.00 39.01
182.00 37.81
183.00 36.86
184.00 36.09
185.00 35.51
186.00 35.08
187.00 34.80
188.00 34.66
189.00 34.68
190.00 34.84
191.00 35.17
192.00 35.67
193.00 36.38
194.00 37.33
195.00 38.57
196.00 40.22
197.00 42.41
198.00 45.36
199.00 48.89
200.00 49.67
201.00 46.23
202.00 42.83
203.00 40.23
204.00 38.24
205.00 36.68
206.00 35.45
207.00 34.46
208.00 33.67
209.00 33.06
210.00 32.61
211.00 32.29
212.00 32.11
213.00 32.05
214.00 32.11
215.00 32.29
216.00 32.60
217.00 33.05
218.00 33.63
219.00 34.36
220.00 35.25
221.00 36.29
222.00 37.46
223.00 38.64
224.00 39.58
225.00 39.89
226.00 39.36
227.00 38.22
228.00 36.82
229.00 35.44
230.00 34.18
231.00 33.06
232.00 32.08
233.00 31.23
234.00 30.50
235.00 29.88
236.00 29.35
237.00 28.91
238.00 28.55
239.00 28.26
240.00 28.05
241.00 27.90
242.00 27.80
243.00 27.76
244.00 27.77
245.00 27.82
246.00 27.90
247.00 28.01
248.00 28.12
249.00 28.22
250.00 28.29
251.00 28.30
252.00 28.24
253.00 28.08
254.00 27.82
255.00 27.46
256.00 27.01
257.00 26.50
258.00 25.94
259.00 25.34
260.00 24.74
261.00 24.15
262.00 23.56
263.00 23.00
264.00 22.46
265.00 21.95
266.00 21.47
267.00 21.02
268.00 20.59
269.00 20.19
270.00 19.81
271.00 19.46
272.00 19.12
273.00 18.80
274.00 18.49
275.00 18.20
276.00 17.91
277.00 17.63
278.00 17.35
279.00 17.07
280.00 16.80
281.00 16.52
282.00 16.24
283.00 15.96
284.00 15.67
285.00 15.38
286.00 15.10
287.00 14.81
288.00 14.52
289.00 14.24
290.00 13.96
291.00 13.69
292.00 13.42
293.00 13.15
294.00 12.90
295.00 12.65
296.00 12.41
297.00 12.18
298.00 11.96
299.00 11.74
300.00 11.53
301.00 11.32
302.00 11.12
303.00 10.92
304.00 10.72
305.00 10.51
306.00 10.31
307.00 10.10
308.00 9.89
309.00 9.66
310.00 9.43
311.00 9.20
312.00 8.95
313.00 8.70
314.00 8.44
315.00 8.17
316.00 7.89
317.00 7.61
318.00 7.32
319.00 7.02
320.00 6.73
321.00 6.43
322.00 6.13
323.00 5.84
324.00 5.54
325.00 5.25
326.00 4.96
327.00 4.68
328.00 4.40
329.00 4.12
330.00 3.86
331.00 3.60
332.00 3.34
333.00 3.10
334.00 2.86
335.00 2.64
336.00 2.42
337.00 2.22
338.00 2.02
339.00 1.84
340.00 1.67
341.00 1.51
342.00 1.36
343.00 1.22
344.00 1.10
345.00 0.98
346.00 0.87
347.00 0.78
348.00 0.69
349.00 0.61
350.00 0.54
351.00 0.48
352.00 0.42
353.00 0.37
354.00 0.32
355.00 0.28
356.00 0.24
357.00 0.20
358.00 0.17
359.00 0.14
VERTICAL 360
0.00 28.29
1.00 31.07
2.00 16.76
3.00 10.25
4.00 6.08
5.00 3.24
6.00 1.38
7.00 0.31
8.00 0.00
9.00 0.42
10.00 1.66
11.00 3.87
12.00 7.52
13.00 13.96
14.00 26.11
15.00 15.73
16.00 12.01
17.00 11.19
18.00 12.25
19.00 15.28
20.00 21.55
21.00 27.91
22.00 20.22
23.00 17.03
24.00 16.19
25.00 16.91
26.00 19.11
27.00 22.88
28.00 24.93
29.00 21.22
30.00 18.09
31.00 16.55
32.00 16.35
33.00 17.47
34.00 20.18
35.00 25.36
36.00 32.45
37.00 26.82
38.00 22.78
39.00 20.74
40.00 19.57
41.00 18.92
42.00 18.76
43.00 19.17
44.00 20.18
45.00 21.83
46.00 24.22
47.00 27.54
48.00 31.47
49.00 33.31
50.00 32.45
51.00 32.20
52.00 33.46
53.00 35.29
54.00 33.56
55.00 29.89
56.00 27.44
57.00 26.44
58.00 26.69
59.00 28.03
60.00 30.20
61.00 32.83
62.00 35.71
63.00 39.46
64.00 47.03
65.00 51.11
66.00 39.85
67.00 35.38
68.00 33.06
69.00 31.95
70.00 31.54
71.00 31.44
72.00 31.37
73.00 31.26
74.00 31.15
75.00 31.12
76.00 31.13
77.00 31.12
78.00 31.09
79.00 31.19
80.00 31.65
81.00 32.58
82.00 33.97
83.00 35.67
84.00 37.49
85.00 39.47
86.00 41.70
87.00 42.47
88.00 40.12
89.00 37.69
90.00 36.38
91.00 35.78
92.00 35.24
93.00 34.73
94.00 34.75
95.00 35.57
96.00 36.81
97.00 37.31
98.00 36.44
99.00 34.95
100.00 33.71
101.00 33.15
102.00 33.44
103.00 34.43
104.00 35.68
105.00 36.66
106.00 37.24
107.00 37.67
108.00 38.27
109.00 39.37
110.00 41.12
111.00 43.14
112.00 44.28
113.00 43.36
114.00 41.21
115.00 39.37
116.00 38.44
117.00 38.32
118.00 38.49
119.00 38.19
120.00 37.10
121.00 35.67
122.00 34.55
123.00 34.05
124.00 34.13
125.00 34.25
126.00 33.81
127.00 32.96
128.00 32.37
129.00 32.50
130.00 33.52
131.00 35.45
132.00 37.93
133.00 40.00
134.00 41.28
135.00 42.17
136.00 41.76
137.00 40.15
138.00 39.19
139.00 39.76
140.00 42.05
141.00 46.04
142.00 50.72
143.00 53.33
144.00 50.75
145.00 46.24
146.00 43.75
147.00 44.01
148.00 48.84
149.00 56.29
150.00 43.73
151.00 39.92
152.00 39.06
153.00 39.16
154.00 38.25
155.00 37.17
156.00 37.62
157.00 39.67
158.00 39.78
159.00 37.40
160.00 36.58
161.00 37.46
162.00 36.88
163.00 33.93
164.00 31.82
165.00 31.14
166.00 31.36
167.00 32.01
168.00 32.87
169.00 34.46
170.00 36.65
171.00 36.67
172.00 34.71
173.00 34.17
174.00 35.65
175.00 38.94
176.00 42.01
177.00 43.45
178.00 47.33
179.00 47.33
180.00 41.25
181.00 39.21
182.00 40.64
183.00 47.05
184.00 58.50
185.00 46.02
186.00 44.76
187.00 46.92
188.00 47.39
189.00 45.20
190.00 44.18
191.00 42.90
192.00 40.45
193.00 38.54
194.00 38.01
195.00 39.05
196.00 42.10
197.00 49.35
198.00 51.07
199.00 42.22
200.00 38.32
201.00 36.49
202.00 36.04
203.00 36.75
204.00 38.51
205.00 41.19
206.00 43.38
207.00 41.63
208.00 38.36
209.00 36.00
210.00 34.67
211.00 34.06
212.00 33.89
213.00 34.04
214.00 34.54
215.00 35.30
216.00 35.93
217.00 35.86
218.00 35.05
219.00 34.03
220.00 33.35
221.00 33.37
222.00 34.37
223.00 36.51
224.00 39.37
225.00 40.07
226.00 38.14
227.00 36.75
228.00 36.72
229.00 38.16
230.00 41.31
231.00 45.86
232.00 45.90
233.00 42.38
234.00 40.12
235.00 38.93
236.00 38.51
237.00 38.71
238.00 39.39
239.00 40.35
240.00 41.51
241.00 42.91
242.00 44.50
243.00 45.89
244.00 46.69
245.00 46.99
246.00 47.30
247.00 47.81
248.00 47.11
249.00 44.52
250.00 42.13
251.00 40.87
252.00 40.68
253.00 41.00
254.00 40.84
255.00 39.58
256.00 37.71
257.00 35.86
258.00 34.33
259.00 33.20
260.00 32.57
261.00 32.44
262.00 32.76
263.00 33.36
264.00 33.94
265.00 34.14
266.00 33.87
267.00 33.34
268.00 32.83
269.00 32.40
270.00 31.92
271.00 31.18
272.00 30.14
273.00 29.00
274.00 27.97
275.00 27.11
276.00 26.34
277.00 25.58
278.00 24.80
279.00 24.11
280.00 23.63
281.00 23.48
282.00 23.65
283.00 24.10
284.00 24.69
285.00 25.26
286.00 25.67
287.00 25.86
288.00 25.94
289.00 26.15
290.00 26.89
291.00 28.69
292.00 32.65
293.00 42.22
294.00 35.13
295.00 28.81
296.00 25.70
297.00 24.12
298.00 23.48
299.00 23.47
300.00 23.87
301.00 24.60
302.00 25.66
303.00 27.12
304.00 28.73
305.00 29.24
306.00 27.59
307.00 25.17
308.00 23.12
309.00 21.70
310.00 20.97
311.00 20.97
312.00 21.83
313.00 23.85
314.00 27.76
315.00 35.83
316.00 32.86
317.00 26.33
318.00 23.14
319.00 21.59
320.00 21.21
321.00 21.95
322.00 24.09
323.00 28.72
324.00 35.52
325.00 27.10
326.00 21.92
327.00 19.12
328.00 17.71
329.00 17.32
330.00 17.74
331.00 18.74
332.00 19.94
333.00 20.95
334.00 21.86
335.00 23.39
336.00 26.87
337.00 37.24
338.00 32.57
339.00 24.83
340.00 21.90
341.00 21.25
342.00 22.58
343.00 26.23
344.00 28.25
345.00 22.81
346.00 18.93
347.00 16.98
348.00 16.55
349.00 17.62
350.00 20.72
351.00 28.00
352.00 30.96
353.00 22.86
354.00 20.16
355.00 20.13
356.00 22.43
357.00 26.75
358.00 26.91
359.00 24.92
