NAME ATR4518R7_1950_X_CO_M45_06T_yyR
FREQUENCY 1950
GAIN 15.23 dBd
TILT	ELECTRICAL
COMMENT DATE 05.08.2013 -45 degrees polarized system Lever position 06T deg
HORIZONTAL 360
0.00 0.16
1.00 0.12
2.00 0.09
3.00 0.06
4.00 0.04
5.00 0.02
6.00 0.01
7.00 0.00
8.00 0.01
9.00 0.02
10.00 0.03
11.00 0.06
12.00 0.09
13.00 0.13
14.00 0.18
15.00 0.23
16.00 0.30
17.00 0.37
18.00 0.46
19.00 0.55
20.00 0.65
21.00 0.76
22.00 0.89
23.00 1.02
24.00 1.17
25.00 1.32
26.00 1.49
27.00 1.67
28.00 1.86
29.00 2.06
30.00 2.28
31.00 2.50
32.00 2.74
33.00 2.99
34.00 3.26
35.00 3.53
36.00 3.82
37.00 4.12
38.00 4.43
39.00 4.76
40.00 5.09
41.00 5.44
42.00 5.80
43.00 6.17
44.00 6.55
45.00 6.94
46.00 7.35
47.00 7.76
48.00 8.18
49.00 8.61
50.00 9.05
51.00 9.50
52.00 9.95
53.00 10.41
54.00 10.88
55.00 11.34
56.00 11.82
57.00 12.29
58.00 12.76
59.00 13.23
60.00 13.70
61.00 14.16
62.00 14.61
63.00 15.06
64.00 15.49
65.00 15.91
66.00 16.31
67.00 16.69
68.00 17.06
69.00 17.40
70.00 17.73
71.00 18.05
72.00 18.35
73.00 18.63
74.00 18.91
75.00 19.17
76.00 19.44
77.00 19.70
78.00 19.96
79.00 20.24
80.00 20.52
81.00 20.81
82.00 21.12
83.00 21.45
84.00 21.80
85.00 22.18
86.00 22.58
87.00 23.01
88.00 23.48
89.00 23.98
90.00 24.53
91.00 25.11
92.00 25.75
93.00 26.44
94.00 27.19
95.00 28.01
96.00 28.91
97.00 29.89
98.00 30.99
99.00 32.21
100.00 33.59
101.00 35.19
102.00 37.07
103.00 39.35
104.00 42.25
105.00 46.14
106.00 50.81
107.00 50.38
108.00 46.07
109.00 42.75
110.00 40.33
111.00 38.50
112.00 37.05
113.00 35.84
114.00 34.83
115.00 33.97
116.00 33.22
117.00 32.56
118.00 31.99
119.00 31.47
120.00 31.02
121.00 30.63
122.00 30.28
123.00 29.97
124.00 29.71
125.00 29.50
126.00 29.32
127.00 29.19
128.00 29.10
129.00 29.05
130.00 29.04
131.00 29.07
132.00 29.15
133.00 29.27
134.00 29.45
135.00 29.66
136.00 29.93
137.00 30.24
138.00 30.61
139.00 31.03
140.00 31.50
141.00 32.03
142.00 32.62
143.00 33.27
144.00 33.98
145.00 34.75
146.00 35.58
147.00 36.47
148.00 37.41
149.00 38.41
150.00 39.44
151.00 40.50
152.00 41.55
153.00 42.56
154.00 43.49
155.00 44.27
156.00 44.85
157.00 45.16
158.00 45.16
159.00 44.86
160.00 44.30
161.00 43.54
162.00 42.67
163.00 41.73
164.00 40.78
165.00 39.86
166.00 38.98
167.00 38.16
168.00 37.41
169.00 36.73
170.00 36.13
171.00 35.61
172.00 35.17
173.00 34.80
174.00 34.52
175.00 34.32
176.00 34.20
177.00 34.17
178.00 34.22
179.00 34.37
180.00 34.60
181.00 34.92
182.00 35.34
183.00 35.85
184.00 36.44
185.00 37.08
186.00 37.74
187.00 38.32
188.00 38.73
189.00 38.84
190.00 38.59
191.00 38.02
192.00 37.24
193.00 36.36
194.00 35.47
195.00 34.63
196.00 33.86
197.00 33.17
198.00 32.57
199.00 32.05
200.00 31.63
201.00 31.28
202.00 31.01
203.00 30.82
204.00 30.69
205.00 30.63
206.00 30.64
207.00 30.70
208.00 30.82
209.00 30.98
210.00 31.17
211.00 31.38
212.00 31.60
213.00 31.82
214.00 31.99
215.00 32.12
216.00 32.18
217.00 32.16
218.00 32.06
219.00 31.88
220.00 31.64
221.00 31.35
222.00 31.05
223.00 30.74
224.00 30.43
225.00 30.16
226.00 29.91
227.00 29.69
228.00 29.52
229.00 29.39
230.00 29.29
231.00 29.24
232.00 29.23
233.00 29.25
234.00 29.30
235.00 29.38
236.00 29.46
237.00 29.55
238.00 29.64
239.00 29.70
240.00 29.73
241.00 29.71
242.00 29.64
243.00 29.51
244.00 29.32
245.00 29.07
246.00 28.78
247.00 28.45
248.00 28.08
249.00 27.71
250.00 27.32
251.00 26.93
252.00 26.55
253.00 26.18
254.00 25.82
255.00 25.47
256.00 25.13
257.00 24.81
258.00 24.50
259.00 24.20
260.00 23.90
261.00 23.62
262.00 23.33
263.00 23.05
264.00 22.77
265.00 22.48
266.00 22.19
267.00 21.90
268.00 21.60
269.00 21.29
270.00 20.97
271.00 20.65
272.00 20.32
273.00 19.99
274.00 19.65
275.00 19.31
276.00 18.97
277.00 18.62
278.00 18.28
279.00 17.93
280.00 17.59
281.00 17.25
282.00 16.91
283.00 16.58
284.00 16.25
285.00 15.93
286.00 15.61
287.00 15.30
288.00 14.99
289.00 14.69
290.00 14.39
291.00 14.09
292.00 13.80
293.00 13.52
294.00 13.24
295.00 12.96
296.00 12.68
297.00 12.41
298.00 12.15
299.00 11.88
300.00 11.61
301.00 11.35
302.00 11.09
303.00 10.83
304.00 10.56
305.00 10.31
306.00 10.05
307.00 9.79
308.00 9.53
309.00 9.28
310.00 9.02
311.00 8.76
312.00 8.51
313.00 8.25
314.00 8.00
315.00 7.75
316.00 7.49
317.00 7.24
318.00 6.99
319.00 6.74
320.00 6.49
321.00 6.25
322.00 6.00
323.00 5.76
324.00 5.53
325.00 5.29
326.00 5.06
327.00 4.83
328.00 4.60
329.00 4.38
330.00 4.16
331.00 3.95
332.00 3.74
333.00 3.53
334.00 3.33
335.00 3.14
336.00 2.95
337.00 2.76
338.00 2.58
339.00 2.41
340.00 2.24
341.00 2.08
342.00 1.92
343.00 1.78
344.00 1.63
345.00 1.50
346.00 1.36
347.00 1.24
348.00 1.12
349.00 1.01
350.00 0.90
351.00 0.80
352.00 0.71
353.00 0.62
354.00 0.53
355.00 0.46
356.00 0.39
357.00 0.32
358.00 0.26
359.00 0.21
VERTICAL 360
0.00 14.76
1.00 9.95
2.00 6.18
3.00 3.37
4.00 1.45
5.00 0.34
6.00 0.00
7.00 0.41
8.00 1.61
9.00 3.75
10.00 7.26
11.00 13.64
12.00 29.11
13.00 17.06
14.00 12.95
15.00 12.61
16.00 14.86
17.00 20.30
18.00 24.63
19.00 18.80
20.00 15.76
21.00 14.91
22.00 15.73
23.00 18.63
24.00 26.77
25.00 32.02
26.00 20.37
27.00 17.00
28.00 16.24
29.00 17.34
30.00 20.52
31.00 28.12
32.00 38.99
33.00 24.52
34.00 20.79
35.00 19.70
36.00 20.36
37.00 22.87
38.00 28.44
39.00 40.43
40.00 30.12
41.00 24.90
42.00 22.56
43.00 21.56
44.00 21.48
45.00 22.13
46.00 23.23
47.00 24.29
48.00 24.92
49.00 25.19
50.00 25.44
51.00 25.87
52.00 26.62
53.00 27.97
54.00 30.17
55.00 32.76
56.00 33.69
57.00 33.25
58.00 33.95
59.00 36.91
60.00 43.08
61.00 47.12
62.00 42.62
63.00 40.83
64.00 40.90
65.00 41.54
66.00 41.90
67.00 42.81
68.00 45.60
69.00 47.37
70.00 43.15
71.00 39.59
72.00 37.48
73.00 36.24
74.00 35.52
75.00 34.87
76.00 34.07
77.00 33.34
78.00 32.85
79.00 32.37
80.00 31.46
81.00 29.96
82.00 28.23
83.00 26.79
84.00 25.99
85.00 25.93
86.00 26.57
87.00 27.76
88.00 29.30
89.00 30.91
90.00 32.11
91.00 32.14
92.00 30.86
93.00 29.14
94.00 27.80
95.00 27.22
96.00 27.52
97.00 28.66
98.00 30.45
99.00 32.41
100.00 33.93
101.00 34.93
102.00 35.95
103.00 37.68
104.00 40.70
105.00 45.51
106.00 50.84
107.00 50.65
108.00 47.93
109.00 45.51
110.00 43.65
111.00 42.58
112.00 42.35
113.00 42.99
114.00 44.48
115.00 46.48
116.00 48.80
117.00 53.18
118.00 60.93
119.00 49.82
120.00 44.60
121.00 42.63
122.00 42.64
123.00 43.98
124.00 45.69
125.00 46.41
126.00 46.35
127.00 47.31
128.00 50.84
129.00 51.20
130.00 45.35
131.00 42.39
132.00 41.85
133.00 43.29
134.00 47.11
135.00 55.08
136.00 49.87
137.00 43.33
138.00 40.42
139.00 39.20
140.00 38.68
141.00 38.34
142.00 38.50
143.00 40.00
144.00 43.66
145.00 45.73
146.00 41.41
147.00 38.70
148.00 38.15
149.00 39.04
150.00 40.58
151.00 41.87
152.00 42.67
153.00 44.04
154.00 47.17
155.00 45.79
156.00 39.82
157.00 36.56
158.00 35.59
159.00 36.47
160.00 38.48
161.00 39.62
162.00 38.65
163.00 37.51
164.00 37.38
165.00 38.52
166.00 40.32
167.00 40.37
168.00 39.01
169.00 39.08
170.00 41.66
171.00 44.91
172.00 41.87
173.00 38.95
174.00 38.32
175.00 39.20
176.00 40.70
177.00 43.21
178.00 51.60
179.00 47.84
180.00 38.81
181.00 35.61
182.00 35.40
183.00 38.05
184.00 45.11
185.00 64.80
186.00 55.16
187.00 61.57
188.00 47.23
189.00 43.73
190.00 45.18
191.00 46.50
192.00 42.02
193.00 39.76
194.00 40.11
195.00 41.51
196.00 41.83
197.00 40.26
198.00 37.71
199.00 35.79
200.00 35.19
201.00 35.21
202.00 34.53
203.00 33.73
204.00 34.43
205.00 37.56
206.00 41.61
207.00 39.28
208.00 36.88
209.00 36.79
210.00 38.09
211.00 39.89
212.00 41.86
213.00 43.00
214.00 41.31
215.00 38.91
216.00 37.49
217.00 37.05
218.00 37.42
219.00 38.55
220.00 40.53
221.00 43.50
222.00 47.38
223.00 49.77
224.00 47.84
225.00 46.07
226.00 46.84
227.00 52.88
228.00 59.93
229.00 46.76
230.00 43.31
231.00 43.04
232.00 44.95
233.00 47.54
234.00 47.28
235.00 44.99
236.00 43.02
237.00 41.65
238.00 40.77
239.00 40.23
240.00 39.97
241.00 40.28
242.00 41.56
243.00 44.08
244.00 46.61
245.00 45.49
246.00 43.21
247.00 42.39
248.00 43.07
249.00 44.44
250.00 44.88
251.00 43.68
252.00 41.74
253.00 39.52
254.00 37.30
255.00 35.53
256.00 34.68
257.00 35.17
258.00 37.41
259.00 41.75
260.00 45.45
261.00 44.45
262.00 44.50
263.00 45.25
264.00 43.33
265.00 41.25
266.00 40.64
267.00 41.01
268.00 41.48
269.00 41.21
270.00 39.42
271.00 36.45
272.00 33.65
273.00 31.70
274.00 30.72
275.00 30.58
276.00 30.98
277.00 31.52
278.00 31.84
279.00 31.67
280.00 30.97
281.00 29.98
282.00 29.08
283.00 28.42
284.00 28.04
285.00 27.97
286.00 28.24
287.00 28.92
288.00 30.08
289.00 31.82
290.00 34.23
291.00 37.54
292.00 41.37
293.00 40.41
294.00 35.40
295.00 31.53
296.00 28.87
297.00 27.12
298.00 26.11
299.00 25.76
300.00 25.93
301.00 26.37
302.00 26.68
303.00 26.56
304.00 26.07
305.00 25.49
306.00 25.06
307.00 24.94
308.00 25.17
309.00 25.81
310.00 26.93
311.00 28.89
312.00 32.84
313.00 44.28
314.00 36.30
315.00 28.10
316.00 23.99
317.00 21.43
318.00 19.73
319.00 18.61
320.00 17.95
321.00 17.75
322.00 17.97
323.00 18.36
324.00 18.22
325.00 17.18
326.00 15.84
327.00 14.85
328.00 14.42
329.00 14.52
330.00 14.97
331.00 15.53
332.00 16.00
333.00 16.41
334.00 17.09
335.00 18.56
336.00 21.61
337.00 28.54
338.00 36.43
339.00 25.00
340.00 21.37
341.00 20.57
342.00 22.07
343.00 27.05
344.00 42.68
345.00 27.23
346.00 22.04
347.00 20.24
348.00 20.45
349.00 22.58
350.00 25.89
351.00 24.75
352.00 21.08
353.00 19.34
354.00 19.64
355.00 21.99
356.00 26.32
357.00 28.69
358.00 25.33
359.00 20.28
