NAME ATR4518R7_0806_X_CO_P45_05T
FREQUENCY 0806
GAIN 14.18 dBd
TILT	ELECTRICAL
COMMENT DATE 05.08.2013 +45 degrees polarized system Lever position 05T deg
HORIZONTAL 360
0.00 0.00
1.00 0.01
2.00 0.01
3.00 0.03
4.00 0.05
5.00 0.07
6.00 0.10
7.00 0.14
8.00 0.18
9.00 0.23
10.00 0.28
11.00 0.33
12.00 0.40
13.00 0.47
14.00 0.54
15.00 0.62
16.00 0.70
17.00 0.79
18.00 0.89
19.00 0.99
20.00 1.09
21.00 1.21
22.00 1.32
23.00 1.44
24.00 1.57
25.00 1.71
26.00 1.84
27.00 1.99
28.00 2.13
29.00 2.29
30.00 2.45
31.00 2.61
32.00 2.78
33.00 2.95
34.00 3.13
35.00 3.32
36.00 3.51
37.00 3.70
38.00 3.90
39.00 4.10
40.00 4.31
41.00 4.53
42.00 4.74
43.00 4.97
44.00 5.20
45.00 5.43
46.00 5.67
47.00 5.91
48.00 6.16
49.00 6.41
50.00 6.66
51.00 6.93
52.00 7.19
53.00 7.46
54.00 7.73
55.00 8.01
56.00 8.29
57.00 8.58
58.00 8.87
59.00 9.16
60.00 9.46
61.00 9.76
62.00 10.06
63.00 10.37
64.00 10.68
65.00 11.00
66.00 11.32
67.00 11.64
68.00 11.97
69.00 12.30
70.00 12.63
71.00 12.97
72.00 13.31
73.00 13.66
74.00 14.01
75.00 14.36
76.00 14.72
77.00 15.08
78.00 15.44
79.00 15.81
80.00 16.18
81.00 16.56
82.00 16.94
83.00 17.33
84.00 17.72
85.00 18.12
86.00 18.52
87.00 18.93
88.00 19.34
89.00 19.76
90.00 20.19
91.00 20.62
92.00 21.06
93.00 21.51
94.00 21.96
95.00 22.41
96.00 22.87
97.00 23.34
98.00 23.81
99.00 24.28
100.00 24.75
101.00 25.22
102.00 25.68
103.00 26.13
104.00 26.58
105.00 27.00
106.00 27.40
107.00 27.77
108.00 28.11
109.00 28.41
110.00 28.66
111.00 28.87
112.00 29.02
113.00 29.13
114.00 29.20
115.00 29.22
116.00 29.20
117.00 29.15
118.00 29.08
119.00 28.98
120.00 28.87
121.00 28.75
122.00 28.62
123.00 28.49
124.00 28.36
125.00 28.24
126.00 28.11
127.00 28.00
128.00 27.90
129.00 27.80
130.00 27.72
131.00 27.65
132.00 27.58
133.00 27.53
134.00 27.49
135.00 27.47
136.00 27.45
137.00 27.45
138.00 27.46
139.00 27.48
140.00 27.51
141.00 27.55
142.00 27.61
143.00 27.67
144.00 27.75
145.00 27.84
146.00 27.94
147.00 28.05
148.00 28.18
149.00 28.31
150.00 28.46
151.00 28.62
152.00 28.78
153.00 28.97
154.00 29.16
155.00 29.36
156.00 29.58
157.00 29.81
158.00 30.05
159.00 30.30
160.00 30.57
161.00 30.85
162.00 31.15
163.00 31.46
164.00 31.79
165.00 32.14
166.00 32.50
167.00 32.88
168.00 33.29
169.00 33.72
170.00 34.17
171.00 34.64
172.00 35.14
173.00 35.68
174.00 36.25
175.00 36.87
176.00 37.52
177.00 38.23
178.00 39.00
179.00 39.84
180.00 40.77
181.00 41.79
182.00 42.94
183.00 44.24
184.00 45.76
185.00 47.57
186.00 49.81
187.00 52.76
188.00 56.92
189.00 63.41
190.00 62.70
191.00 56.68
192.00 52.86
193.00 50.22
194.00 48.24
195.00 46.67
196.00 45.38
197.00 44.29
198.00 43.36
199.00 42.56
200.00 41.85
201.00 41.24
202.00 40.69
203.00 40.20
204.00 39.77
205.00 39.38
206.00 39.04
207.00 38.74
208.00 38.48
209.00 38.24
210.00 38.04
211.00 37.86
212.00 37.71
213.00 37.59
214.00 37.49
215.00 37.41
216.00 37.36
217.00 37.33
218.00 37.31
219.00 37.31
220.00 37.33
221.00 37.36
222.00 37.41
223.00 37.47
224.00 37.54
225.00 37.62
226.00 37.69
227.00 37.77
228.00 37.83
229.00 37.88
230.00 37.89
231.00 37.88
232.00 37.82
233.00 37.70
234.00 37.53
235.00 37.28
236.00 36.97
237.00 36.60
238.00 36.15
239.00 35.66
240.00 35.12
241.00 34.54
242.00 33.94
243.00 33.32
244.00 32.69
245.00 32.05
246.00 31.42
247.00 30.78
248.00 30.16
249.00 29.54
250.00 28.93
251.00 28.33
252.00 27.75
253.00 27.18
254.00 26.62
255.00 26.07
256.00 25.54
257.00 25.02
258.00 24.51
259.00 24.02
260.00 23.53
261.00 23.06
262.00 22.60
263.00 22.15
264.00 21.71
265.00 21.28
266.00 20.85
267.00 20.44
268.00 20.04
269.00 19.64
270.00 19.25
271.00 18.87
272.00 18.50
273.00 18.13
274.00 17.77
275.00 17.41
276.00 17.06
277.00 16.72
278.00 16.38
279.00 16.04
280.00 15.71
281.00 15.38
282.00 15.05
283.00 14.73
284.00 14.41
285.00 14.09
286.00 13.78
287.00 13.47
288.00 13.16
289.00 12.85
290.00 12.54
291.00 12.24
292.00 11.94
293.00 11.64
294.00 11.34
295.00 11.04
296.00 10.74
297.00 10.45
298.00 10.16
299.00 9.87
300.00 9.58
301.00 9.29
302.00 9.01
303.00 8.73
304.00 8.44
305.00 8.17
306.00 7.90
307.00 7.63
308.00 7.36
309.00 7.09
310.00 6.83
311.00 6.58
312.00 6.32
313.00 6.07
314.00 5.82
315.00 5.58
316.00 5.35
317.00 5.11
318.00 4.88
319.00 4.66
320.00 4.44
321.00 4.23
322.00 4.01
323.00 3.81
324.00 3.61
325.00 3.41
326.00 3.22
327.00 3.04
328.00 2.86
329.00 2.69
330.00 2.52
331.00 2.35
332.00 2.19
333.00 2.04
334.00 1.89
335.00 1.75
336.00 1.61
337.00 1.48
338.00 1.36
339.00 1.24
340.00 1.12
341.00 1.01
342.00 0.91
343.00 0.81
344.00 0.72
345.00 0.63
346.00 0.55
347.00 0.48
348.00 0.41
349.00 0.34
350.00 0.28
351.00 0.23
352.00 0.18
353.00 0.14
354.00 0.11
355.00 0.07
356.00 0.05
357.00 0.03
358.00 0.02
359.00 0.01
VERTICAL 360
0.00 4.07
1.00 2.57
2.00 1.44
3.00 0.65
4.00 0.18
5.00 0.00
6.00 0.14
7.00 0.58
8.00 1.34
9.00 2.45
10.00 3.94
11.00 5.88
12.00 8.38
13.00 11.63
14.00 16.07
15.00 22.93
16.00 38.51
17.00 28.19
18.00 24.40
19.00 23.99
20.00 25.87
21.00 31.11
22.00 53.73
23.00 29.89
24.00 24.46
25.00 21.77
26.00 20.43
27.00 20.02
28.00 20.37
29.00 21.44
30.00 23.24
31.00 25.86
32.00 29.25
33.00 32.29
34.00 32.36
35.00 30.90
36.00 30.12
37.00 30.44
38.00 32.06
39.00 35.29
40.00 37.98
41.00 33.70
42.00 29.14
43.00 25.98
44.00 23.77
45.00 22.20
46.00 21.12
47.00 20.42
48.00 20.05
49.00 19.96
50.00 20.14
51.00 20.58
52.00 21.28
53.00 22.26
54.00 23.52
55.00 25.08
56.00 26.95
57.00 29.15
58.00 31.61
59.00 34.17
60.00 36.23
61.00 36.87
62.00 36.06
63.00 34.75
64.00 33.51
65.00 32.46
66.00 31.62
67.00 31.05
68.00 30.79
69.00 30.90
70.00 31.37
71.00 32.13
72.00 33.08
73.00 34.10
74.00 34.99
75.00 35.32
76.00 34.75
77.00 33.60
78.00 32.56
79.00 32.00
80.00 31.98
81.00 32.35
82.00 32.72
83.00 32.64
84.00 31.98
85.00 31.00
86.00 30.01
87.00 29.21
88.00 28.73
89.00 28.67
90.00 29.06
91.00 29.92
92.00 31.15
93.00 32.58
94.00 33.81
95.00 34.43
96.00 34.31
97.00 33.82
98.00 33.39
99.00 33.28
100.00 33.58
101.00 34.24
102.00 35.04
103.00 35.77
104.00 36.40
105.00 37.07
106.00 37.91
107.00 38.79
108.00 39.31
109.00 39.09
110.00 38.23
111.00 37.14
112.00 36.22
113.00 35.70
114.00 35.73
115.00 36.35
116.00 37.57
117.00 39.31
118.00 41.42
119.00 43.64
120.00 45.70
121.00 47.59
122.00 49.88
123.00 53.90
124.00 54.84
125.00 47.69
126.00 42.87
127.00 39.90
128.00 38.16
129.00 37.35
130.00 37.24
131.00 37.68
132.00 38.48
133.00 39.50
134.00 40.67
135.00 42.04
136.00 43.58
137.00 44.46
138.00 43.01
139.00 40.06
140.00 37.37
141.00 35.40
142.00 34.14
143.00 33.56
144.00 33.57
145.00 34.16
146.00 35.26
147.00 36.78
148.00 38.33
149.00 38.98
150.00 38.07
151.00 36.45
152.00 35.00
153.00 34.04
154.00 33.60
155.00 33.68
156.00 34.19
157.00 34.99
158.00 35.84
159.00 36.47
160.00 36.80
161.00 37.06
162.00 37.56
163.00 38.62
164.00 40.55
165.00 43.96
166.00 50.42
167.00 51.63
168.00 44.27
169.00 40.22
170.00 37.78
171.00 36.32
172.00 35.64
173.00 36.21
174.00 38.01
175.00 40.77
176.00 43.11
177.00 42.74
178.00 39.41
179.00 36.49
180.00 34.56
181.00 33.40
182.00 32.81
183.00 33.06
184.00 33.72
185.00 34.81
186.00 36.46
187.00 38.91
188.00 42.86
189.00 49.96
190.00 48.71
191.00 41.92
192.00 38.22
193.00 36.09
194.00 34.97
195.00 34.59
196.00 34.74
197.00 35.22
198.00 35.77
199.00 36.16
200.00 36.23
201.00 36.06
202.00 35.80
203.00 35.63
204.00 35.64
205.00 35.85
206.00 36.22
207.00 36.81
208.00 37.74
209.00 39.23
210.00 41.41
211.00 43.98
212.00 45.30
213.00 44.57
214.00 43.68
215.00 43.61
216.00 44.38
217.00 45.62
218.00 46.65
219.00 46.69
220.00 45.76
221.00 44.61
222.00 43.93
223.00 44.22
224.00 46.00
225.00 50.62
226.00 62.71
227.00 49.77
228.00 43.92
229.00 40.70
230.00 38.65
231.00 37.29
232.00 36.42
233.00 35.97
234.00 35.89
235.00 36.14
236.00 36.61
237.00 37.14
238.00 37.49
239.00 37.43
240.00 36.93
241.00 36.20
242.00 35.54
243.00 35.23
244.00 35.42
245.00 36.27
246.00 37.87
247.00 40.28
248.00 43.31
249.00 45.99
250.00 47.23
251.00 47.89
252.00 49.01
253.00 50.35
254.00 51.23
255.00 52.27
256.00 54.57
257.00 54.50
258.00 49.21
259.00 44.92
260.00 42.07
261.00 40.18
262.00 38.97
263.00 38.30
264.00 38.10
265.00 38.26
266.00 38.42
267.00 38.09
268.00 37.11
269.00 35.94
270.00 35.01
271.00 34.51
272.00 34.40
273.00 34.56
274.00 34.89
275.00 35.28
276.00 35.71
277.00 36.16
278.00 36.59
279.00 36.98
280.00 37.41
281.00 38.00
282.00 38.85
283.00 39.94
284.00 41.06
285.00 41.95
286.00 42.49
287.00 42.73
288.00 42.61
289.00 41.93
290.00 40.83
291.00 39.69
292.00 38.80
293.00 38.22
294.00 37.82
295.00 37.50
296.00 37.20
297.00 37.01
298.00 37.15
299.00 37.92
300.00 39.89
301.00 43.93
302.00 44.28
303.00 37.01
304.00 31.87
305.00 28.29
306.00 25.66
307.00 23.72
308.00 22.27
309.00 21.20
310.00 20.42
311.00 19.84
312.00 19.39
313.00 19.05
314.00 18.82
315.00 18.73
316.00 18.88
317.00 19.34
318.00 20.21
319.00 21.61
320.00 23.73
321.00 26.80
322.00 31.04
323.00 34.21
324.00 32.17
325.00 29.77
326.00 28.71
327.00 28.87
328.00 30.16
329.00 32.68
330.00 36.76
331.00 42.38
332.00 43.76
333.00 41.30
334.00 40.65
335.00 41.96
336.00 44.15
337.00 41.41
338.00 35.94
339.00 31.57
340.00 28.26
341.00 25.80
342.00 24.10
343.00 23.13
344.00 22.96
345.00 23.74
346.00 25.83
347.00 30.14
348.00 36.72
349.00 30.78
350.00 26.12
351.00 24.19
352.00 24.38
353.00 27.34
354.00 31.20
355.00 22.36
356.00 16.00
357.00 11.69
358.00 8.48
359.00 6.01
