NAME ATR4518R7_0806_X_CO_M45_08T
FREQUENCY 0806
GAIN 14.34 dBd
TILT	ELECTRICAL
COMMENT DATE 05.08.2013 -45 degrees polarized system Lever position 08T deg
HORIZONTAL 360
0.00 0.00
1.00 0.01
2.00 0.02
3.00 0.04
4.00 0.06
5.00 0.09
6.00 0.13
7.00 0.17
8.00 0.22
9.00 0.28
10.00 0.34
11.00 0.40
12.00 0.48
13.00 0.55
14.00 0.64
15.00 0.73
16.00 0.83
17.00 0.93
18.00 1.04
19.00 1.16
20.00 1.28
21.00 1.40
22.00 1.54
23.00 1.68
24.00 1.82
25.00 1.98
26.00 2.14
27.00 2.30
28.00 2.47
29.00 2.65
30.00 2.83
31.00 3.02
32.00 3.22
33.00 3.42
34.00 3.63
35.00 3.85
36.00 4.07
37.00 4.29
38.00 4.53
39.00 4.77
40.00 5.01
41.00 5.26
42.00 5.52
43.00 5.78
44.00 6.05
45.00 6.32
46.00 6.60
47.00 6.89
48.00 7.18
49.00 7.47
50.00 7.77
51.00 8.08
52.00 8.38
53.00 8.70
54.00 9.01
55.00 9.33
56.00 9.66
57.00 9.99
58.00 10.32
59.00 10.65
60.00 10.99
61.00 11.32
62.00 11.66
63.00 12.00
64.00 12.35
65.00 12.69
66.00 13.03
67.00 13.37
68.00 13.72
69.00 14.06
70.00 14.40
71.00 14.75
72.00 15.08
73.00 15.42
74.00 15.76
75.00 16.09
76.00 16.43
77.00 16.76
78.00 17.09
79.00 17.42
80.00 17.74
81.00 18.07
82.00 18.39
83.00 18.71
84.00 19.03
85.00 19.34
86.00 19.66
87.00 19.97
88.00 20.28
89.00 20.58
90.00 20.88
91.00 21.18
92.00 21.48
93.00 21.77
94.00 22.06
95.00 22.34
96.00 22.62
97.00 22.89
98.00 23.15
99.00 23.41
100.00 23.67
101.00 23.91
102.00 24.15
103.00 24.38
104.00 24.61
105.00 24.83
106.00 25.04
107.00 25.24
108.00 25.45
109.00 25.64
110.00 25.83
111.00 26.02
112.00 26.20
113.00 26.38
114.00 26.56
115.00 26.74
116.00 26.92
117.00 27.11
118.00 27.29
119.00 27.47
120.00 27.66
121.00 27.85
122.00 28.04
123.00 28.24
124.00 28.44
125.00 28.64
126.00 28.84
127.00 29.05
128.00 29.26
129.00 29.46
130.00 29.67
131.00 29.87
132.00 30.06
133.00 30.25
134.00 30.44
135.00 30.61
136.00 30.77
137.00 30.91
138.00 31.04
139.00 31.15
140.00 31.25
141.00 31.33
142.00 31.39
143.00 31.43
144.00 31.45
145.00 31.46
146.00 31.46
147.00 31.44
148.00 31.41
149.00 31.37
150.00 31.33
151.00 31.29
152.00 31.24
153.00 31.19
154.00 31.14
155.00 31.10
156.00 31.06
157.00 31.03
158.00 31.00
159.00 30.98
160.00 30.97
161.00 30.97
162.00 30.97
163.00 30.99
164.00 31.01
165.00 31.04
166.00 31.08
167.00 31.13
168.00 31.19
169.00 31.25
170.00 31.32
171.00 31.41
172.00 31.49
173.00 31.58
174.00 31.68
175.00 31.78
176.00 31.89
177.00 32.00
178.00 32.11
179.00 32.22
180.00 32.33
181.00 32.45
182.00 32.55
183.00 32.66
184.00 32.77
185.00 32.87
186.00 32.97
187.00 33.06
188.00 33.14
189.00 33.22
190.00 33.29
191.00 33.36
192.00 33.41
193.00 33.47
194.00 33.51
195.00 33.55
196.00 33.59
197.00 33.62
198.00 33.64
199.00 33.66
200.00 33.68
201.00 33.69
202.00 33.70
203.00 33.70
204.00 33.71
205.00 33.71
206.00 33.71
207.00 33.72
208.00 33.72
209.00 33.72
210.00 33.73
211.00 33.73
212.00 33.74
213.00 33.75
214.00 33.76
215.00 33.77
216.00 33.79
217.00 33.81
218.00 33.83
219.00 33.86
220.00 33.88
221.00 33.91
222.00 33.94
223.00 33.96
224.00 33.99
225.00 34.00
226.00 34.01
227.00 34.00
228.00 33.98
229.00 33.94
230.00 33.88
231.00 33.78
232.00 33.65
233.00 33.49
234.00 33.28
235.00 33.03
236.00 32.74
237.00 32.41
238.00 32.04
239.00 31.64
240.00 31.20
241.00 30.75
242.00 30.27
243.00 29.77
244.00 29.26
245.00 28.75
246.00 28.23
247.00 27.71
248.00 27.19
249.00 26.68
250.00 26.17
251.00 25.67
252.00 25.17
253.00 24.69
254.00 24.21
255.00 23.74
256.00 23.28
257.00 22.83
258.00 22.39
259.00 21.96
260.00 21.54
261.00 21.13
262.00 20.73
263.00 20.34
264.00 19.95
265.00 19.57
266.00 19.20
267.00 18.84
268.00 18.49
269.00 18.14
270.00 17.80
271.00 17.46
272.00 17.13
273.00 16.81
274.00 16.49
275.00 16.17
276.00 15.86
277.00 15.56
278.00 15.25
279.00 14.95
280.00 14.66
281.00 14.36
282.00 14.07
283.00 13.78
284.00 13.50
285.00 13.21
286.00 12.93
287.00 12.65
288.00 12.37
289.00 12.09
290.00 11.81
291.00 11.54
292.00 11.26
293.00 10.98
294.00 10.71
295.00 10.44
296.00 10.16
297.00 9.89
298.00 9.62
299.00 9.36
300.00 9.09
301.00 8.83
302.00 8.56
303.00 8.30
304.00 8.04
305.00 7.78
306.00 7.52
307.00 7.27
308.00 7.02
309.00 6.77
310.00 6.53
311.00 6.29
312.00 6.04
313.00 5.81
314.00 5.58
315.00 5.35
316.00 5.12
317.00 4.90
318.00 4.68
319.00 4.47
320.00 4.26
321.00 4.05
322.00 3.85
323.00 3.65
324.00 3.46
325.00 3.27
326.00 3.09
327.00 2.91
328.00 2.74
329.00 2.57
330.00 2.41
331.00 2.25
332.00 2.10
333.00 1.95
334.00 1.80
335.00 1.67
336.00 1.53
337.00 1.41
338.00 1.28
339.00 1.17
340.00 1.06
341.00 0.95
342.00 0.85
343.00 0.75
344.00 0.66
345.00 0.58
346.00 0.50
347.00 0.43
348.00 0.36
349.00 0.30
350.00 0.25
351.00 0.19
352.00 0.15
353.00 0.11
354.00 0.08
355.00 0.05
356.00 0.03
357.00 0.01
358.00 0.00
359.00 0.00
VERTICAL 360
0.00 12.36
1.00 8.76
2.00 6.09
3.00 4.06
4.00 2.51
5.00 1.38
6.00 0.60
7.00 0.15
8.00 0.00
9.00 0.15
10.00 0.62
11.00 1.40
12.00 2.54
13.00 4.07
14.00 6.10
15.00 8.74
16.00 12.31
17.00 17.51
18.00 27.32
19.00 31.90
20.00 23.03
21.00 20.57
22.00 20.23
23.00 21.32
24.00 23.83
25.00 27.77
26.00 29.47
27.00 25.80
28.00 22.68
29.00 20.82
30.00 19.92
31.00 19.78
32.00 20.31
33.00 21.54
34.00 23.53
35.00 26.46
36.00 30.13
37.00 31.67
38.00 29.38
39.00 27.13
40.00 25.90
41.00 25.61
42.00 26.15
43.00 27.35
44.00 28.71
45.00 28.91
46.00 27.41
47.00 25.42
48.00 23.76
49.00 22.60
50.00 21.92
51.00 21.65
52.00 21.75
53.00 22.20
54.00 22.99
55.00 24.10
56.00 25.55
57.00 27.36
58.00 29.55
59.00 32.02
60.00 34.20
61.00 34.76
62.00 33.49
63.00 31.74
64.00 30.25
65.00 29.15
66.00 28.44
67.00 28.07
68.00 27.99
69.00 28.16
70.00 28.52
71.00 29.02
72.00 29.63
73.00 30.30
74.00 31.07
75.00 31.97
76.00 33.13
77.00 34.76
78.00 37.17
79.00 40.72
80.00 43.35
81.00 39.56
82.00 35.26
83.00 32.21
84.00 30.05
85.00 28.53
86.00 27.50
87.00 26.82
88.00 26.42
89.00 26.22
90.00 26.14
91.00 26.16
92.00 26.28
93.00 26.53
94.00 26.95
95.00 27.57
96.00 28.42
97.00 29.46
98.00 30.70
99.00 32.10
100.00 33.65
101.00 35.31
102.00 36.94
103.00 38.32
104.00 39.29
105.00 39.90
106.00 40.21
107.00 39.96
108.00 38.96
109.00 37.52
110.00 36.19
111.00 35.23
112.00 34.72
113.00 34.63
114.00 34.93
115.00 35.53
116.00 36.37
117.00 37.35
118.00 38.27
119.00 38.89
120.00 39.18
121.00 39.37
122.00 39.80
123.00 40.75
124.00 42.41
125.00 44.89
126.00 48.20
127.00 51.79
128.00 53.98
129.00 53.46
130.00 50.58
131.00 46.94
132.00 43.76
133.00 41.34
134.00 39.68
135.00 38.72
136.00 38.47
137.00 39.02
138.00 40.64
139.00 44.09
140.00 52.89
141.00 51.58
142.00 42.28
143.00 37.86
144.00 35.08
145.00 33.21
146.00 31.93
147.00 31.10
148.00 30.69
149.00 30.68
150.00 31.12
151.00 32.14
152.00 33.92
153.00 36.95
154.00 42.53
155.00 51.06
156.00 41.77
157.00 36.99
158.00 34.50
159.00 33.22
160.00 32.70
161.00 32.73
162.00 33.07
163.00 33.41
164.00 33.41
165.00 32.97
166.00 32.24
167.00 31.53
168.00 31.04
169.00 30.84
170.00 30.97
171.00 31.46
172.00 32.28
173.00 32.84
174.00 33.57
175.00 34.23
176.00 34.39
177.00 34.08
178.00 33.67
179.00 33.24
180.00 33.08
181.00 33.34
182.00 34.10
183.00 35.48
184.00 37.67
185.00 41.14
186.00 47.33
187.00 56.39
188.00 45.61
189.00 40.40
190.00 37.12
191.00 34.69
192.00 32.73
193.00 31.13
194.00 29.88
195.00 28.95
196.00 28.37
197.00 28.15
198.00 28.29
199.00 28.81
200.00 29.71
201.00 31.01
202.00 32.69
203.00 34.62
204.00 36.46
205.00 37.60
206.00 37.71
207.00 37.25
208.00 36.79
209.00 36.64
210.00 36.90
211.00 37.57
212.00 38.50
213.00 39.30
214.00 39.29
215.00 38.27
216.00 36.83
217.00 35.52
218.00 34.55
219.00 33.95
220.00 33.69
221.00 33.66
222.00 33.77
223.00 33.87
224.00 33.90
225.00 33.89
226.00 33.93
227.00 34.15
228.00 34.67
229.00 35.58
230.00 36.93
231.00 38.76
232.00 41.02
233.00 43.26
234.00 44.28
235.00 43.47
236.00 41.90
237.00 40.32
238.00 38.88
239.00 37.54
240.00 36.29
241.00 35.16
242.00 34.20
243.00 33.45
244.00 32.93
245.00 32.68
246.00 32.75
247.00 33.22
248.00 34.17
249.00 35.70
250.00 37.88
251.00 40.31
252.00 41.34
253.00 40.07
254.00 38.35
255.00 37.19
256.00 36.67
257.00 36.69
258.00 37.11
259.00 37.81
260.00 38.66
261.00 39.51
262.00 40.14
263.00 40.38
264.00 40.26
265.00 39.96
266.00 39.67
267.00 39.47
268.00 39.32
269.00 39.15
270.00 38.90
271.00 38.45
272.00 37.76
273.00 36.86
274.00 35.92
275.00 35.11
276.00 34.57
277.00 34.31
278.00 34.33
279.00 34.53
280.00 34.78
281.00 34.96
282.00 34.96
283.00 34.74
284.00 34.37
285.00 33.99
286.00 33.73
287.00 33.69
288.00 33.91
289.00 34.36
290.00 34.92
291.00 35.33
292.00 35.34
293.00 34.86
294.00 34.01
295.00 33.01
296.00 32.04
297.00 31.23
298.00 30.62
299.00 30.29
300.00 30.27
301.00 30.60
302.00 31.36
303.00 32.71
304.00 34.95
305.00 38.95
306.00 48.80
307.00 44.39
308.00 36.01
309.00 31.59
310.00 28.63
311.00 26.49
312.00 24.92
313.00 23.81
314.00 23.09
315.00 22.72
316.00 22.71
317.00 23.07
318.00 23.84
319.00 25.14
320.00 27.16
321.00 30.26
322.00 34.55
323.00 34.90
324.00 30.32
325.00 26.84
326.00 24.59
327.00 23.23
328.00 22.60
329.00 22.64
330.00 23.38
331.00 24.94
332.00 27.59
333.00 31.61
334.00 34.82
335.00 32.06
336.00 29.05
337.00 27.58
338.00 27.48
339.00 28.82
340.00 32.22
341.00 38.54
342.00 33.95
343.00 27.98
344.00 24.57
345.00 22.61
346.00 21.68
347.00 21.69
348.00 22.74
349.00 25.25
350.00 30.56
351.00 37.93
352.00 28.51
353.00 23.88
354.00 21.81
355.00 21.56
356.00 23.54
357.00 30.34
358.00 26.50
359.00 17.53
