NAME ATR4518R7_1950_X_CO_M45_05T_yyR
FREQUENCY 1950
GAIN 15.34 dBd
TILT	ELECTRICAL
COMMENT DATE 05.08.2013 -45 degrees polarized system Lever position 05T deg
HORIZONTAL 360
0.00 0.14
1.00 0.10
2.00 0.07
3.00 0.04
4.00 0.02
5.00 0.01
6.00 0.00
7.00 0.00
8.00 0.00
9.00 0.01
10.00 0.03
11.00 0.06
12.00 0.09
13.00 0.14
14.00 0.19
15.00 0.25
16.00 0.32
17.00 0.40
18.00 0.49
19.00 0.58
20.00 0.69
21.00 0.81
22.00 0.94
23.00 1.09
24.00 1.24
25.00 1.40
26.00 1.58
27.00 1.77
28.00 1.96
29.00 2.18
30.00 2.40
31.00 2.63
32.00 2.88
33.00 3.14
34.00 3.41
35.00 3.69
36.00 3.98
37.00 4.29
38.00 4.61
39.00 4.93
40.00 5.27
41.00 5.62
42.00 5.99
43.00 6.36
44.00 6.74
45.00 7.13
46.00 7.54
47.00 7.95
48.00 8.37
49.00 8.80
50.00 9.24
51.00 9.69
52.00 10.15
53.00 10.61
54.00 11.08
55.00 11.56
56.00 12.04
57.00 12.51
58.00 13.00
59.00 13.48
60.00 13.96
61.00 14.43
62.00 14.89
63.00 15.35
64.00 15.79
65.00 16.21
66.00 16.62
67.00 17.01
68.00 17.39
69.00 17.74
70.00 18.07
71.00 18.39
72.00 18.69
73.00 18.97
74.00 19.25
75.00 19.52
76.00 19.79
77.00 20.06
78.00 20.34
79.00 20.63
80.00 20.92
81.00 21.24
82.00 21.57
83.00 21.93
84.00 22.31
85.00 22.71
86.00 23.15
87.00 23.63
88.00 24.14
89.00 24.69
90.00 25.28
91.00 25.92
92.00 26.62
93.00 27.37
94.00 28.19
95.00 29.09
96.00 30.07
97.00 31.16
98.00 32.37
99.00 33.73
100.00 35.28
101.00 37.09
102.00 39.23
103.00 41.83
104.00 44.88
105.00 47.53
106.00 47.20
107.00 44.58
108.00 42.00
109.00 39.91
110.00 38.22
111.00 36.83
112.00 35.68
113.00 34.69
114.00 33.84
115.00 33.10
116.00 32.46
117.00 31.88
118.00 31.38
119.00 30.93
120.00 30.55
121.00 30.21
122.00 29.91
123.00 29.66
124.00 29.46
125.00 29.29
126.00 29.17
127.00 29.09
128.00 29.05
129.00 29.05
130.00 29.09
131.00 29.18
132.00 29.30
133.00 29.46
134.00 29.67
135.00 29.92
136.00 30.22
137.00 30.55
138.00 30.94
139.00 31.36
140.00 31.83
141.00 32.34
142.00 32.89
143.00 33.49
144.00 34.12
145.00 34.78
146.00 35.48
147.00 36.20
148.00 36.93
149.00 37.67
150.00 38.40
151.00 39.11
152.00 39.77
153.00 40.37
154.00 40.88
155.00 41.28
156.00 41.54
157.00 41.64
158.00 41.58
159.00 41.35
160.00 40.97
161.00 40.48
162.00 39.92
163.00 39.31
164.00 38.68
165.00 38.07
166.00 37.48
167.00 36.92
168.00 36.42
169.00 35.98
170.00 35.59
171.00 35.28
172.00 35.03
173.00 34.85
174.00 34.75
175.00 34.73
176.00 34.80
177.00 34.95
178.00 35.19
179.00 35.54
180.00 36.00
181.00 36.57
182.00 37.25
183.00 38.06
184.00 38.98
185.00 39.96
186.00 40.90
187.00 41.58
188.00 41.77
189.00 41.34
190.00 40.43
191.00 39.28
192.00 38.10
193.00 36.98
194.00 35.97
195.00 35.09
196.00 34.32
197.00 33.67
198.00 33.12
199.00 32.68
200.00 32.32
201.00 32.06
202.00 31.88
203.00 31.77
204.00 31.75
205.00 31.79
206.00 31.89
207.00 32.06
208.00 32.28
209.00 32.53
210.00 32.81
211.00 33.09
212.00 33.35
213.00 33.56
214.00 33.69
215.00 33.71
216.00 33.62
217.00 33.42
218.00 33.12
219.00 32.77
220.00 32.37
221.00 31.96
222.00 31.57
223.00 31.20
224.00 30.87
225.00 30.59
226.00 30.35
227.00 30.17
228.00 30.05
229.00 29.98
230.00 29.97
231.00 30.00
232.00 30.09
233.00 30.23
234.00 30.40
235.00 30.61
236.00 30.84
237.00 31.07
238.00 31.29
239.00 31.48
240.00 31.60
241.00 31.65
242.00 31.60
243.00 31.45
244.00 31.19
245.00 30.86
246.00 30.45
247.00 30.00
248.00 29.53
249.00 29.04
250.00 28.56
251.00 28.09
252.00 27.64
253.00 27.21
254.00 26.80
255.00 26.41
256.00 26.04
257.00 25.69
258.00 25.36
259.00 25.03
260.00 24.72
261.00 24.42
262.00 24.12
263.00 23.82
264.00 23.51
265.00 23.21
266.00 22.90
267.00 22.57
268.00 22.25
269.00 21.91
270.00 21.57
271.00 21.21
272.00 20.85
273.00 20.49
274.00 20.12
275.00 19.75
276.00 19.37
277.00 19.00
278.00 18.63
279.00 18.26
280.00 17.89
281.00 17.53
282.00 17.17
283.00 16.83
284.00 16.48
285.00 16.15
286.00 15.82
287.00 15.49
288.00 15.18
289.00 14.87
290.00 14.56
291.00 14.26
292.00 13.97
293.00 13.69
294.00 13.40
295.00 13.12
296.00 12.85
297.00 12.58
298.00 12.31
299.00 12.04
300.00 11.77
301.00 11.51
302.00 11.24
303.00 10.98
304.00 10.71
305.00 10.45
306.00 10.19
307.00 9.92
308.00 9.66
309.00 9.39
310.00 9.12
311.00 8.86
312.00 8.59
313.00 8.32
314.00 8.06
315.00 7.79
316.00 7.52
317.00 7.26
318.00 6.99
319.00 6.73
320.00 6.47
321.00 6.21
322.00 5.96
323.00 5.71
324.00 5.46
325.00 5.21
326.00 4.97
327.00 4.73
328.00 4.50
329.00 4.27
330.00 4.04
331.00 3.82
332.00 3.61
333.00 3.40
334.00 3.20
335.00 3.01
336.00 2.82
337.00 2.64
338.00 2.46
339.00 2.29
340.00 2.13
341.00 1.97
342.00 1.82
343.00 1.67
344.00 1.54
345.00 1.40
346.00 1.28
347.00 1.16
348.00 1.05
349.00 0.94
350.00 0.84
351.00 0.74
352.00 0.65
353.00 0.57
354.00 0.49
355.00 0.42
356.00 0.36
357.00 0.29
358.00 0.24
359.00 0.19
VERTICAL 360
0.00 10.13
1.00 6.33
2.00 3.51
3.00 1.55
4.00 0.39
5.00 0.00
6.00 0.41
7.00 1.65
8.00 3.88
9.00 7.53
10.00 14.15
11.00 27.29
12.00 17.06
13.00 12.91
14.00 12.50
15.00 14.71
16.00 20.33
17.00 24.53
18.00 18.54
19.00 15.62
20.00 15.03
21.00 16.07
22.00 18.97
23.00 26.24
24.00 35.24
25.00 21.37
26.00 17.58
27.00 16.64
28.00 17.76
29.00 21.22
30.00 30.08
31.00 35.72
32.00 24.23
33.00 20.90
34.00 19.88
35.00 20.43
36.00 22.68
37.00 27.61
38.00 35.98
39.00 30.29
40.00 25.27
41.00 23.17
42.00 22.41
43.00 22.45
44.00 23.00
45.00 23.74
46.00 24.23
47.00 24.28
48.00 24.25
49.00 24.61
50.00 25.60
51.00 27.24
52.00 29.33
53.00 31.50
54.00 32.91
55.00 32.85
56.00 32.24
57.00 32.56
58.00 34.73
59.00 39.95
60.00 47.78
61.00 42.52
62.00 38.74
63.00 37.48
64.00 37.10
65.00 36.94
66.00 37.14
67.00 38.21
68.00 40.08
69.00 40.63
70.00 38.51
71.00 36.15
72.00 34.69
73.00 34.11
74.00 34.00
75.00 33.70
76.00 32.95
77.00 32.07
78.00 31.38
79.00 30.87
80.00 30.31
81.00 29.41
82.00 28.16
83.00 26.93
84.00 26.11
85.00 25.89
86.00 26.32
87.00 27.37
88.00 28.95
89.00 30.82
90.00 32.39
91.00 32.71
92.00 31.41
93.00 29.50
94.00 28.02
95.00 27.42
96.00 27.80
97.00 29.08
98.00 31.08
99.00 33.31
100.00 35.16
101.00 36.41
102.00 37.67
103.00 39.88
104.00 44.15
105.00 53.58
106.00 56.53
107.00 48.70
108.00 45.81
109.00 44.06
110.00 42.81
111.00 42.18
112.00 42.41
113.00 43.70
114.00 46.20
115.00 49.81
116.00 54.11
117.00 56.04
118.00 52.11
119.00 48.18
120.00 46.12
121.00 45.74
122.00 46.84
123.00 49.00
124.00 50.73
125.00 50.09
126.00 48.26
127.00 47.29
128.00 47.86
129.00 49.00
130.00 47.87
131.00 45.68
132.00 45.05
133.00 46.93
134.00 53.28
135.00 54.47
136.00 46.25
137.00 42.68
138.00 40.98
139.00 39.78
140.00 38.48
141.00 37.49
142.00 37.60
143.00 39.57
144.00 45.05
145.00 50.73
146.00 43.29
147.00 40.09
148.00 39.66
149.00 40.62
150.00 41.72
151.00 41.84
152.00 41.12
153.00 40.93
154.00 42.79
155.00 46.20
156.00 42.75
157.00 38.39
158.00 36.87
159.00 37.47
160.00 39.22
161.00 40.19
162.00 39.55
163.00 38.68
164.00 38.35
165.00 38.63
166.00 38.93
167.00 38.36
168.00 37.60
169.00 38.10
170.00 40.88
171.00 47.16
172.00 48.13
173.00 43.03
174.00 41.38
175.00 41.58
176.00 42.13
177.00 42.99
178.00 47.44
179.00 54.25
180.00 41.00
181.00 36.44
182.00 35.36
183.00 37.00
184.00 41.77
185.00 51.16
186.00 62.05
187.00 54.93
188.00 45.43
189.00 42.03
190.00 42.09
191.00 43.35
192.00 42.48
193.00 41.55
194.00 42.80
195.00 44.78
196.00 43.63
197.00 40.84
198.00 38.07
199.00 35.95
200.00 34.97
201.00 34.69
202.00 34.04
203.00 33.16
204.00 33.39
205.00 35.72
206.00 40.62
207.00 42.38
208.00 39.54
209.00 39.29
210.00 41.54
211.00 44.80
212.00 47.23
213.00 47.61
214.00 43.51
215.00 39.54
216.00 37.54
217.00 37.15
218.00 37.98
219.00 39.69
220.00 42.03
221.00 45.18
222.00 49.46
223.00 50.32
224.00 46.44
225.00 44.54
226.00 45.65
227.00 51.66
228.00 53.99
229.00 45.30
230.00 42.27
231.00 42.01
232.00 43.79
233.00 47.18
234.00 49.48
235.00 46.63
236.00 42.76
237.00 39.96
238.00 38.17
239.00 37.24
240.00 37.14
241.00 37.97
242.00 40.00
243.00 43.87
244.00 49.62
245.00 47.89
246.00 43.43
247.00 41.70
248.00 41.91
249.00 43.28
250.00 44.17
251.00 43.08
252.00 40.96
253.00 38.72
254.00 36.65
255.00 35.02
256.00 34.23
257.00 34.70
258.00 36.96
259.00 42.18
260.00 51.49
261.00 47.79
262.00 44.18
263.00 42.30
264.00 40.18
265.00 38.66
266.00 38.05
267.00 37.76
268.00 37.31
269.00 36.58
270.00 35.34
271.00 33.49
272.00 31.54
273.00 30.01
274.00 29.14
275.00 28.97
276.00 29.38
277.00 30.10
278.00 30.72
279.00 30.87
280.00 30.46
281.00 29.82
282.00 29.35
283.00 29.27
284.00 29.60
285.00 30.28
286.00 31.32
287.00 32.85
288.00 35.26
289.00 39.66
290.00 56.24
291.00 45.61
292.00 36.98
293.00 32.60
294.00 29.54
295.00 27.31
296.00 25.79
297.00 24.93
298.00 24.67
299.00 24.96
300.00 25.65
301.00 26.46
302.00 26.95
303.00 26.87
304.00 26.45
305.00 26.11
306.00 26.15
307.00 26.73
308.00 27.97
309.00 30.04
310.00 33.50
311.00 39.93
312.00 38.33
313.00 30.23
314.00 25.52
315.00 22.55
316.00 20.68
317.00 19.56
318.00 18.94
319.00 18.64
320.00 18.52
321.00 18.53
322.00 18.54
323.00 18.23
324.00 17.42
325.00 16.43
326.00 15.68
327.00 15.44
328.00 15.63
329.00 15.99
330.00 16.23
331.00 16.26
332.00 16.38
333.00 17.00
334.00 18.58
335.00 21.88
336.00 29.53
337.00 36.52
338.00 25.26
339.00 22.01
340.00 21.65
341.00 23.83
342.00 30.89
343.00 39.96
344.00 25.73
345.00 21.87
346.00 20.75
347.00 21.58
348.00 24.55
349.00 28.37
350.00 25.35
351.00 21.25
352.00 19.59
353.00 20.10
354.00 23.02
355.00 29.18
356.00 32.25
357.00 26.99
358.00 21.18
359.00 15.12
