NAME ATR4518R7_1880_X_CO_P45_08T_yyR
FREQUENCY 1880
GAIN 14.56 dBd
TILT	ELECTRICAL
COMMENT DATE 05.08.2013 +45 degrees polarized system Lever position 08T deg
HORIZONTAL 360
0.00 0.10
1.00 0.07
2.00 0.05
3.00 0.03
4.00 0.01
5.00 0.00
6.00 0.00
7.00 0.00
8.00 0.01
9.00 0.03
10.00 0.05
11.00 0.09
12.00 0.13
13.00 0.17
14.00 0.23
15.00 0.30
16.00 0.38
17.00 0.47
18.00 0.57
19.00 0.68
20.00 0.80
21.00 0.93
22.00 1.08
23.00 1.23
24.00 1.40
25.00 1.57
26.00 1.76
27.00 1.96
28.00 2.16
29.00 2.38
30.00 2.60
31.00 2.84
32.00 3.08
33.00 3.32
34.00 3.58
35.00 3.84
36.00 4.10
37.00 4.37
38.00 4.64
39.00 4.91
40.00 5.19
41.00 5.47
42.00 5.74
43.00 6.02
44.00 6.30
45.00 6.58
46.00 6.85
47.00 7.13
48.00 7.41
49.00 7.69
50.00 7.96
51.00 8.24
52.00 8.52
53.00 8.80
54.00 9.07
55.00 9.35
56.00 9.63
57.00 9.91
58.00 10.20
59.00 10.48
60.00 10.76
61.00 11.04
62.00 11.32
63.00 11.60
64.00 11.89
65.00 12.17
66.00 12.45
67.00 12.73
68.00 13.01
69.00 13.29
70.00 13.57
71.00 13.86
72.00 14.14
73.00 14.43
74.00 14.73
75.00 15.03
76.00 15.34
77.00 15.66
78.00 15.99
79.00 16.32
80.00 16.67
81.00 17.04
82.00 17.41
83.00 17.80
84.00 18.20
85.00 18.61
86.00 19.03
87.00 19.47
88.00 19.91
89.00 20.36
90.00 20.82
91.00 21.28
92.00 21.74
93.00 22.19
94.00 22.63
95.00 23.07
96.00 23.48
97.00 23.89
98.00 24.27
99.00 24.63
100.00 24.98
101.00 25.32
102.00 25.64
103.00 25.96
104.00 26.28
105.00 26.61
106.00 26.95
107.00 27.30
108.00 27.67
109.00 28.07
110.00 28.49
111.00 28.93
112.00 29.40
113.00 29.89
114.00 30.38
115.00 30.88
116.00 31.35
117.00 31.78
118.00 32.15
119.00 32.43
120.00 32.61
121.00 32.69
122.00 32.68
123.00 32.58
124.00 32.43
125.00 32.25
126.00 32.05
127.00 31.87
128.00 31.71
129.00 31.58
130.00 31.49
131.00 31.45
132.00 31.46
133.00 31.52
134.00 31.63
135.00 31.80
136.00 32.01
137.00 32.29
138.00 32.61
139.00 32.98
140.00 33.39
141.00 33.85
142.00 34.34
143.00 34.86
144.00 35.40
145.00 35.93
146.00 36.45
147.00 36.94
148.00 37.37
149.00 37.72
150.00 37.98
151.00 38.14
152.00 38.19
153.00 38.16
154.00 38.05
155.00 37.88
156.00 37.68
157.00 37.45
158.00 37.21
159.00 36.98
160.00 36.75
161.00 36.54
162.00 36.35
163.00 36.19
164.00 36.05
165.00 35.94
166.00 35.85
167.00 35.79
168.00 35.76
169.00 35.75
170.00 35.77
171.00 35.79
172.00 35.82
173.00 35.86
174.00 35.88
175.00 35.88
176.00 35.87
177.00 35.82
178.00 35.74
179.00 35.63
180.00 35.50
181.00 35.34
182.00 35.17
183.00 35.01
184.00 34.85
185.00 34.71
186.00 34.61
187.00 34.55
188.00 34.53
189.00 34.57
190.00 34.67
191.00 34.84
192.00 35.07
193.00 35.38
194.00 35.77
195.00 36.23
196.00 36.75
197.00 37.32
198.00 37.90
199.00 38.42
200.00 38.80
201.00 38.94
202.00 38.77
203.00 38.31
204.00 37.61
205.00 36.79
206.00 35.92
207.00 35.06
208.00 34.25
209.00 33.49
210.00 32.81
211.00 32.19
212.00 31.65
213.00 31.17
214.00 30.74
215.00 30.38
216.00 30.06
217.00 29.79
218.00 29.56
219.00 29.36
220.00 29.19
221.00 29.04
222.00 28.91
223.00 28.79
224.00 28.67
225.00 28.55
226.00 28.43
227.00 28.29
228.00 28.15
229.00 27.99
230.00 27.81
231.00 27.63
232.00 27.43
233.00 27.22
234.00 27.02
235.00 26.81
236.00 26.60
237.00 26.40
238.00 26.21
239.00 26.04
240.00 25.87
241.00 25.73
242.00 25.60
243.00 25.49
244.00 25.40
245.00 25.32
246.00 25.27
247.00 25.24
248.00 25.22
249.00 25.22
250.00 25.24
251.00 25.27
252.00 25.32
253.00 25.37
254.00 25.44
255.00 25.52
256.00 25.60
257.00 25.68
258.00 25.76
259.00 25.84
260.00 25.92
261.00 25.98
262.00 26.03
263.00 26.07
264.00 26.09
265.00 26.08
266.00 26.04
267.00 25.97
268.00 25.87
269.00 25.74
270.00 25.57
271.00 25.36
272.00 25.11
273.00 24.84
274.00 24.53
275.00 24.19
276.00 23.82
277.00 23.43
278.00 23.02
279.00 22.60
280.00 22.16
281.00 21.71
282.00 21.26
283.00 20.80
284.00 20.34
285.00 19.88
286.00 19.41
287.00 18.95
288.00 18.50
289.00 18.04
290.00 17.59
291.00 17.14
292.00 16.70
293.00 16.26
294.00 15.83
295.00 15.40
296.00 14.97
297.00 14.55
298.00 14.13
299.00 13.72
300.00 13.31
301.00 12.90
302.00 12.50
303.00 12.10
304.00 11.70
305.00 11.31
306.00 10.92
307.00 10.53
308.00 10.15
309.00 9.77
310.00 9.40
311.00 9.03
312.00 8.66
313.00 8.31
314.00 7.95
315.00 7.60
316.00 7.26
317.00 6.92
318.00 6.59
319.00 6.27
320.00 5.96
321.00 5.65
322.00 5.35
323.00 5.06
324.00 4.78
325.00 4.51
326.00 4.24
327.00 3.99
328.00 3.74
329.00 3.51
330.00 3.28
331.00 3.06
332.00 2.86
333.00 2.66
334.00 2.47
335.00 2.29
336.00 2.12
337.00 1.96
338.00 1.81
339.00 1.67
340.00 1.54
341.00 1.41
342.00 1.29
343.00 1.18
344.00 1.08
345.00 0.98
346.00 0.89
347.00 0.80
348.00 0.72
349.00 0.65
350.00 0.58
351.00 0.51
352.00 0.45
353.00 0.40
354.00 0.34
355.00 0.29
356.00 0.25
357.00 0.21
358.00 0.17
359.00 0.13
VERTICAL 360
0.00 25.01
1.00 20.45
2.00 13.73
3.00 8.69
4.00 5.09
5.00 2.57
6.00 0.96
7.00 0.13
8.00 0.06
9.00 0.70
10.00 2.10
11.00 4.40
12.00 7.99
13.00 14.17
14.00 28.36
15.00 19.04
16.00 14.24
17.00 13.30
18.00 14.61
19.00 18.44
20.00 26.52
21.00 25.65
22.00 19.86
23.00 18.15
24.00 18.83
25.00 21.90
26.00 29.99
27.00 37.55
28.00 25.02
29.00 21.28
30.00 19.74
31.00 19.55
32.00 20.74
33.00 24.16
34.00 37.99
35.00 31.33
36.00 22.95
37.00 20.04
38.00 19.42
39.00 20.51
40.00 23.17
41.00 26.95
42.00 29.34
43.00 28.73
44.00 27.57
45.00 26.55
46.00 25.90
47.00 25.95
48.00 26.44
49.00 26.51
50.00 26.00
51.00 25.69
52.00 26.06
53.00 26.99
54.00 28.15
55.00 29.28
56.00 30.43
57.00 31.69
58.00 32.13
59.00 30.74
60.00 28.87
61.00 27.73
62.00 27.37
63.00 27.47
64.00 27.75
65.00 28.18
66.00 28.93
67.00 30.15
68.00 31.68
69.00 32.96
70.00 33.36
71.00 33.01
72.00 32.47
73.00 32.18
74.00 32.15
75.00 31.94
76.00 31.26
77.00 30.34
78.00 29.52
79.00 28.90
80.00 28.37
81.00 27.63
82.00 26.59
83.00 25.63
84.00 25.20
85.00 25.50
86.00 26.50
87.00 27.96
88.00 29.17
89.00 29.22
90.00 28.30
91.00 27.35
92.00 26.81
93.00 26.62
94.00 26.66
95.00 26.86
96.00 27.26
97.00 27.94
98.00 29.05
99.00 30.71
100.00 32.91
101.00 35.49
102.00 38.15
103.00 40.26
104.00 41.47
105.00 42.40
106.00 43.18
107.00 42.81
108.00 41.24
109.00 39.31
110.00 37.59
111.00 36.40
112.00 35.94
113.00 36.23
114.00 37.23
115.00 38.65
116.00 40.05
117.00 41.50
118.00 43.88
119.00 48.16
120.00 54.27
121.00 56.52
122.00 53.43
123.00 49.05
124.00 45.34
125.00 43.07
126.00 42.36
127.00 43.12
128.00 44.25
129.00 43.70
130.00 42.43
131.00 41.52
132.00 40.07
133.00 37.95
134.00 36.22
135.00 35.32
136.00 35.16
137.00 35.48
138.00 36.00
139.00 36.40
140.00 36.43
141.00 35.95
142.00 35.11
143.00 34.35
144.00 34.06
145.00 34.49
146.00 35.66
147.00 37.32
148.00 38.66
149.00 38.98
150.00 39.20
151.00 41.12
152.00 48.36
153.00 49.40
154.00 39.49
155.00 35.73
156.00 34.14
157.00 33.83
158.00 34.71
159.00 37.14
160.00 41.41
161.00 45.02
162.00 45.12
163.00 47.00
164.00 48.08
165.00 42.08
166.00 37.35
167.00 34.41
168.00 32.79
169.00 32.11
170.00 31.95
171.00 32.10
172.00 33.33
173.00 36.64
174.00 43.44
175.00 55.72
176.00 52.54
177.00 44.32
178.00 40.45
179.00 41.02
180.00 48.64
181.00 44.08
182.00 37.19
183.00 35.52
184.00 36.85
185.00 41.42
186.00 52.92
187.00 44.59
188.00 37.91
189.00 35.32
190.00 35.09
191.00 36.98
192.00 41.27
193.00 46.68
194.00 43.34
195.00 39.36
196.00 37.83
197.00 38.02
198.00 38.91
199.00 38.48
200.00 36.14
201.00 33.59
202.00 31.78
203.00 30.91
204.00 30.96
205.00 31.86
206.00 33.53
207.00 35.97
208.00 39.49
209.00 44.84
210.00 46.54
211.00 40.79
212.00 37.08
213.00 35.04
214.00 34.22
215.00 34.56
216.00 36.26
217.00 39.72
218.00 44.90
219.00 47.07
220.00 45.67
221.00 46.17
222.00 46.99
223.00 44.88
224.00 42.93
225.00 43.29
226.00 46.72
227.00 51.52
228.00 48.22
229.00 46.62
230.00 50.08
231.00 52.51
232.00 44.59
233.00 41.48
234.00 41.92
235.00 46.93
236.00 54.12
237.00 42.66
238.00 38.25
239.00 36.48
240.00 36.33
241.00 37.63
242.00 40.70
243.00 46.48
244.00 49.38
245.00 43.76
246.00 40.67
247.00 39.02
248.00 37.81
249.00 36.74
250.00 35.80
251.00 35.08
252.00 34.75
253.00 34.88
254.00 35.23
255.00 35.29
256.00 34.58
257.00 33.27
258.00 32.11
259.00 31.74
260.00 32.33
261.00 33.82
262.00 36.14
263.00 38.92
264.00 38.69
265.00 35.41
266.00 33.16
267.00 32.28
268.00 32.19
269.00 32.32
270.00 32.32
271.00 32.23
272.00 32.48
273.00 33.64
274.00 36.10
275.00 39.74
276.00 43.03
277.00 42.65
278.00 39.58
279.00 36.95
280.00 35.29
281.00 34.29
282.00 33.80
283.00 33.97
284.00 34.75
285.00 35.61
286.00 36.18
287.00 36.85
288.00 38.39
289.00 40.68
290.00 38.95
291.00 33.81
292.00 29.92
293.00 27.32
294.00 25.56
295.00 24.33
296.00 23.46
297.00 22.88
298.00 22.65
299.00 22.86
300.00 23.54
301.00 24.58
302.00 25.74
303.00 26.84
304.00 28.12
305.00 30.42
306.00 34.71
307.00 34.80
308.00 28.92
309.00 25.37
310.00 23.64
311.00 23.13
312.00 23.58
313.00 25.10
314.00 28.53
315.00 36.78
316.00 32.46
317.00 24.62
318.00 20.82
319.00 18.84
320.00 18.06
321.00 18.29
322.00 19.60
323.00 22.10
324.00 24.14
325.00 21.75
326.00 18.27
327.00 15.98
328.00 14.79
329.00 14.44
330.00 14.80
331.00 15.84
332.00 17.64
333.00 20.28
334.00 23.53
335.00 25.72
336.00 25.70
337.00 25.19
338.00 24.21
339.00 22.04
340.00 19.87
341.00 18.79
342.00 19.25
343.00 21.79
344.00 28.57
345.00 43.65
346.00 26.16
347.00 22.51
348.00 21.74
349.00 22.90
350.00 25.93
351.00 28.32
352.00 24.62
353.00 21.04
354.00 19.57
355.00 20.18
356.00 23.46
357.00 31.38
358.00 30.74
359.00 25.87
