NAME ATR4518R7_2350_X_CO_M45_07T_yyR
FREQUENCY 2350
GAIN 15.02 dBd
TILT	ELECTRICAL
COMMENT DATE 05.08.2013 -45 degrees polarized system Lever position 07T deg
HORIZONTAL 360
0.00 0.01
1.00 0.02
2.00 0.04
3.00 0.06
4.00 0.10
5.00 0.14
6.00 0.20
7.00 0.26
8.00 0.32
9.00 0.40
10.00 0.48
11.00 0.56
12.00 0.66
13.00 0.76
14.00 0.86
15.00 0.97
16.00 1.08
17.00 1.20
18.00 1.32
19.00 1.44
20.00 1.57
21.00 1.71
22.00 1.85
23.00 1.99
24.00 2.14
25.00 2.29
26.00 2.45
27.00 2.62
28.00 2.80
29.00 2.98
30.00 3.17
31.00 3.37
32.00 3.58
33.00 3.80
34.00 4.04
35.00 4.28
36.00 4.54
37.00 4.80
38.00 5.09
39.00 5.38
40.00 5.69
41.00 6.01
42.00 6.34
43.00 6.69
44.00 7.05
45.00 7.42
46.00 7.81
47.00 8.20
48.00 8.61
49.00 9.03
50.00 9.45
51.00 9.89
52.00 10.34
53.00 10.79
54.00 11.26
55.00 11.73
56.00 12.20
57.00 12.68
58.00 13.17
59.00 13.66
60.00 14.16
61.00 14.67
62.00 15.18
63.00 15.71
64.00 16.24
65.00 16.78
66.00 17.33
67.00 17.90
68.00 18.48
69.00 19.09
70.00 19.71
71.00 20.34
72.00 21.01
73.00 21.70
74.00 22.41
75.00 23.15
76.00 23.92
77.00 24.72
78.00 25.54
79.00 26.39
80.00 27.25
81.00 28.12
82.00 28.98
83.00 29.82
84.00 30.61
85.00 31.33
86.00 31.95
87.00 32.47
88.00 32.86
89.00 33.13
90.00 33.28
91.00 33.33
92.00 33.31
93.00 33.21
94.00 33.06
95.00 32.86
96.00 32.62
97.00 32.35
98.00 32.06
99.00 31.74
100.00 31.43
101.00 31.12
102.00 30.81
103.00 30.54
104.00 30.29
105.00 30.09
106.00 29.93
107.00 29.83
108.00 29.78
109.00 29.80
110.00 29.88
111.00 30.04
112.00 30.27
113.00 30.59
114.00 30.99
115.00 31.48
116.00 32.07
117.00 32.75
118.00 33.54
119.00 34.42
120.00 35.39
121.00 36.41
122.00 37.43
123.00 38.35
124.00 39.03
125.00 39.38
126.00 39.38
127.00 39.10
128.00 38.67
129.00 38.21
130.00 37.79
131.00 37.45
132.00 37.20
133.00 37.05
134.00 36.99
135.00 37.01
136.00 37.08
137.00 37.17
138.00 37.27
139.00 37.33
140.00 37.33
141.00 37.25
142.00 37.09
143.00 36.87
144.00 36.61
145.00 36.34
146.00 36.10
147.00 35.91
148.00 35.79
149.00 35.76
150.00 35.84
151.00 36.03
152.00 36.37
153.00 36.86
154.00 37.54
155.00 38.43
156.00 39.59
157.00 41.12
158.00 43.15
159.00 46.00
160.00 50.44
161.00 58.98
162.00 56.56
163.00 49.35
164.00 45.45
165.00 42.88
166.00 41.05
167.00 39.68
168.00 38.66
169.00 37.90
170.00 37.36
171.00 37.00
172.00 36.81
173.00 36.78
174.00 36.90
175.00 37.16
176.00 37.57
177.00 38.13
178.00 38.85
179.00 39.73
180.00 40.80
181.00 42.09
182.00 43.62
183.00 45.48
184.00 47.70
185.00 50.49
186.00 54.07
187.00 58.91
188.00 64.53
189.00 63.16
190.00 59.48
191.00 57.26
192.00 55.97
193.00 55.12
194.00 54.32
195.00 53.27
196.00 51.89
197.00 50.27
198.00 48.61
199.00 47.04
200.00 45.62
201.00 44.37
202.00 43.31
203.00 42.41
204.00 41.69
205.00 41.12
206.00 40.70
207.00 40.42
208.00 40.30
209.00 40.31
210.00 40.48
211.00 40.80
212.00 41.30
213.00 41.98
214.00 42.89
215.00 44.07
216.00 45.60
217.00 47.63
218.00 50.46
219.00 54.82
220.00 63.24
221.00 61.55
222.00 54.01
223.00 49.93
224.00 47.19
225.00 45.15
226.00 43.54
227.00 42.21
228.00 41.08
229.00 40.08
230.00 39.19
231.00 38.38
232.00 37.64
233.00 36.95
234.00 36.30
235.00 35.70
236.00 35.14
237.00 34.64
238.00 34.17
239.00 33.76
240.00 33.40
241.00 33.09
242.00 32.84
243.00 32.65
244.00 32.50
245.00 32.41
246.00 32.36
247.00 32.35
248.00 32.36
249.00 32.39
250.00 32.41
251.00 32.39
252.00 32.32
253.00 32.17
254.00 31.92
255.00 31.58
256.00 31.14
257.00 30.62
258.00 30.04
259.00 29.44
260.00 28.81
261.00 28.19
262.00 27.58
263.00 26.99
264.00 26.43
265.00 25.89
266.00 25.38
267.00 24.89
268.00 24.42
269.00 23.97
270.00 23.54
271.00 23.11
272.00 22.69
273.00 22.27
274.00 21.85
275.00 21.43
276.00 20.99
277.00 20.55
278.00 20.10
279.00 19.65
280.00 19.18
281.00 18.71
282.00 18.24
283.00 17.76
284.00 17.28
285.00 16.80
286.00 16.33
287.00 15.86
288.00 15.39
289.00 14.93
290.00 14.48
291.00 14.03
292.00 13.60
293.00 13.16
294.00 12.74
295.00 12.32
296.00 11.92
297.00 11.52
298.00 11.13
299.00 10.74
300.00 10.37
301.00 9.99
302.00 9.63
303.00 9.27
304.00 8.92
305.00 8.58
306.00 8.24
307.00 7.91
308.00 7.58
309.00 7.26
310.00 6.94
311.00 6.64
312.00 6.34
313.00 6.05
314.00 5.76
315.00 5.48
316.00 5.21
317.00 4.95
318.00 4.70
319.00 4.45
320.00 4.21
321.00 3.98
322.00 3.76
323.00 3.55
324.00 3.35
325.00 3.15
326.00 2.96
327.00 2.78
328.00 2.61
329.00 2.45
330.00 2.29
331.00 2.14
332.00 2.00
333.00 1.86
334.00 1.73
335.00 1.61
336.00 1.49
337.00 1.38
338.00 1.27
339.00 1.17
340.00 1.07
341.00 0.97
342.00 0.88
343.00 0.79
344.00 0.71
345.00 0.63
346.00 0.55
347.00 0.48
348.00 0.41
349.00 0.34
350.00 0.29
351.00 0.23
352.00 0.18
353.00 0.13
354.00 0.10
355.00 0.06
356.00 0.04
357.00 0.02
358.00 0.01
359.00 0.00
VERTICAL 360
0.00 40.77
1.00 22.52
2.00 13.46
3.00 7.88
4.00 4.12
5.00 1.67
6.00 0.32
7.00 0.00
8.00 0.76
9.00 2.82
10.00 6.79
11.00 15.38
12.00 25.25
13.00 12.94
14.00 10.66
15.00 11.48
16.00 14.99
17.00 20.32
18.00 18.22
19.00 14.92
20.00 14.30
21.00 15.89
22.00 19.42
23.00 21.78
24.00 19.48
25.00 18.06
26.00 19.31
27.00 25.02
28.00 44.21
29.00 22.39
30.00 18.33
31.00 17.34
32.00 18.33
33.00 21.26
34.00 26.76
35.00 32.03
36.00 28.19
37.00 26.26
38.00 27.31
39.00 31.82
40.00 41.78
41.00 33.11
42.00 27.77
43.00 25.61
44.00 25.33
45.00 26.89
46.00 30.59
47.00 33.54
48.00 30.27
49.00 27.63
50.00 26.71
51.00 26.82
52.00 27.48
53.00 28.49
54.00 29.52
55.00 29.65
56.00 28.47
57.00 27.28
58.00 26.99
59.00 27.73
60.00 29.37
61.00 31.79
62.00 35.20
63.00 40.60
64.00 47.61
65.00 43.13
66.00 39.49
67.00 38.31
68.00 38.07
69.00 37.90
70.00 37.58
71.00 37.28
72.00 36.92
73.00 35.99
74.00 34.43
75.00 32.86
76.00 31.72
77.00 30.95
78.00 30.42
79.00 30.14
80.00 30.24
81.00 30.57
82.00 30.71
83.00 30.35
84.00 29.78
85.00 29.76
86.00 31.03
87.00 34.03
88.00 37.49
89.00 36.35
90.00 32.75
91.00 29.77
92.00 27.95
93.00 27.45
94.00 28.12
95.00 29.52
96.00 30.85
97.00 31.53
98.00 31.77
99.00 32.19
100.00 33.19
101.00 34.69
102.00 36.07
103.00 36.78
104.00 37.23
105.00 38.33
106.00 40.66
107.00 43.87
108.00 45.61
109.00 44.88
110.00 43.69
111.00 43.83
112.00 47.28
113.00 55.82
114.00 48.21
115.00 44.18
116.00 43.81
117.00 45.67
118.00 48.90
119.00 48.09
120.00 44.70
121.00 44.20
122.00 47.69
123.00 59.63
124.00 54.06
125.00 49.18
126.00 47.84
127.00 45.96
128.00 42.68
129.00 39.36
130.00 37.05
131.00 35.86
132.00 35.55
133.00 35.90
134.00 37.08
135.00 39.64
136.00 44.16
137.00 48.34
138.00 44.72
139.00 40.27
140.00 37.58
141.00 36.99
142.00 39.06
143.00 44.25
144.00 43.45
145.00 39.11
146.00 37.83
147.00 38.70
148.00 42.10
149.00 48.60
150.00 43.56
151.00 39.45
152.00 39.45
153.00 41.78
154.00 42.35
155.00 42.06
156.00 46.81
157.00 58.21
158.00 42.95
159.00 39.97
160.00 39.07
161.00 37.79
162.00 37.24
163.00 39.04
164.00 43.99
165.00 46.14
166.00 41.40
167.00 38.93
168.00 38.66
169.00 40.29
170.00 43.32
171.00 45.80
172.00 43.86
173.00 39.73
174.00 36.74
175.00 35.26
176.00 35.07
177.00 35.82
178.00 36.70
179.00 37.14
180.00 37.50
181.00 38.12
182.00 39.01
183.00 40.42
184.00 42.16
185.00 42.84
186.00 41.74
187.00 40.55
188.00 40.91
189.00 43.42
190.00 46.83
191.00 48.26
192.00 46.53
193.00 41.34
194.00 37.58
195.00 35.85
196.00 35.60
197.00 36.26
198.00 36.95
199.00 36.24
200.00 33.79
201.00 31.10
202.00 29.27
203.00 28.53
204.00 28.81
205.00 29.85
206.00 31.10
207.00 31.48
208.00 30.50
209.00 29.23
210.00 28.66
211.00 29.11
212.00 30.54
213.00 32.59
214.00 34.62
215.00 36.25
216.00 38.09
217.00 40.39
218.00 41.47
219.00 42.49
220.00 49.06
221.00 55.77
222.00 44.94
223.00 45.45
224.00 51.96
225.00 45.65
226.00 39.65
227.00 36.41
228.00 34.72
229.00 34.43
230.00 35.26
231.00 36.57
232.00 37.62
233.00 38.42
234.00 39.38
235.00 39.46
236.00 38.01
237.00 37.18
238.00 38.41
239.00 42.01
240.00 43.96
241.00 40.57
242.00 38.08
243.00 36.88
244.00 36.59
245.00 37.19
246.00 38.81
247.00 41.40
248.00 44.08
249.00 45.27
250.00 44.90
251.00 42.71
252.00 40.39
253.00 38.91
254.00 37.72
255.00 36.87
256.00 36.74
257.00 37.19
258.00 38.48
259.00 40.43
260.00 40.12
261.00 38.99
262.00 40.00
263.00 42.36
264.00 43.24
265.00 41.04
266.00 38.17
267.00 37.77
268.00 39.23
269.00 37.43
270.00 34.90
271.00 34.80
272.00 36.21
273.00 36.63
274.00 34.65
275.00 32.10
276.00 30.57
277.00 30.29
278.00 30.64
279.00 30.53
280.00 29.50
281.00 28.18
282.00 27.26
283.00 26.87
284.00 26.60
285.00 26.08
286.00 25.11
287.00 23.70
288.00 22.01
289.00 20.36
290.00 19.06
291.00 18.19
292.00 17.64
293.00 17.15
294.00 16.56
295.00 15.89
296.00 15.29
297.00 14.86
298.00 14.66
299.00 14.74
300.00 15.18
301.00 16.14
302.00 17.86
303.00 20.82
304.00 26.37
305.00 38.16
306.00 28.81
307.00 23.44
308.00 21.12
309.00 20.07
310.00 19.71
311.00 19.97
312.00 21.00
313.00 22.80
314.00 24.17
315.00 23.55
316.00 22.58
317.00 22.98
318.00 25.35
319.00 28.70
320.00 26.95
321.00 23.19
322.00 21.19
323.00 20.87
324.00 22.32
325.00 26.61
326.00 34.34
327.00 26.47
328.00 21.47
329.00 19.65
330.00 19.83
331.00 21.35
332.00 22.01
333.00 19.58
334.00 16.69
335.00 14.81
336.00 14.04
337.00 14.30
338.00 15.47
339.00 17.33
340.00 19.68
341.00 22.61
342.00 25.78
343.00 25.92
344.00 23.00
345.00 20.54
346.00 19.43
347.00 20.09
348.00 23.42
349.00 31.62
350.00 28.19
351.00 22.07
352.00 19.83
353.00 19.57
354.00 20.83
355.00 23.72
356.00 28.69
357.00 33.07
358.00 30.65
359.00 30.61
