NAME ATR4518R7_2655_X_CO_M45_07T_yyR
FREQUENCY 2655
GAIN 16.06 dBd
TILT	ELECTRICAL
COMMENT DATE 05.08.2013 -45 degrees polarized system Lever position 07T deg
HORIZONTAL 360
0.00 0.01
1.00 0.00
2.00 0.01
3.00 0.02
4.00 0.05
5.00 0.10
6.00 0.16
7.00 0.22
8.00 0.30
9.00 0.40
10.00 0.51
11.00 0.63
12.00 0.76
13.00 0.91
14.00 1.05
15.00 1.22
16.00 1.38
17.00 1.55
18.00 1.72
19.00 1.89
20.00 2.06
21.00 2.23
22.00 2.40
23.00 2.56
24.00 2.72
25.00 2.88
26.00 3.04
27.00 3.19
28.00 3.35
29.00 3.50
30.00 3.66
31.00 3.83
32.00 4.00
33.00 4.17
34.00 4.36
35.00 4.56
36.00 4.78
37.00 5.00
38.00 5.24
39.00 5.49
40.00 5.76
41.00 6.04
42.00 6.35
43.00 6.67
44.00 7.00
45.00 7.37
46.00 7.75
47.00 8.16
48.00 8.57
49.00 9.01
50.00 9.46
51.00 9.92
52.00 10.40
53.00 10.90
54.00 11.41
55.00 11.95
56.00 12.50
57.00 13.07
58.00 13.67
59.00 14.28
60.00 14.91
61.00 15.57
62.00 16.25
63.00 16.96
64.00 17.66
65.00 18.39
66.00 19.12
67.00 19.85
68.00 20.56
69.00 21.25
70.00 21.92
71.00 22.56
72.00 23.15
73.00 23.71
74.00 24.24
75.00 24.76
76.00 25.28
77.00 25.80
78.00 26.37
79.00 26.98
80.00 27.67
81.00 28.44
82.00 29.30
83.00 30.24
84.00 31.24
85.00 32.26
86.00 33.21
87.00 33.93
88.00 34.27
89.00 34.18
90.00 33.76
91.00 33.18
92.00 32.55
93.00 31.99
94.00 31.54
95.00 31.21
96.00 31.02
97.00 30.98
98.00 31.07
99.00 31.31
100.00 31.68
101.00 32.19
102.00 32.82
103.00 33.55
104.00 34.33
105.00 35.08
106.00 35.69
107.00 36.04
108.00 36.07
109.00 35.80
110.00 35.36
111.00 34.85
112.00 34.38
113.00 34.01
114.00 33.76
115.00 33.67
116.00 33.74
117.00 33.99
118.00 34.43
119.00 35.10
120.00 36.02
121.00 37.26
122.00 38.92
123.00 41.17
124.00 44.40
125.00 49.59
126.00 57.10
127.00 50.43
128.00 45.14
129.00 41.95
130.00 39.80
131.00 38.28
132.00 37.17
133.00 36.38
134.00 35.84
135.00 35.51
136.00 35.37
137.00 35.40
138.00 35.58
139.00 35.90
140.00 36.35
141.00 36.92
142.00 37.61
143.00 38.40
144.00 39.28
145.00 40.23
146.00 41.25
147.00 42.33
148.00 43.46
149.00 44.67
150.00 45.95
151.00 47.30
152.00 48.67
153.00 49.75
154.00 50.00
155.00 49.14
156.00 47.55
157.00 45.78
158.00 44.12
159.00 42.67
160.00 41.42
161.00 40.39
162.00 39.54
163.00 38.86
164.00 38.35
165.00 37.99
166.00 37.77
167.00 37.71
168.00 37.77
169.00 38.00
170.00 38.36
171.00 38.90
172.00 39.60
173.00 40.51
174.00 41.64
175.00 43.05
176.00 44.78
177.00 46.88
178.00 49.34
179.00 51.67
180.00 52.45
181.00 51.17
182.00 49.31
183.00 47.72
184.00 46.55
185.00 45.78
186.00 45.38
187.00 45.28
188.00 45.49
189.00 45.96
190.00 46.66
191.00 47.45
192.00 48.04
193.00 47.98
194.00 47.10
195.00 45.67
196.00 44.10
197.00 42.61
198.00 41.29
199.00 40.16
200.00 39.21
201.00 38.42
202.00 37.78
203.00 37.24
204.00 36.80
205.00 36.44
206.00 36.14
207.00 35.89
208.00 35.66
209.00 35.45
210.00 35.26
211.00 35.08
212.00 34.93
213.00 34.81
214.00 34.72
215.00 34.69
216.00 34.71
217.00 34.80
218.00 34.95
219.00 35.16
220.00 35.41
221.00 35.69
222.00 35.93
223.00 36.09
224.00 36.12
225.00 35.97
226.00 35.65
227.00 35.18
228.00 34.61
229.00 34.01
230.00 33.43
231.00 32.90
232.00 32.43
233.00 32.05
234.00 31.76
235.00 31.57
236.00 31.46
237.00 31.45
238.00 31.52
239.00 31.67
240.00 31.91
241.00 32.21
242.00 32.57
243.00 32.98
244.00 33.43
245.00 33.90
246.00 34.38
247.00 34.84
248.00 35.28
249.00 35.70
250.00 36.10
251.00 36.48
252.00 36.87
253.00 37.27
254.00 37.71
255.00 38.20
256.00 38.76
257.00 39.37
258.00 40.02
259.00 40.66
260.00 41.17
261.00 41.43
262.00 41.29
263.00 40.75
264.00 39.86
265.00 38.79
266.00 37.64
267.00 36.51
268.00 35.43
269.00 34.40
270.00 33.46
271.00 32.57
272.00 31.74
273.00 30.97
274.00 30.23
275.00 29.55
276.00 28.88
277.00 28.24
278.00 27.64
279.00 27.04
280.00 26.46
281.00 25.89
282.00 25.32
283.00 24.77
284.00 24.22
285.00 23.69
286.00 23.14
287.00 22.62
288.00 22.09
289.00 21.58
290.00 21.06
291.00 20.57
292.00 20.07
293.00 19.58
294.00 19.11
295.00 18.64
296.00 18.19
297.00 17.73
298.00 17.29
299.00 16.86
300.00 16.42
301.00 15.99
302.00 15.56
303.00 15.13
304.00 14.69
305.00 14.26
306.00 13.81
307.00 13.37
308.00 12.91
309.00 12.45
310.00 11.98
311.00 11.52
312.00 11.06
313.00 10.61
314.00 10.14
315.00 9.67
316.00 9.20
317.00 8.73
318.00 8.27
319.00 7.82
320.00 7.37
321.00 6.93
322.00 6.50
323.00 6.09
324.00 5.69
325.00 5.30
326.00 4.93
327.00 4.56
328.00 4.22
329.00 3.90
330.00 3.60
331.00 3.30
332.00 3.04
333.00 2.79
334.00 2.54
335.00 2.33
336.00 2.12
337.00 1.94
338.00 1.76
339.00 1.60
340.00 1.46
341.00 1.33
342.00 1.20
343.00 1.10
344.00 0.99
345.00 0.89
346.00 0.80
347.00 0.72
348.00 0.64
349.00 0.57
350.00 0.49
351.00 0.42
352.00 0.36
353.00 0.29
354.00 0.24
355.00 0.19
356.00 0.14
357.00 0.10
358.00 0.06
359.00 0.03
VERTICAL 360
0.00 22.59
1.00 30.33
2.00 22.72
3.00 11.30
4.00 5.62
5.00 2.27
6.00 0.48
7.00 0.00
8.00 0.81
9.00 3.14
10.00 7.80
11.00 19.64
12.00 20.57
13.00 13.72
14.00 14.24
15.00 20.83
16.00 23.21
17.00 14.84
18.00 13.02
19.00 14.97
20.00 21.82
21.00 23.25
22.00 16.74
23.00 15.14
24.00 16.67
25.00 22.75
26.00 34.17
27.00 19.97
28.00 16.80
29.00 17.22
30.00 20.78
31.00 28.87
32.00 30.69
33.00 25.14
34.00 23.10
35.00 21.94
36.00 20.69
37.00 19.75
38.00 19.94
39.00 21.87
40.00 26.61
41.00 39.25
42.00 33.27
43.00 27.42
44.00 25.84
45.00 26.60
46.00 30.54
47.00 34.63
48.00 28.34
49.00 25.08
50.00 24.29
51.00 24.72
52.00 25.66
53.00 27.02
54.00 29.25
55.00 33.14
56.00 41.68
57.00 47.66
58.00 35.56
59.00 31.80
60.00 30.21
61.00 29.76
62.00 30.45
63.00 32.80
64.00 38.30
65.00 47.59
66.00 37.52
67.00 33.45
68.00 32.25
69.00 32.00
70.00 31.43
71.00 30.33
72.00 29.56
73.00 29.93
74.00 31.55
75.00 33.37
76.00 34.02
77.00 34.31
78.00 35.26
79.00 36.61
80.00 36.72
81.00 35.75
82.00 36.19
83.00 35.76
84.00 32.11
85.00 30.30
86.00 31.68
87.00 36.97
88.00 42.51
89.00 35.96
90.00 31.84
91.00 30.43
92.00 31.66
93.00 35.76
94.00 41.15
95.00 41.26
96.00 40.09
97.00 38.80
98.00 37.53
99.00 37.95
100.00 40.58
101.00 42.87
102.00 43.73
103.00 51.24
104.00 50.88
105.00 41.39
106.00 38.80
107.00 38.37
108.00 38.54
109.00 38.43
110.00 38.20
111.00 38.65
112.00 40.66
113.00 43.37
114.00 40.69
115.00 37.05
116.00 35.47
117.00 35.28
118.00 35.54
119.00 35.56
120.00 35.89
121.00 37.73
122.00 41.83
123.00 45.76
124.00 45.06
125.00 45.07
126.00 46.84
127.00 49.14
128.00 51.02
129.00 49.21
130.00 43.75
131.00 39.50
132.00 37.06
133.00 36.12
134.00 36.21
135.00 36.57
136.00 36.59
137.00 36.73
138.00 37.97
139.00 39.96
140.00 40.85
141.00 42.03
142.00 43.70
143.00 43.65
144.00 46.75
145.00 43.92
146.00 38.68
147.00 38.59
148.00 39.98
149.00 38.62
150.00 40.09
151.00 46.38
152.00 41.71
153.00 40.12
154.00 41.06
155.00 36.90
156.00 34.12
157.00 34.19
158.00 35.96
159.00 37.03
160.00 37.30
161.00 40.41
162.00 52.51
163.00 46.40
164.00 43.36
165.00 49.56
166.00 52.26
167.00 40.50
168.00 36.80
169.00 36.94
170.00 41.85
171.00 49.86
172.00 45.90
173.00 50.23
174.00 40.48
175.00 35.27
176.00 33.48
177.00 32.15
178.00 31.09
179.00 31.75
180.00 34.77
181.00 37.84
182.00 37.54
183.00 37.57
184.00 38.10
185.00 37.47
186.00 36.37
187.00 35.64
188.00 34.92
189.00 33.99
190.00 33.56
191.00 34.08
192.00 35.53
193.00 38.12
194.00 40.85
195.00 38.83
196.00 35.60
197.00 34.25
198.00 34.71
199.00 36.36
200.00 37.17
201.00 35.98
202.00 35.66
203.00 38.49
204.00 44.31
205.00 42.49
206.00 41.96
207.00 42.19
208.00 39.74
209.00 41.37
210.00 51.18
211.00 46.52
212.00 43.39
213.00 43.33
214.00 43.26
215.00 43.98
216.00 43.50
217.00 46.72
218.00 43.99
219.00 36.51
220.00 34.50
221.00 35.45
222.00 37.68
223.00 41.88
224.00 53.46
225.00 43.14
226.00 39.82
227.00 40.47
228.00 40.26
229.00 36.81
230.00 33.54
231.00 32.06
232.00 32.70
233.00 35.89
234.00 42.96
235.00 49.26
236.00 44.99
237.00 45.74
238.00 48.02
239.00 45.87
240.00 41.35
241.00 37.76
242.00 35.95
243.00 35.88
244.00 37.52
245.00 41.77
246.00 48.57
247.00 40.54
248.00 35.35
249.00 33.32
250.00 33.35
251.00 34.97
252.00 37.67
253.00 40.74
254.00 43.78
255.00 47.29
256.00 48.82
257.00 44.06
258.00 38.97
259.00 35.01
260.00 32.14
261.00 30.42
262.00 29.86
263.00 30.47
264.00 32.20
265.00 34.54
266.00 35.04
267.00 32.07
268.00 29.01
269.00 27.43
270.00 27.46
271.00 28.97
272.00 31.45
273.00 33.88
274.00 35.58
275.00 36.63
276.00 36.72
277.00 36.17
278.00 35.49
279.00 34.71
280.00 34.47
281.00 35.50
282.00 37.53
283.00 38.98
284.00 38.26
285.00 37.01
286.00 37.58
287.00 41.52
288.00 53.57
289.00 49.73
290.00 45.85
291.00 52.63
292.00 44.62
293.00 35.23
294.00 30.44
295.00 27.29
296.00 25.23
297.00 24.43
298.00 25.23
299.00 28.40
300.00 33.97
301.00 30.06
302.00 24.25
303.00 20.26
304.00 17.05
305.00 14.56
306.00 12.79
307.00 11.64
308.00 10.94
309.00 10.61
310.00 10.71
311.00 11.43
312.00 13.05
313.00 16.09
314.00 22.05
315.00 31.31
316.00 22.55
317.00 18.98
318.00 18.78
319.00 21.03
320.00 25.08
321.00 26.67
322.00 23.92
323.00 21.95
324.00 22.29
325.00 26.50
326.00 33.65
327.00 23.68
328.00 19.51
329.00 18.69
330.00 20.93
331.00 30.87
332.00 28.06
333.00 19.75
334.00 17.85
335.00 19.85
336.00 30.78
337.00 25.69
338.00 17.47
339.00 14.60
340.00 14.18
341.00 15.95
342.00 20.75
343.00 34.22
344.00 29.91
345.00 25.44
346.00 26.98
347.00 32.53
348.00 29.38
349.00 24.01
350.00 22.54
351.00 24.35
352.00 29.42
353.00 30.10
354.00 26.91
355.00 25.47
356.00 23.98
357.00 23.23
358.00 23.66
359.00 23.18
