NAME ATR4518R7_0894_X_CO_P45_07T
FREQUENCY 0894
GAIN 14.75 dBd
TILT	ELECTRICAL
COMMENT DATE 05.08.2013 +45 degrees polarized system Lever position 07T deg
HORIZONTAL 360
0.00 0.01
1.00 0.00
2.00 0.00
3.00 0.01
4.00 0.02
5.00 0.04
6.00 0.06
7.00 0.09
8.00 0.13
9.00 0.17
10.00 0.22
11.00 0.27
12.00 0.33
13.00 0.40
14.00 0.47
15.00 0.55
16.00 0.64
17.00 0.73
18.00 0.83
19.00 0.93
20.00 1.04
21.00 1.16
22.00 1.28
23.00 1.40
24.00 1.54
25.00 1.68
26.00 1.83
27.00 1.98
28.00 2.14
29.00 2.30
30.00 2.47
31.00 2.65
32.00 2.83
33.00 3.02
34.00 3.21
35.00 3.41
36.00 3.62
37.00 3.83
38.00 4.04
39.00 4.27
40.00 4.50
41.00 4.73
42.00 4.97
43.00 5.22
44.00 5.47
45.00 5.72
46.00 5.99
47.00 6.25
48.00 6.53
49.00 6.80
50.00 7.08
51.00 7.37
52.00 7.67
53.00 7.97
54.00 8.27
55.00 8.58
56.00 8.89
57.00 9.21
58.00 9.53
59.00 9.86
60.00 10.19
61.00 10.53
62.00 10.87
63.00 11.21
64.00 11.57
65.00 11.92
66.00 12.28
67.00 12.65
68.00 13.01
69.00 13.39
70.00 13.77
71.00 14.15
72.00 14.54
73.00 14.93
74.00 15.33
75.00 15.74
76.00 16.15
77.00 16.56
78.00 16.99
79.00 17.41
80.00 17.85
81.00 18.29
82.00 18.74
83.00 19.20
84.00 19.67
85.00 20.14
86.00 20.63
87.00 21.12
88.00 21.63
89.00 22.14
90.00 22.67
91.00 23.22
92.00 23.77
93.00 24.34
94.00 24.93
95.00 25.53
96.00 26.15
97.00 26.80
98.00 27.45
99.00 28.13
100.00 28.83
101.00 29.55
102.00 30.28
103.00 31.03
104.00 31.79
105.00 32.55
106.00 33.30
107.00 34.02
108.00 34.70
109.00 35.30
110.00 35.80
111.00 36.17
112.00 36.41
113.00 36.50
114.00 36.47
115.00 36.32
116.00 36.09
117.00 35.81
118.00 35.50
119.00 35.18
120.00 34.86
121.00 34.55
122.00 34.26
123.00 33.98
124.00 33.74
125.00 33.52
126.00 33.32
127.00 33.16
128.00 33.01
129.00 32.90
130.00 32.80
131.00 32.73
132.00 32.70
133.00 32.68
134.00 32.69
135.00 32.72
136.00 32.79
137.00 32.88
138.00 32.98
139.00 33.13
140.00 33.29
141.00 33.49
142.00 33.71
143.00 33.97
144.00 34.26
145.00 34.59
146.00 34.95
147.00 35.36
148.00 35.80
149.00 36.30
150.00 36.83
151.00 37.43
152.00 38.08
153.00 38.79
154.00 39.56
155.00 40.39
156.00 41.25
157.00 42.13
158.00 42.95
159.00 43.64
160.00 44.05
161.00 44.10
162.00 43.77
163.00 43.13
164.00 42.30
165.00 41.39
166.00 40.48
167.00 39.59
168.00 38.77
169.00 37.99
170.00 37.28
171.00 36.63
172.00 36.03
173.00 35.48
174.00 34.98
175.00 34.53
176.00 34.12
177.00 33.75
178.00 33.41
179.00 33.11
180.00 32.84
181.00 32.60
182.00 32.39
183.00 32.21
184.00 32.06
185.00 31.93
186.00 31.83
187.00 31.76
188.00 31.71
189.00 31.68
190.00 31.67
191.00 31.69
192.00 31.73
193.00 31.80
194.00 31.88
195.00 31.99
196.00 32.12
197.00 32.27
198.00 32.45
199.00 32.64
200.00 32.86
201.00 33.09
202.00 33.35
203.00 33.62
204.00 33.92
205.00 34.23
206.00 34.56
207.00 34.90
208.00 35.25
209.00 35.62
210.00 35.99
211.00 36.36
212.00 36.73
213.00 37.08
214.00 37.42
215.00 37.73
216.00 37.99
217.00 38.22
218.00 38.40
219.00 38.52
220.00 38.57
221.00 38.56
222.00 38.50
223.00 38.38
224.00 38.22
225.00 38.01
226.00 37.78
227.00 37.52
228.00 37.25
229.00 36.96
230.00 36.66
231.00 36.36
232.00 36.05
233.00 35.74
234.00 35.43
235.00 35.12
236.00 34.81
237.00 34.50
238.00 34.20
239.00 33.89
240.00 33.58
241.00 33.27
242.00 32.96
243.00 32.65
244.00 32.33
245.00 32.02
246.00 31.69
247.00 31.36
248.00 31.04
249.00 30.70
250.00 30.36
251.00 30.01
252.00 29.66
253.00 29.30
254.00 28.93
255.00 28.56
256.00 28.17
257.00 27.79
258.00 27.39
259.00 26.99
260.00 26.58
261.00 26.17
262.00 25.75
263.00 25.33
264.00 24.90
265.00 24.47
266.00 24.03
267.00 23.60
268.00 23.16
269.00 22.72
270.00 22.29
271.00 21.85
272.00 21.41
273.00 20.98
274.00 20.54
275.00 20.12
276.00 19.69
277.00 19.27
278.00 18.85
279.00 18.43
280.00 18.02
281.00 17.61
282.00 17.21
283.00 16.81
284.00 16.42
285.00 16.03
286.00 15.64
287.00 15.26
288.00 14.88
289.00 14.51
290.00 14.15
291.00 13.79
292.00 13.43
293.00 13.08
294.00 12.73
295.00 12.39
296.00 12.04
297.00 11.71
298.00 11.38
299.00 11.05
300.00 10.73
301.00 10.41
302.00 10.09
303.00 9.78
304.00 9.48
305.00 9.17
306.00 8.87
307.00 8.58
308.00 8.28
309.00 8.00
310.00 7.72
311.00 7.44
312.00 7.16
313.00 6.89
314.00 6.63
315.00 6.36
316.00 6.11
317.00 5.86
318.00 5.61
319.00 5.36
320.00 5.12
321.00 4.89
322.00 4.66
323.00 4.44
324.00 4.22
325.00 4.00
326.00 3.79
327.00 3.59
328.00 3.39
329.00 3.19
330.00 3.00
331.00 2.82
332.00 2.64
333.00 2.47
334.00 2.30
335.00 2.14
336.00 1.99
337.00 1.84
338.00 1.69
339.00 1.55
340.00 1.42
341.00 1.29
342.00 1.17
343.00 1.06
344.00 0.95
345.00 0.84
346.00 0.75
347.00 0.65
348.00 0.57
349.00 0.49
350.00 0.41
351.00 0.35
352.00 0.28
353.00 0.23
354.00 0.18
355.00 0.14
356.00 0.10
357.00 0.07
358.00 0.04
359.00 0.02
VERTICAL 360
0.00 10.70
1.00 7.41
2.00 4.94
3.00 3.07
4.00 1.69
5.00 0.74
6.00 0.18
7.00 0.00
8.00 0.20
9.00 0.76
10.00 1.70
11.00 3.02
12.00 4.76
13.00 7.00
14.00 9.89
15.00 13.65
16.00 18.53
17.00 23.85
18.00 25.33
19.00 24.64
20.00 25.36
21.00 28.30
22.00 36.03
23.00 39.93
24.00 29.09
25.00 25.08
26.00 23.30
27.00 22.97
28.00 23.92
29.00 26.28
30.00 30.67
31.00 40.39
32.00 39.85
33.00 31.84
34.00 28.72
35.00 27.69
36.00 28.45
37.00 31.73
38.00 41.11
39.00 34.40
40.00 27.73
41.00 24.52
42.00 22.76
43.00 21.61
44.00 20.67
45.00 19.89
46.00 19.41
47.00 19.43
48.00 20.06
49.00 21.36
50.00 23.26
51.00 25.62
52.00 28.34
53.00 31.63
54.00 36.31
55.00 41.69
56.00 36.84
57.00 32.24
58.00 29.83
59.00 28.84
60.00 28.87
61.00 29.58
62.00 30.70
63.00 31.91
64.00 32.84
65.00 33.14
66.00 32.76
67.00 32.13
68.00 31.75
69.00 31.91
70.00 32.59
71.00 33.21
72.00 32.98
73.00 32.35
74.00 32.23
75.00 32.89
76.00 34.11
77.00 34.95
78.00 33.24
79.00 30.10
80.00 27.86
81.00 27.04
82.00 27.64
83.00 29.59
84.00 31.58
85.00 30.41
86.00 27.90
87.00 25.97
88.00 25.23
89.00 25.76
90.00 27.44
91.00 30.09
92.00 33.25
93.00 34.34
94.00 31.58
95.00 29.44
96.00 28.55
97.00 28.55
98.00 29.16
99.00 30.24
100.00 31.45
101.00 32.17
102.00 32.16
103.00 31.80
104.00 31.55
105.00 31.82
106.00 32.81
107.00 34.15
108.00 34.90
109.00 34.67
110.00 34.04
111.00 33.60
112.00 33.82
113.00 34.77
114.00 35.89
115.00 36.33
116.00 36.12
117.00 35.87
118.00 36.06
119.00 37.08
120.00 39.08
121.00 41.52
122.00 42.56
123.00 41.47
124.00 40.02
125.00 39.41
126.00 39.78
127.00 40.48
128.00 40.96
129.00 41.58
130.00 42.51
131.00 42.69
132.00 41.24
133.00 38.97
134.00 37.03
135.00 35.98
136.00 35.84
137.00 36.22
138.00 36.71
139.00 37.28
140.00 38.07
141.00 39.08
142.00 40.28
143.00 41.82
144.00 43.80
145.00 46.29
146.00 47.93
147.00 45.95
148.00 43.63
149.00 42.91
150.00 43.54
151.00 44.50
152.00 44.55
153.00 43.40
154.00 42.00
155.00 41.23
156.00 41.15
157.00 41.08
158.00 40.44
159.00 39.56
160.00 38.74
161.00 37.97
162.00 37.43
163.00 37.63
164.00 39.24
165.00 43.60
166.00 59.65
167.00 45.86
168.00 40.02
169.00 37.23
170.00 35.44
171.00 34.07
172.00 33.05
173.00 32.49
174.00 32.20
175.00 32.59
176.00 33.57
177.00 34.81
178.00 35.86
179.00 36.53
180.00 37.18
181.00 38.52
182.00 40.83
183.00 41.95
184.00 40.14
185.00 38.46
186.00 37.88
187.00 37.85
188.00 37.68
189.00 37.00
190.00 36.04
191.00 35.52
192.00 36.04
193.00 38.00
194.00 41.89
195.00 49.13
196.00 57.71
197.00 48.09
198.00 43.61
199.00 40.96
200.00 39.54
201.00 39.36
202.00 40.45
203.00 42.55
204.00 44.30
205.00 44.00
206.00 42.58
207.00 41.21
208.00 40.07
209.00 39.15
210.00 38.55
211.00 38.26
212.00 37.97
213.00 37.58
214.00 37.61
215.00 38.54
216.00 40.15
217.00 41.06
218.00 40.16
219.00 38.18
220.00 36.18
221.00 34.82
222.00 34.32
223.00 34.63
224.00 35.52
225.00 36.51
226.00 36.73
227.00 36.18
228.00 36.01
229.00 37.04
230.00 39.53
231.00 43.01
232.00 45.92
233.00 48.14
234.00 48.62
235.00 45.36
236.00 43.43
237.00 44.65
238.00 51.11
239.00 48.98
240.00 42.22
241.00 39.81
242.00 39.64
243.00 40.97
244.00 43.98
245.00 49.73
246.00 46.00
247.00 39.75
248.00 36.28
249.00 34.22
250.00 32.86
251.00 31.74
252.00 30.73
253.00 29.97
254.00 29.71
255.00 30.00
256.00 30.65
257.00 31.25
258.00 31.41
259.00 31.02
260.00 30.43
261.00 30.10
262.00 30.21
263.00 30.72
264.00 31.61
265.00 32.46
266.00 32.14
267.00 30.68
268.00 29.48
269.00 29.08
270.00 29.52
271.00 30.78
272.00 32.90
273.00 35.09
274.00 35.30
275.00 34.06
276.00 33.07
277.00 32.92
278.00 34.07
279.00 36.65
280.00 37.23
281.00 34.11
282.00 31.78
283.00 30.71
284.00 30.57
285.00 31.40
286.00 33.21
287.00 34.03
288.00 31.86
289.00 29.45
290.00 27.92
291.00 27.22
292.00 27.30
293.00 28.21
294.00 29.68
295.00 30.70
296.00 30.46
297.00 29.75
298.00 29.54
299.00 30.22
300.00 31.78
301.00 33.55
302.00 34.48
303.00 35.09
304.00 36.86
305.00 41.60
306.00 55.44
307.00 39.20
308.00 33.69
309.00 31.35
310.00 30.89
311.00 31.63
312.00 32.45
313.00 32.31
314.00 31.50
315.00 30.50
316.00 29.04
317.00 26.93
318.00 24.65
319.00 22.82
320.00 21.70
321.00 21.34
322.00 21.64
323.00 22.49
324.00 23.69
325.00 25.08
326.00 26.65
327.00 28.86
328.00 32.75
329.00 41.09
330.00 41.09
331.00 34.34
332.00 32.01
333.00 31.78
334.00 32.89
335.00 34.32
336.00 34.58
337.00 34.27
338.00 35.06
339.00 38.03
340.00 44.29
341.00 38.73
342.00 31.44
343.00 26.65
344.00 23.28
345.00 21.00
346.00 19.69
347.00 19.37
348.00 20.15
349.00 22.30
350.00 26.74
351.00 38.16
352.00 31.70
353.00 25.09
354.00 22.31
355.00 21.51
356.00 22.50
357.00 24.54
358.00 21.09
359.00 15.16
