NAME ATR4518R7_0894_X_CO_M45_07T
FREQUENCY 0894
GAIN 15.03 dBd
TILT	ELECTRICAL
COMMENT DATE 05.08.2013 -45 degrees polarized system Lever position 07T deg
HORIZONTAL 360
0.00 0.00
1.00 0.00
2.00 0.00
3.00 0.01
4.00 0.03
5.00 0.05
6.00 0.08
7.00 0.11
8.00 0.15
9.00 0.20
10.00 0.26
11.00 0.32
12.00 0.39
13.00 0.47
14.00 0.55
15.00 0.64
16.00 0.74
17.00 0.84
18.00 0.95
19.00 1.07
20.00 1.20
21.00 1.33
22.00 1.47
23.00 1.61
24.00 1.77
25.00 1.93
26.00 2.09
27.00 2.27
28.00 2.45
29.00 2.64
30.00 2.84
31.00 3.04
32.00 3.25
33.00 3.47
34.00 3.69
35.00 3.92
36.00 4.16
37.00 4.41
38.00 4.66
39.00 4.92
40.00 5.19
41.00 5.46
42.00 5.75
43.00 6.04
44.00 6.33
45.00 6.64
46.00 6.95
47.00 7.27
48.00 7.59
49.00 7.93
50.00 8.27
51.00 8.62
52.00 8.97
53.00 9.33
54.00 9.70
55.00 10.08
56.00 10.46
57.00 10.85
58.00 11.25
59.00 11.65
60.00 12.07
61.00 12.49
62.00 12.91
63.00 13.34
64.00 13.78
65.00 14.23
66.00 14.68
67.00 15.13
68.00 15.60
69.00 16.06
70.00 16.53
71.00 17.01
72.00 17.49
73.00 17.97
74.00 18.46
75.00 18.94
76.00 19.43
77.00 19.91
78.00 20.39
79.00 20.87
80.00 21.35
81.00 21.82
82.00 22.28
83.00 22.73
84.00 23.18
85.00 23.61
86.00 24.03
87.00 24.44
88.00 24.83
89.00 25.21
90.00 25.57
91.00 25.91
92.00 26.25
93.00 26.57
94.00 26.87
95.00 27.17
96.00 27.45
97.00 27.73
98.00 27.99
99.00 28.25
100.00 28.50
101.00 28.75
102.00 29.00
103.00 29.24
104.00 29.48
105.00 29.72
106.00 29.96
107.00 30.20
108.00 30.44
109.00 30.68
110.00 30.91
111.00 31.15
112.00 31.39
113.00 31.62
114.00 31.85
115.00 32.08
116.00 32.30
117.00 32.51
118.00 32.72
119.00 32.92
120.00 33.10
121.00 33.27
122.00 33.43
123.00 33.56
124.00 33.69
125.00 33.79
126.00 33.87
127.00 33.93
128.00 33.97
129.00 34.00
130.00 34.00
131.00 33.98
132.00 33.94
133.00 33.89
134.00 33.82
135.00 33.74
136.00 33.64
137.00 33.54
138.00 33.42
139.00 33.30
140.00 33.17
141.00 33.04
142.00 32.91
143.00 32.77
144.00 32.64
145.00 32.50
146.00 32.37
147.00 32.24
148.00 32.11
149.00 31.99
150.00 31.87
151.00 31.76
152.00 31.66
153.00 31.56
154.00 31.46
155.00 31.38
156.00 31.30
157.00 31.23
158.00 31.17
159.00 31.11
160.00 31.07
161.00 31.03
162.00 31.00
163.00 30.99
164.00 30.98
165.00 30.98
166.00 30.99
167.00 31.01
168.00 31.04
169.00 31.08
170.00 31.13
171.00 31.20
172.00 31.27
173.00 31.36
174.00 31.46
175.00 31.57
176.00 31.69
177.00 31.82
178.00 31.97
179.00 32.14
180.00 32.31
181.00 32.50
182.00 32.71
183.00 32.93
184.00 33.17
185.00 33.42
186.00 33.69
187.00 33.98
188.00 34.28
189.00 34.61
190.00 34.95
191.00 35.31
192.00 35.70
193.00 36.10
194.00 36.53
195.00 36.98
196.00 37.45
197.00 37.95
198.00 38.48
199.00 39.03
200.00 39.60
201.00 40.21
202.00 40.85
203.00 41.52
204.00 42.22
205.00 42.97
206.00 43.76
207.00 44.60
208.00 45.49
209.00 46.46
210.00 47.52
211.00 48.70
212.00 50.02
213.00 51.56
214.00 53.41
215.00 55.78
216.00 59.03
217.00 64.51
218.00 83.46
219.00 66.36
220.00 59.58
221.00 55.74
222.00 52.94
223.00 50.76
224.00 48.93
225.00 47.38
226.00 45.98
227.00 44.75
228.00 43.61
229.00 42.56
230.00 41.58
231.00 40.68
232.00 39.83
233.00 39.03
234.00 38.27
235.00 37.55
236.00 36.86
237.00 36.20
238.00 35.57
239.00 34.97
240.00 34.39
241.00 33.82
242.00 33.28
243.00 32.75
244.00 32.23
245.00 31.73
246.00 31.24
247.00 30.75
248.00 30.28
249.00 29.81
250.00 29.35
251.00 28.89
252.00 28.43
253.00 27.98
254.00 27.53
255.00 27.09
256.00 26.65
257.00 26.20
258.00 25.76
259.00 25.32
260.00 24.89
261.00 24.45
262.00 24.02
263.00 23.59
264.00 23.16
265.00 22.73
266.00 22.31
267.00 21.89
268.00 21.47
269.00 21.06
270.00 20.65
271.00 20.24
272.00 19.84
273.00 19.45
274.00 19.05
275.00 18.66
276.00 18.28
277.00 17.90
278.00 17.53
279.00 17.16
280.00 16.79
281.00 16.43
282.00 16.07
283.00 15.72
284.00 15.38
285.00 15.03
286.00 14.69
287.00 14.35
288.00 14.02
289.00 13.70
290.00 13.37
291.00 13.05
292.00 12.73
293.00 12.42
294.00 12.11
295.00 11.80
296.00 11.50
297.00 11.20
298.00 10.90
299.00 10.61
300.00 10.31
301.00 10.02
302.00 9.74
303.00 9.45
304.00 9.17
305.00 8.90
306.00 8.62
307.00 8.35
308.00 8.08
309.00 7.81
310.00 7.54
311.00 7.28
312.00 7.03
313.00 6.77
314.00 6.52
315.00 6.27
316.00 6.03
317.00 5.79
318.00 5.55
319.00 5.32
320.00 5.08
321.00 4.86
322.00 4.64
323.00 4.42
324.00 4.20
325.00 4.00
326.00 3.79
327.00 3.59
328.00 3.39
329.00 3.20
330.00 3.01
331.00 2.83
332.00 2.66
333.00 2.49
334.00 2.32
335.00 2.16
336.00 2.00
337.00 1.85
338.00 1.70
339.00 1.56
340.00 1.43
341.00 1.30
342.00 1.18
343.00 1.06
344.00 0.95
345.00 0.84
346.00 0.75
347.00 0.65
348.00 0.56
349.00 0.48
350.00 0.41
351.00 0.34
352.00 0.28
353.00 0.22
354.00 0.17
355.00 0.13
356.00 0.09
357.00 0.06
358.00 0.03
359.00 0.02
VERTICAL 360
0.00 9.78
1.00 6.76
2.00 4.46
3.00 2.71
4.00 1.44
5.00 0.58
6.00 0.11
7.00 0.00
8.00 0.26
9.00 0.87
10.00 1.87
11.00 3.29
12.00 5.18
13.00 7.65
14.00 10.89
15.00 15.31
16.00 21.95
17.00 34.32
18.00 28.84
19.00 25.42
20.00 25.58
21.00 28.45
22.00 36.46
23.00 39.26
24.00 29.35
25.00 25.67
26.00 24.08
27.00 23.80
28.00 24.67
29.00 26.89
30.00 31.19
31.00 38.51
32.00 34.72
33.00 29.86
34.00 27.72
35.00 27.26
36.00 28.23
37.00 31.04
38.00 38.16
39.00 43.02
40.00 30.94
41.00 26.02
42.00 23.12
43.00 21.33
44.00 20.34
45.00 20.00
46.00 20.22
47.00 20.93
48.00 22.06
49.00 23.54
50.00 25.39
51.00 27.75
52.00 31.10
53.00 36.75
54.00 45.60
55.00 36.72
56.00 31.88
57.00 29.41
58.00 28.16
59.00 27.65
60.00 27.63
61.00 27.91
62.00 28.35
63.00 28.93
64.00 29.68
65.00 30.64
66.00 31.73
67.00 32.58
68.00 32.70
69.00 32.14
70.00 31.54
71.00 31.44
72.00 31.98
73.00 32.92
74.00 33.41
75.00 32.54
76.00 30.76
77.00 29.02
78.00 27.72
79.00 26.98
80.00 26.76
81.00 26.81
82.00 26.79
83.00 26.67
84.00 26.37
85.00 25.90
86.00 25.47
87.00 25.33
88.00 25.78
89.00 26.20
90.00 26.33
91.00 26.35
92.00 26.35
93.00 26.14
94.00 25.73
95.00 25.79
96.00 26.11
97.00 26.72
98.00 27.60
99.00 28.64
100.00 29.65
101.00 30.48
102.00 31.12
103.00 31.66
104.00 32.28
105.00 33.19
106.00 34.49
107.00 35.99
108.00 37.21
109.00 37.54
110.00 36.96
111.00 36.00
112.00 35.23
113.00 34.95
114.00 35.21
115.00 35.86
116.00 36.65
117.00 37.23
118.00 37.33
119.00 36.97
120.00 36.56
121.00 36.57
122.00 37.25
123.00 38.63
124.00 40.41
125.00 41.71
126.00 41.61
127.00 40.69
128.00 39.93
129.00 39.67
130.00 39.71
131.00 39.51
132.00 38.82
133.00 38.05
134.00 37.72
135.00 38.07
136.00 39.18
137.00 40.96
138.00 43.12
139.00 45.25
140.00 47.41
141.00 50.46
142.00 54.64
143.00 52.29
144.00 47.35
145.00 44.24
146.00 42.50
147.00 41.82
148.00 42.01
149.00 42.91
150.00 44.06
151.00 44.48
152.00 43.43
153.00 41.57
154.00 39.79
155.00 38.44
156.00 37.62
157.00 37.34
158.00 37.50
159.00 37.97
160.00 38.48
161.00 38.61
162.00 38.12
163.00 37.23
164.00 36.38
165.00 35.94
166.00 36.12
167.00 37.04
168.00 38.55
169.00 39.77
170.00 38.70
171.00 36.46
172.00 34.27
173.00 32.50
174.00 31.76
175.00 31.18
176.00 30.71
177.00 30.34
178.00 30.13
179.00 30.17
180.00 30.42
181.00 30.89
182.00 31.82
183.00 33.27
184.00 35.22
185.00 37.38
186.00 38.60
187.00 37.80
188.00 35.95
189.00 34.18
190.00 32.74
191.00 31.63
192.00 30.83
193.00 30.30
194.00 30.07
195.00 30.18
196.00 30.66
197.00 31.61
198.00 33.09
199.00 35.21
200.00 38.05
201.00 41.63
202.00 45.18
203.00 46.38
204.00 45.23
205.00 43.85
206.00 42.70
207.00 41.64
208.00 40.53
209.00 39.35
210.00 38.16
211.00 37.04
212.00 36.08
213.00 35.33
214.00 34.82
215.00 34.60
216.00 34.76
217.00 35.38
218.00 36.53
219.00 38.31
220.00 40.79
221.00 43.89
222.00 46.59
223.00 46.21
224.00 43.67
225.00 41.22
226.00 39.32
227.00 38.01
228.00 37.22
229.00 36.87
230.00 36.82
231.00 36.96
232.00 37.24
233.00 37.78
234.00 38.83
235.00 40.88
236.00 44.95
237.00 54.42
238.00 50.46
239.00 44.13
240.00 41.60
241.00 40.73
242.00 40.62
243.00 40.57
244.00 40.09
245.00 39.11
246.00 37.95
247.00 37.01
248.00 36.50
249.00 36.41
250.00 36.50
251.00 36.50
252.00 36.32
253.00 36.13
254.00 36.10
255.00 36.32
256.00 36.74
257.00 37.14
258.00 37.28
259.00 37.07
260.00 36.71
261.00 36.47
262.00 36.50
263.00 36.80
264.00 37.20
265.00 37.40
266.00 37.29
267.00 37.14
268.00 37.34
269.00 38.15
270.00 39.71
271.00 41.99
272.00 44.74
273.00 47.19
274.00 48.04
275.00 45.79
276.00 42.21
277.00 39.44
278.00 37.99
279.00 37.90
280.00 39.11
281.00 41.49
282.00 44.85
283.00 50.36
284.00 66.20
285.00 46.06
286.00 40.22
287.00 37.37
288.00 36.22
289.00 36.17
290.00 36.62
291.00 36.69
292.00 35.68
293.00 33.93
294.00 32.20
295.00 30.96
296.00 30.32
297.00 30.26
298.00 30.67
299.00 31.36
300.00 32.13
301.00 32.88
302.00 33.66
303.00 34.77
304.00 36.62
305.00 39.32
306.00 40.53
307.00 37.96
308.00 35.27
309.00 33.74
310.00 33.28
311.00 33.81
312.00 35.52
313.00 39.29
314.00 51.17
315.00 42.15
316.00 33.79
317.00 29.16
318.00 26.03
319.00 23.82
320.00 22.31
321.00 21.40
322.00 21.04
323.00 21.23
324.00 22.03
325.00 23.51
326.00 25.86
327.00 29.51
328.00 35.81
329.00 48.80
330.00 36.40
331.00 31.40
332.00 28.87
333.00 27.61
334.00 27.32
335.00 28.03
336.00 29.94
337.00 33.69
338.00 41.52
339.00 51.29
340.00 40.31
341.00 37.50
342.00 34.42
343.00 29.95
344.00 26.09
345.00 23.37
346.00 21.70
347.00 21.01
348.00 21.31
349.00 22.81
350.00 26.16
351.00 34.04
352.00 37.05
353.00 27.82
354.00 24.83
355.00 24.77
356.00 28.00
357.00 28.50
358.00 19.69
359.00 13.85
