NAME ATR4518R7_2140_X_CO_M45_10T_yL
FREQUENCY 2140
GAIN 15.50 dBd
TILT	ELECTRICAL
COMMENT DATE 05.08.2013 -45 degrees polarized system Lever position 10T deg
HORIZONTAL 360
0.00 0.01
1.00 0.03
2.00 0.05
3.00 0.07
4.00 0.10
5.00 0.13
6.00 0.17
7.00 0.21
8.00 0.26
9.00 0.32
10.00 0.38
11.00 0.45
12.00 0.52
13.00 0.60
14.00 0.69
15.00 0.79
16.00 0.89
17.00 1.00
18.00 1.12
19.00 1.25
20.00 1.38
21.00 1.53
22.00 1.67
23.00 1.83
24.00 2.00
25.00 2.17
26.00 2.36
27.00 2.55
28.00 2.75
29.00 2.96
30.00 3.18
31.00 3.41
32.00 3.65
33.00 3.91
34.00 4.17
35.00 4.44
36.00 4.72
37.00 5.01
38.00 5.31
39.00 5.62
40.00 5.93
41.00 6.25
42.00 6.57
43.00 6.89
44.00 7.22
45.00 7.55
46.00 7.87
47.00 8.20
48.00 8.52
49.00 8.83
50.00 9.14
51.00 9.44
52.00 9.73
53.00 10.01
54.00 10.29
55.00 10.55
56.00 10.81
57.00 11.07
58.00 11.31
59.00 11.56
60.00 11.80
61.00 12.04
62.00 12.29
63.00 12.53
64.00 12.77
65.00 13.02
66.00 13.28
67.00 13.54
68.00 13.82
69.00 14.09
70.00 14.38
71.00 14.68
72.00 14.98
73.00 15.29
74.00 15.61
75.00 15.94
76.00 16.27
77.00 16.60
78.00 16.94
79.00 17.27
80.00 17.61
81.00 17.94
82.00 18.27
83.00 18.60
84.00 18.91
85.00 19.23
86.00 19.54
87.00 19.84
88.00 20.14
89.00 20.45
90.00 20.76
91.00 21.08
92.00 21.42
93.00 21.77
94.00 22.15
95.00 22.57
96.00 23.02
97.00 23.51
98.00 24.06
99.00 24.67
100.00 25.34
101.00 26.10
102.00 26.93
103.00 27.87
104.00 28.91
105.00 30.08
106.00 31.38
107.00 32.81
108.00 34.38
109.00 36.02
110.00 37.57
111.00 38.80
112.00 39.39
113.00 39.31
114.00 38.82
115.00 38.22
116.00 37.70
117.00 37.33
118.00 37.15
119.00 37.17
120.00 37.40
121.00 37.83
122.00 38.49
123.00 39.37
124.00 40.49
125.00 41.80
126.00 43.16
127.00 44.21
128.00 44.42
129.00 43.61
130.00 42.24
131.00 40.77
132.00 39.43
133.00 38.28
134.00 37.31
135.00 36.51
136.00 35.86
137.00 35.34
138.00 34.93
139.00 34.61
140.00 34.38
141.00 34.22
142.00 34.13
143.00 34.11
144.00 34.15
145.00 34.25
146.00 34.42
147.00 34.67
148.00 35.00
149.00 35.43
150.00 35.98
151.00 36.68
152.00 37.55
153.00 38.66
154.00 40.06
155.00 41.88
156.00 44.25
157.00 47.32
158.00 50.23
159.00 49.40
160.00 46.05
161.00 43.09
162.00 40.82
163.00 39.08
164.00 37.72
165.00 36.68
166.00 35.88
167.00 35.30
168.00 34.91
169.00 34.69
170.00 34.65
171.00 34.78
172.00 35.08
173.00 35.56
174.00 36.21
175.00 37.07
176.00 38.12
177.00 39.34
178.00 40.61
179.00 41.67
180.00 42.08
181.00 41.62
182.00 40.55
183.00 39.29
184.00 38.10
185.00 37.08
186.00 36.26
187.00 35.64
188.00 35.20
189.00 34.94
190.00 34.86
191.00 34.95
192.00 35.20
193.00 35.62
194.00 36.21
195.00 36.96
196.00 37.83
197.00 38.76
198.00 39.59
199.00 40.09
200.00 40.04
201.00 39.44
202.00 38.51
203.00 37.48
204.00 36.50
205.00 35.65
206.00 34.95
207.00 34.41
208.00 34.01
209.00 33.78
210.00 33.70
211.00 33.77
212.00 34.01
213.00 34.40
214.00 34.97
215.00 35.73
216.00 36.68
217.00 37.83
218.00 39.11
219.00 40.31
220.00 41.01
221.00 40.75
222.00 39.59
223.00 38.05
224.00 36.48
225.00 35.06
226.00 33.81
227.00 32.73
228.00 31.80
229.00 31.00
230.00 30.32
231.00 29.74
232.00 29.26
233.00 28.85
234.00 28.52
235.00 28.25
236.00 28.04
237.00 27.87
238.00 27.75
239.00 27.66
240.00 27.61
241.00 27.57
242.00 27.55
243.00 27.52
244.00 27.50
245.00 27.45
246.00 27.38
247.00 27.28
248.00 27.14
249.00 26.97
250.00 26.75
251.00 26.50
252.00 26.21
253.00 25.90
254.00 25.57
255.00 25.22
256.00 24.87
257.00 24.51
258.00 24.16
259.00 23.80
260.00 23.45
261.00 23.10
262.00 22.75
263.00 22.41
264.00 22.07
265.00 21.74
266.00 21.39
267.00 21.05
268.00 20.71
269.00 20.35
270.00 20.00
271.00 19.63
272.00 19.26
273.00 18.89
274.00 18.51
275.00 18.13
276.00 17.74
277.00 17.35
278.00 16.96
279.00 16.57
280.00 16.19
281.00 15.80
282.00 15.42
283.00 15.04
284.00 14.67
285.00 14.30
286.00 13.94
287.00 13.58
288.00 13.23
289.00 12.89
290.00 12.56
291.00 12.23
292.00 11.92
293.00 11.61
294.00 11.31
295.00 11.01
296.00 10.73
297.00 10.45
298.00 10.18
299.00 9.91
300.00 9.65
301.00 9.39
302.00 9.14
303.00 8.89
304.00 8.64
305.00 8.40
306.00 8.16
307.00 7.91
308.00 7.67
309.00 7.42
310.00 7.18
311.00 6.93
312.00 6.69
313.00 6.44
314.00 6.19
315.00 5.95
316.00 5.71
317.00 5.46
318.00 5.22
319.00 4.98
320.00 4.75
321.00 4.52
322.00 4.29
323.00 4.07
324.00 3.85
325.00 3.64
326.00 3.43
327.00 3.23
328.00 3.03
329.00 2.84
330.00 2.65
331.00 2.47
332.00 2.29
333.00 2.12
334.00 1.95
335.00 1.79
336.00 1.63
337.00 1.48
338.00 1.34
339.00 1.20
340.00 1.07
341.00 0.94
342.00 0.83
343.00 0.72
344.00 0.62
345.00 0.52
346.00 0.44
347.00 0.36
348.00 0.29
349.00 0.23
350.00 0.18
351.00 0.14
352.00 0.10
353.00 0.07
354.00 0.04
355.00 0.02
356.00 0.01
357.00 0.00
358.00 0.00
359.00 0.01
VERTICAL 360
0.00 19.86
1.00 20.41
2.00 20.79
3.00 19.22
4.00 15.20
5.00 10.74
6.00 6.94
7.00 3.99
8.00 1.86
9.00 0.54
10.00 0.00
11.00 0.31
12.00 1.57
13.00 4.01
14.00 8.25
15.00 16.65
16.00 24.30
17.00 14.02
18.00 11.46
19.00 11.58
20.00 13.90
21.00 19.17
22.00 23.67
23.00 18.09
24.00 15.37
25.00 15.03
26.00 16.62
27.00 20.89
28.00 34.87
29.00 25.15
30.00 19.22
31.00 17.65
32.00 18.72
33.00 22.95
34.00 37.36
35.00 27.68
36.00 22.14
37.00 20.59
38.00 21.01
39.00 23.19
40.00 28.23
41.00 37.67
42.00 26.10
43.00 20.55
44.00 17.49
45.00 15.82
46.00 15.16
47.00 15.40
48.00 16.46
49.00 18.27
50.00 20.71
51.00 23.55
52.00 26.71
53.00 30.83
54.00 38.81
55.00 40.52
56.00 32.05
57.00 28.58
58.00 26.99
59.00 26.46
60.00 26.69
61.00 27.57
62.00 29.00
63.00 30.66
64.00 31.90
65.00 32.06
66.00 31.67
67.00 31.61
68.00 32.12
69.00 32.91
70.00 33.52
71.00 33.72
72.00 33.57
73.00 33.44
74.00 33.54
75.00 33.78
76.00 33.78
77.00 33.36
78.00 32.79
79.00 32.49
80.00 32.83
81.00 33.99
82.00 36.14
83.00 39.52
84.00 44.65
85.00 50.90
86.00 48.54
87.00 44.10
88.00 40.51
89.00 37.78
90.00 36.25
91.00 36.06
92.00 37.15
93.00 39.12
94.00 41.07
95.00 41.81
96.00 41.06
97.00 40.09
98.00 40.11
99.00 41.40
100.00 43.49
101.00 45.12
102.00 45.25
103.00 44.29
104.00 43.71
105.00 44.54
106.00 47.02
107.00 50.17
108.00 51.98
109.00 53.33
110.00 56.31
111.00 63.15
112.00 61.92
113.00 54.96
114.00 50.78
115.00 47.29
116.00 44.81
117.00 43.76
118.00 44.14
119.00 45.47
120.00 46.70
121.00 47.64
122.00 49.79
123.00 54.45
124.00 55.48
125.00 52.79
126.00 52.12
127.00 48.74
128.00 44.94
129.00 43.25
130.00 43.45
131.00 44.72
132.00 45.55
133.00 44.69
134.00 43.17
135.00 42.64
136.00 43.57
137.00 43.75
138.00 40.59
139.00 37.40
140.00 35.48
141.00 34.83
142.00 35.46
143.00 37.36
144.00 39.95
145.00 41.32
146.00 40.84
147.00 40.36
148.00 40.96
149.00 42.96
150.00 45.36
151.00 45.61
152.00 45.09
153.00 43.80
154.00 41.07
155.00 39.25
156.00 39.34
157.00 41.07
158.00 42.25
159.00 40.82
160.00 39.50
161.00 39.57
162.00 40.77
163.00 41.85
164.00 42.22
165.00 43.56
166.00 45.13
167.00 41.55
168.00 38.48
169.00 38.25
170.00 40.61
171.00 41.23
172.00 37.99
173.00 36.84
174.00 38.86
175.00 45.67
176.00 46.97
177.00 41.09
178.00 39.83
179.00 40.38
180.00 39.93
181.00 38.17
182.00 37.20
183.00 37.85
184.00 40.15
185.00 41.74
186.00 39.98
187.00 38.93
188.00 40.45
189.00 45.13
190.00 48.69
191.00 47.52
192.00 53.36
193.00 52.71
194.00 44.60
195.00 44.42
196.00 48.94
197.00 43.26
198.00 39.17
199.00 38.94
200.00 40.00
201.00 37.72
202.00 35.21
203.00 34.74
204.00 36.14
205.00 38.57
206.00 40.80
207.00 42.13
208.00 40.92
209.00 38.22
210.00 36.66
211.00 36.61
212.00 37.66
213.00 39.00
214.00 39.88
215.00 40.58
216.00 41.95
217.00 44.68
218.00 45.45
219.00 41.19
220.00 38.24
221.00 37.26
222.00 37.63
223.00 38.40
224.00 38.73
225.00 38.56
226.00 38.39
227.00 38.91
228.00 40.70
229.00 43.61
230.00 43.95
231.00 40.33
232.00 37.29
233.00 35.94
234.00 36.72
235.00 40.83
236.00 58.05
237.00 41.72
238.00 36.28
239.00 34.10
240.00 33.51
241.00 34.06
242.00 35.69
243.00 38.08
244.00 38.83
245.00 36.01
246.00 33.02
247.00 31.06
248.00 30.03
249.00 29.78
250.00 30.24
251.00 31.37
252.00 33.14
253.00 35.59
254.00 38.80
255.00 41.21
256.00 37.93
257.00 33.58
258.00 30.58
259.00 28.70
260.00 27.57
261.00 26.79
262.00 26.03
263.00 25.15
264.00 24.21
265.00 23.40
266.00 22.88
267.00 22.66
268.00 22.63
269.00 22.62
270.00 22.45
271.00 22.11
272.00 21.70
273.00 21.37
274.00 21.22
275.00 21.25
276.00 21.39
277.00 21.56
278.00 21.62
279.00 21.47
280.00 21.05
281.00 20.37
282.00 19.52
283.00 18.60
284.00 17.72
285.00 16.94
286.00 16.27
287.00 15.74
288.00 15.37
289.00 15.18
290.00 15.22
291.00 15.55
292.00 16.16
293.00 16.98
294.00 17.84
295.00 18.60
296.00 19.31
297.00 20.28
298.00 21.92
299.00 24.69
300.00 29.43
301.00 38.62
302.00 38.21
303.00 31.18
304.00 27.44
305.00 25.19
306.00 24.22
307.00 24.63
308.00 26.60
309.00 30.53
310.00 35.81
311.00 34.40
312.00 29.98
313.00 26.06
314.00 22.99
315.00 21.26
316.00 21.21
317.00 23.30
318.00 29.38
319.00 43.69
320.00 27.67
321.00 24.03
322.00 23.17
323.00 23.87
324.00 26.06
325.00 30.67
326.00 31.25
327.00 24.26
328.00 20.39
329.00 18.89
330.00 19.58
331.00 23.36
332.00 30.96
333.00 23.61
334.00 18.83
335.00 16.26
336.00 15.11
337.00 15.18
338.00 16.48
339.00 19.22
340.00 23.99
341.00 30.99
342.00 26.95
343.00 24.41
344.00 25.36
345.00 28.18
346.00 27.39
347.00 23.76
348.00 21.46
349.00 20.74
350.00 21.61
351.00 24.52
352.00 30.84
353.00 47.47
354.00 37.02
355.00 33.98
356.00 28.76
357.00 23.99
358.00 21.19
359.00 19.95
