NAME ATR4518R7_1750_X_CO_M45_09T_yL
FREQUENCY 1750
GAIN 14.47 dBd
TILT	ELECTRICAL
COMMENT DATE 05.08.2013 -45 degrees polarized system Lever position 09T deg
HORIZONTAL 360
0.00 0.04
1.00 0.02
2.00 0.00
3.00 0.00
4.00 0.00
5.00 0.00
6.00 0.02
7.00 0.04
8.00 0.06
9.00 0.10
10.00 0.14
11.00 0.19
12.00 0.24
13.00 0.31
14.00 0.38
15.00 0.45
16.00 0.53
17.00 0.62
18.00 0.72
19.00 0.82
20.00 0.92
21.00 1.03
22.00 1.14
23.00 1.26
24.00 1.38
25.00 1.51
26.00 1.63
27.00 1.76
28.00 1.90
29.00 2.03
30.00 2.17
31.00 2.31
32.00 2.45
33.00 2.59
34.00 2.74
35.00 2.89
36.00 3.03
37.00 3.18
38.00 3.34
39.00 3.49
40.00 3.65
41.00 3.81
42.00 3.97
43.00 4.13
44.00 4.29
45.00 4.46
46.00 4.63
47.00 4.80
48.00 4.98
49.00 5.16
50.00 5.34
51.00 5.52
52.00 5.71
53.00 5.90
54.00 6.09
55.00 6.29
56.00 6.49
57.00 6.70
58.00 6.91
59.00 7.12
60.00 7.35
61.00 7.57
62.00 7.81
63.00 8.05
64.00 8.30
65.00 8.55
66.00 8.81
67.00 9.09
68.00 9.36
69.00 9.65
70.00 9.94
71.00 10.24
72.00 10.55
73.00 10.86
74.00 11.18
75.00 11.51
76.00 11.84
77.00 12.18
78.00 12.52
79.00 12.86
80.00 13.20
81.00 13.54
82.00 13.87
83.00 14.20
84.00 14.53
85.00 14.84
86.00 15.15
87.00 15.45
88.00 15.73
89.00 16.01
90.00 16.27
91.00 16.53
92.00 16.77
93.00 17.00
94.00 17.23
95.00 17.44
96.00 17.66
97.00 17.86
98.00 18.07
99.00 18.27
100.00 18.47
101.00 18.67
102.00 18.86
103.00 19.06
104.00 19.26
105.00 19.46
106.00 19.65
107.00 19.84
108.00 20.04
109.00 20.23
110.00 20.42
111.00 20.61
112.00 20.80
113.00 21.00
114.00 21.20
115.00 21.40
116.00 21.62
117.00 21.84
118.00 22.08
119.00 22.33
120.00 22.59
121.00 22.87
122.00 23.15
123.00 23.44
124.00 23.72
125.00 24.00
126.00 24.25
127.00 24.48
128.00 24.66
129.00 24.79
130.00 24.87
131.00 24.89
132.00 24.87
133.00 24.80
134.00 24.71
135.00 24.60
136.00 24.49
137.00 24.40
138.00 24.33
139.00 24.30
140.00 24.32
141.00 24.38
142.00 24.50
143.00 24.67
144.00 24.91
145.00 25.20
146.00 25.56
147.00 25.97
148.00 26.43
149.00 26.91
150.00 27.41
151.00 27.88
152.00 28.29
153.00 28.61
154.00 28.80
155.00 28.85
156.00 28.76
157.00 28.58
158.00 28.34
159.00 28.08
160.00 27.83
161.00 27.63
162.00 27.49
163.00 27.42
164.00 27.44
165.00 27.55
166.00 27.75
167.00 28.04
168.00 28.43
169.00 28.90
170.00 29.43
171.00 30.00
172.00 30.53
173.00 30.96
174.00 31.19
175.00 31.15
176.00 30.84
177.00 30.31
178.00 29.66
179.00 28.97
180.00 28.30
181.00 27.69
182.00 27.16
183.00 26.72
184.00 26.38
185.00 26.14
186.00 26.01
187.00 25.99
188.00 26.07
189.00 26.27
190.00 26.58
191.00 27.03
192.00 27.62
193.00 28.36
194.00 29.29
195.00 30.42
196.00 31.79
197.00 33.42
198.00 35.27
199.00 37.01
200.00 37.80
201.00 37.02
202.00 35.29
203.00 33.45
204.00 31.82
205.00 30.45
206.00 29.32
207.00 28.39
208.00 27.64
209.00 27.04
210.00 26.59
211.00 26.25
212.00 26.04
213.00 25.94
214.00 25.96
215.00 26.08
216.00 26.32
217.00 26.69
218.00 27.19
219.00 27.85
220.00 28.69
221.00 29.75
222.00 31.09
223.00 32.80
224.00 35.04
225.00 37.98
226.00 41.33
227.00 41.81
228.00 38.45
229.00 35.13
230.00 32.53
231.00 30.50
232.00 28.85
233.00 27.51
234.00 26.38
235.00 25.44
236.00 24.64
237.00 23.96
238.00 23.40
239.00 22.92
240.00 22.54
241.00 22.22
242.00 21.98
243.00 21.80
244.00 21.68
245.00 21.60
246.00 21.56
247.00 21.56
248.00 21.59
249.00 21.63
250.00 21.67
251.00 21.70
252.00 21.71
253.00 21.68
254.00 21.61
255.00 21.48
256.00 21.30
257.00 21.07
258.00 20.79
259.00 20.47
260.00 20.13
261.00 19.76
262.00 19.39
263.00 19.02
264.00 18.65
265.00 18.29
266.00 17.95
267.00 17.61
268.00 17.29
269.00 16.99
270.00 16.69
271.00 16.41
272.00 16.13
273.00 15.86
274.00 15.59
275.00 15.32
276.00 15.04
277.00 14.77
278.00 14.48
279.00 14.19
280.00 13.89
281.00 13.57
282.00 13.25
283.00 12.93
284.00 12.59
285.00 12.26
286.00 11.91
287.00 11.57
288.00 11.23
289.00 10.89
290.00 10.55
291.00 10.22
292.00 9.89
293.00 9.57
294.00 9.26
295.00 8.97
296.00 8.68
297.00 8.40
298.00 8.13
299.00 7.87
300.00 7.62
301.00 7.38
302.00 7.15
303.00 6.93
304.00 6.72
305.00 6.52
306.00 6.33
307.00 6.14
308.00 5.96
309.00 5.79
310.00 5.63
311.00 5.47
312.00 5.31
313.00 5.16
314.00 5.02
315.00 4.88
316.00 4.74
317.00 4.60
318.00 4.47
319.00 4.34
320.00 4.22
321.00 4.09
322.00 3.97
323.00 3.84
324.00 3.72
325.00 3.60
326.00 3.47
327.00 3.35
328.00 3.22
329.00 3.10
330.00 2.97
331.00 2.84
332.00 2.71
333.00 2.57
334.00 2.44
335.00 2.31
336.00 2.17
337.00 2.04
338.00 1.91
339.00 1.78
340.00 1.65
341.00 1.53
342.00 1.40
343.00 1.28
344.00 1.17
345.00 1.06
346.00 0.95
347.00 0.85
348.00 0.75
349.00 0.66
350.00 0.58
351.00 0.50
352.00 0.42
353.00 0.35
354.00 0.29
355.00 0.24
356.00 0.18
357.00 0.14
358.00 0.10
359.00 0.07
VERTICAL 360
0.00 25.99
1.00 45.46
2.00 21.34
3.00 13.21
4.00 8.36
5.00 5.06
6.00 2.76
7.00 1.22
8.00 0.31
9.00 0.00
10.00 0.26
11.00 1.15
12.00 2.76
13.00 5.30
14.00 9.23
15.00 15.85
16.00 27.02
17.00 18.02
18.00 14.43
19.00 13.52
20.00 14.28
21.00 16.62
22.00 21.02
23.00 25.19
24.00 21.20
25.00 17.97
26.00 16.78
27.00 17.17
28.00 19.05
29.00 22.46
30.00 25.62
31.00 23.64
32.00 20.74
33.00 19.14
34.00 18.73
35.00 19.49
36.00 21.70
37.00 26.33
38.00 33.37
39.00 26.99
40.00 22.46
41.00 20.30
42.00 19.40
43.00 19.35
44.00 20.04
45.00 21.57
46.00 24.08
47.00 27.29
48.00 28.61
49.00 26.31
50.00 23.50
51.00 21.14
52.00 19.14
53.00 17.49
54.00 16.27
55.00 15.54
56.00 15.32
57.00 15.54
58.00 16.12
59.00 16.95
60.00 17.94
61.00 19.00
62.00 20.04
63.00 21.01
64.00 21.95
65.00 22.97
66.00 24.18
67.00 25.57
68.00 27.04
69.00 28.42
70.00 29.58
71.00 30.51
72.00 31.35
73.00 32.34
74.00 33.65
75.00 35.10
76.00 35.64
77.00 34.54
78.00 32.87
79.00 31.44
80.00 30.38
81.00 29.82
82.00 29.91
83.00 30.67
84.00 31.74
85.00 32.34
86.00 31.84
87.00 31.05
88.00 31.29
89.00 33.67
90.00 40.04
91.00 43.65
92.00 38.10
93.00 38.61
94.00 47.96
95.00 42.20
96.00 35.02
97.00 32.59
98.00 32.21
99.00 33.10
100.00 35.14
101.00 38.53
102.00 42.49
103.00 42.44
104.00 39.98
105.00 38.37
106.00 38.12
107.00 39.70
108.00 44.02
109.00 53.38
110.00 53.49
111.00 50.25
112.00 49.43
113.00 47.04
114.00 44.35
115.00 42.06
116.00 40.23
117.00 39.18
118.00 39.09
119.00 39.83
120.00 40.95
121.00 41.43
122.00 40.66
123.00 39.38
124.00 38.33
125.00 37.59
126.00 37.14
127.00 37.10
128.00 37.59
129.00 38.61
130.00 39.79
131.00 40.56
132.00 40.71
133.00 40.44
134.00 40.09
135.00 40.40
136.00 42.29
137.00 47.06
138.00 57.34
139.00 50.29
140.00 45.41
141.00 42.58
142.00 40.78
143.00 40.14
144.00 40.69
145.00 42.19
146.00 44.16
147.00 46.26
148.00 48.71
149.00 50.77
150.00 46.54
151.00 41.34
152.00 38.21
153.00 36.89
154.00 36.89
155.00 37.21
156.00 36.52
157.00 35.08
158.00 33.94
159.00 33.35
160.00 33.01
161.00 32.65
162.00 32.25
163.00 31.99
164.00 32.07
165.00 32.40
166.00 32.46
167.00 31.59
168.00 30.04
169.00 28.50
170.00 27.30
171.00 26.54
172.00 26.26
173.00 26.58
174.00 27.65
175.00 29.57
176.00 32.51
177.00 36.54
178.00 41.43
179.00 46.83
180.00 56.66
181.00 46.96
182.00 40.57
183.00 37.75
184.00 36.14
185.00 33.97
186.00 31.43
187.00 29.69
188.00 29.25
189.00 30.20
190.00 32.52
191.00 35.93
192.00 38.77
193.00 38.00
194.00 35.34
195.00 33.38
196.00 32.77
197.00 33.61
198.00 35.50
199.00 36.62
200.00 35.70
201.00 34.79
202.00 35.12
203.00 37.08
204.00 41.53
205.00 52.15
206.00 44.97
207.00 39.24
208.00 36.49
209.00 34.50
210.00 32.37
211.00 30.15
212.00 28.31
213.00 27.15
214.00 26.74
215.00 27.05
216.00 27.92
217.00 29.08
218.00 30.19
219.00 31.16
220.00 32.24
221.00 33.84
222.00 36.40
223.00 40.45
224.00 44.93
225.00 42.72
226.00 39.97
227.00 39.75
228.00 42.29
229.00 46.95
230.00 44.99
231.00 42.50
232.00 43.70
233.00 50.54
234.00 51.48
235.00 43.64
236.00 41.05
237.00 40.51
238.00 40.86
239.00 41.55
240.00 42.80
241.00 45.69
242.00 51.60
243.00 48.83
244.00 43.53
245.00 41.31
246.00 40.83
247.00 41.09
248.00 41.03
249.00 40.35
250.00 39.87
251.00 40.33
252.00 41.90
253.00 44.03
254.00 45.80
255.00 46.53
256.00 44.92
257.00 43.02
258.00 43.41
259.00 48.00
260.00 60.89
261.00 47.87
262.00 45.11
263.00 44.64
264.00 42.22
265.00 39.06
266.00 36.76
267.00 35.20
268.00 34.24
269.00 33.87
270.00 33.90
271.00 33.80
272.00 33.09
273.00 31.94
274.00 30.96
275.00 30.67
276.00 31.30
277.00 32.73
278.00 34.09
279.00 34.09
280.00 33.09
281.00 32.21
282.00 31.75
283.00 31.39
284.00 30.63
285.00 29.55
286.00 28.61
287.00 28.03
288.00 27.77
289.00 27.68
290.00 27.65
291.00 27.58
292.00 27.30
293.00 26.71
294.00 25.90
295.00 25.13
296.00 24.63
297.00 24.44
298.00 24.48
299.00 24.58
300.00 24.53
301.00 24.10
302.00 23.16
303.00 21.95
304.00 20.89
305.00 20.33
306.00 20.40
307.00 21.08
308.00 22.18
309.00 23.41
310.00 24.49
311.00 24.93
312.00 23.88
313.00 21.71
314.00 19.68
315.00 18.36
316.00 17.77
317.00 17.82
318.00 18.44
319.00 19.76
320.00 22.13
321.00 25.57
322.00 25.18
323.00 20.87
324.00 17.72
325.00 15.89
326.00 15.00
327.00 14.79
328.00 15.16
329.00 16.13
330.00 17.88
331.00 20.69
332.00 24.93
333.00 30.08
334.00 30.82
335.00 29.30
336.00 29.42
337.00 30.87
338.00 31.44
339.00 29.29
340.00 26.82
341.00 25.29
342.00 24.84
343.00 25.39
344.00 26.50
345.00 26.74
346.00 25.33
347.00 23.90
348.00 23.55
349.00 24.53
350.00 26.18
351.00 25.71
352.00 23.16
353.00 21.29
354.00 20.86
355.00 22.17
356.00 26.19
357.00 38.63
358.00 30.21
359.00 25.21
