NAME ATR4518R7_0847_X_CO_P45_09T
FREQUENCY 0847
GAIN 14.50 dBd
TILT	ELECTRICAL
COMMENT DATE 05.08.2013 +45 degrees polarized system Lever position 09T deg
HORIZONTAL 360
0.00 0.01
1.00 0.00
2.00 0.01
3.00 0.01
4.00 0.03
5.00 0.05
6.00 0.07
7.00 0.10
8.00 0.14
9.00 0.19
10.00 0.23
11.00 0.29
12.00 0.35
13.00 0.42
14.00 0.49
15.00 0.57
16.00 0.65
17.00 0.74
18.00 0.84
19.00 0.94
20.00 1.05
21.00 1.16
22.00 1.28
23.00 1.40
24.00 1.53
25.00 1.67
26.00 1.81
27.00 1.95
28.00 2.10
29.00 2.26
30.00 2.42
31.00 2.59
32.00 2.76
33.00 2.94
34.00 3.12
35.00 3.31
36.00 3.51
37.00 3.71
38.00 3.91
39.00 4.12
40.00 4.33
41.00 4.55
42.00 4.77
43.00 5.00
44.00 5.23
45.00 5.46
46.00 5.70
47.00 5.95
48.00 6.20
49.00 6.45
50.00 6.71
51.00 6.97
52.00 7.24
53.00 7.51
54.00 7.78
55.00 8.06
56.00 8.34
57.00 8.63
58.00 8.91
59.00 9.21
60.00 9.50
61.00 9.80
62.00 10.10
63.00 10.41
64.00 10.72
65.00 11.04
66.00 11.35
67.00 11.67
68.00 12.00
69.00 12.33
70.00 12.65
71.00 12.99
72.00 13.33
73.00 13.67
74.00 14.01
75.00 14.35
76.00 14.70
77.00 15.05
78.00 15.40
79.00 15.76
80.00 16.12
81.00 16.47
82.00 16.84
83.00 17.20
84.00 17.56
85.00 17.93
86.00 18.29
87.00 18.66
88.00 19.03
89.00 19.39
90.00 19.76
91.00 20.13
92.00 20.49
93.00 20.86
94.00 21.22
95.00 21.58
96.00 21.94
97.00 22.30
98.00 22.65
99.00 23.00
100.00 23.34
101.00 23.68
102.00 24.02
103.00 24.35
104.00 24.68
105.00 24.99
106.00 25.31
107.00 25.61
108.00 25.90
109.00 26.19
110.00 26.46
111.00 26.73
112.00 26.98
113.00 27.22
114.00 27.45
115.00 27.66
116.00 27.85
117.00 28.03
118.00 28.19
119.00 28.34
120.00 28.47
121.00 28.58
122.00 28.68
123.00 28.75
124.00 28.82
125.00 28.87
126.00 28.91
127.00 28.94
128.00 28.96
129.00 28.98
130.00 28.99
131.00 28.99
132.00 29.00
133.00 29.00
134.00 29.01
135.00 29.02
136.00 29.03
137.00 29.06
138.00 29.09
139.00 29.13
140.00 29.18
141.00 29.24
142.00 29.32
143.00 29.41
144.00 29.52
145.00 29.64
146.00 29.78
147.00 29.93
148.00 30.11
149.00 30.31
150.00 30.52
151.00 30.76
152.00 31.02
153.00 31.30
154.00 31.61
155.00 31.94
156.00 32.29
157.00 32.66
158.00 33.06
159.00 33.48
160.00 33.91
161.00 34.35
162.00 34.79
163.00 35.23
164.00 35.64
165.00 36.03
166.00 36.36
167.00 36.61
168.00 36.78
169.00 36.86
170.00 36.84
171.00 36.72
172.00 36.53
173.00 36.26
174.00 35.96
175.00 35.63
176.00 35.28
177.00 34.94
178.00 34.60
179.00 34.28
180.00 33.98
181.00 33.70
182.00 33.45
183.00 33.23
184.00 33.04
185.00 32.87
186.00 32.74
187.00 32.64
188.00 32.58
189.00 32.54
190.00 32.54
191.00 32.57
192.00 32.63
193.00 32.73
194.00 32.87
195.00 33.04
196.00 33.24
197.00 33.49
198.00 33.78
199.00 34.12
200.00 34.50
201.00 34.94
202.00 35.43
203.00 35.98
204.00 36.61
205.00 37.31
206.00 38.10
207.00 39.00
208.00 40.02
209.00 41.18
210.00 42.49
211.00 43.97
212.00 45.56
213.00 47.06
214.00 47.99
215.00 47.85
216.00 46.65
217.00 45.07
218.00 43.47
219.00 41.99
220.00 40.68
221.00 39.50
222.00 38.47
223.00 37.53
224.00 36.70
225.00 35.94
226.00 35.25
227.00 34.62
228.00 34.03
229.00 33.50
230.00 32.99
231.00 32.53
232.00 32.09
233.00 31.67
234.00 31.28
235.00 30.91
236.00 30.55
237.00 30.21
238.00 29.89
239.00 29.57
240.00 29.26
241.00 28.96
242.00 28.66
243.00 28.37
244.00 28.09
245.00 27.80
246.00 27.52
247.00 27.24
248.00 26.95
249.00 26.67
250.00 26.38
251.00 26.10
252.00 25.80
253.00 25.51
254.00 25.21
255.00 24.91
256.00 24.60
257.00 24.29
258.00 23.97
259.00 23.65
260.00 23.33
261.00 22.99
262.00 22.66
263.00 22.32
264.00 21.97
265.00 21.63
266.00 21.27
267.00 20.92
268.00 20.56
269.00 20.20
270.00 19.84
271.00 19.48
272.00 19.12
273.00 18.75
274.00 18.39
275.00 18.03
276.00 17.66
277.00 17.30
278.00 16.94
279.00 16.59
280.00 16.23
281.00 15.88
282.00 15.53
283.00 15.18
284.00 14.84
285.00 14.50
286.00 14.16
287.00 13.82
288.00 13.49
289.00 13.16
290.00 12.84
291.00 12.52
292.00 12.20
293.00 11.89
294.00 11.58
295.00 11.27
296.00 10.97
297.00 10.67
298.00 10.37
299.00 10.07
300.00 9.79
301.00 9.50
302.00 9.22
303.00 8.94
304.00 8.66
305.00 8.39
306.00 8.12
307.00 7.85
308.00 7.59
309.00 7.33
310.00 7.07
311.00 6.82
312.00 6.57
313.00 6.32
314.00 6.08
315.00 5.84
316.00 5.61
317.00 5.38
318.00 5.15
319.00 4.93
320.00 4.71
321.00 4.50
322.00 4.29
323.00 4.08
324.00 3.88
325.00 3.68
326.00 3.49
327.00 3.30
328.00 3.12
329.00 2.94
330.00 2.76
331.00 2.59
332.00 2.43
333.00 2.27
334.00 2.12
335.00 1.97
336.00 1.82
337.00 1.68
338.00 1.55
339.00 1.42
340.00 1.30
341.00 1.18
342.00 1.07
343.00 0.96
344.00 0.86
345.00 0.76
346.00 0.67
347.00 0.59
348.00 0.51
349.00 0.43
350.00 0.37
351.00 0.30
352.00 0.25
353.00 0.20
354.00 0.15
355.00 0.11
356.00 0.08
357.00 0.05
358.00 0.03
359.00 0.02
VERTICAL 360
0.00 17.61
1.00 12.67
2.00 9.07
3.00 6.34
4.00 4.24
5.00 2.63
6.00 1.45
7.00 0.64
8.00 0.16
9.00 0.00
10.00 0.16
11.00 0.63
12.00 1.43
13.00 2.59
14.00 4.14
15.00 6.15
16.00 8.73
17.00 12.04
18.00 16.45
19.00 22.59
20.00 28.66
21.00 26.36
22.00 24.47
23.00 24.75
24.00 27.07
25.00 32.14
26.00 35.17
27.00 28.68
28.00 24.72
29.00 22.55
30.00 21.47
31.00 21.22
32.00 21.68
33.00 22.81
34.00 24.62
35.00 27.01
36.00 29.56
37.00 31.37
38.00 32.23
39.00 33.15
40.00 35.12
41.00 38.59
42.00 40.65
43.00 36.56
44.00 32.46
45.00 29.43
46.00 27.13
47.00 25.43
48.00 24.29
49.00 23.75
50.00 23.82
51.00 24.51
52.00 25.84
53.00 27.76
54.00 30.04
55.00 32.22
56.00 33.99
57.00 36.07
58.00 40.38
59.00 59.48
60.00 40.66
61.00 34.07
62.00 30.66
63.00 28.71
64.00 27.69
65.00 27.40
66.00 27.71
67.00 28.42
68.00 29.15
69.00 29.48
70.00 29.31
71.00 28.94
72.00 28.69
73.00 28.79
74.00 29.35
75.00 30.42
76.00 31.90
77.00 33.48
78.00 34.68
79.00 35.31
80.00 35.72
81.00 36.48
82.00 38.15
83.00 41.00
84.00 42.25
85.00 38.64
86.00 35.29
87.00 33.25
88.00 32.16
89.00 31.63
90.00 31.26
91.00 30.77
92.00 30.10
93.00 29.43
94.00 29.04
95.00 29.10
96.00 29.71
97.00 30.87
98.00 32.49
99.00 34.41
100.00 36.41
101.00 38.31
102.00 40.12
103.00 42.04
104.00 44.40
105.00 47.62
106.00 52.19
107.00 55.61
108.00 52.55
109.00 50.36
110.00 50.31
111.00 50.08
112.00 46.82
113.00 43.55
114.00 41.73
115.00 41.21
116.00 41.57
117.00 42.39
118.00 43.56
119.00 45.50
120.00 48.74
121.00 52.57
122.00 53.63
123.00 53.35
124.00 52.35
125.00 49.09
126.00 45.91
127.00 43.58
128.00 41.75
129.00 40.21
130.00 39.15
131.00 38.76
132.00 39.12
133.00 40.22
134.00 42.07
135.00 44.93
136.00 49.72
137.00 56.33
138.00 48.91
139.00 43.21
140.00 39.64
141.00 37.24
142.00 35.61
143.00 34.52
144.00 33.78
145.00 33.24
146.00 32.80
147.00 32.40
148.00 32.06
149.00 31.83
150.00 31.78
151.00 31.99
152.00 32.52
153.00 33.36
154.00 34.38
155.00 35.28
156.00 35.93
157.00 36.56
158.00 37.59
159.00 39.32
160.00 42.03
161.00 45.95
162.00 48.37
163.00 44.91
164.00 41.84
165.00 40.62
166.00 41.17
167.00 43.15
168.00 43.33
169.00 39.58
170.00 36.05
171.00 33.70
172.00 32.70
173.00 32.33
174.00 32.39
175.00 32.73
176.00 33.24
177.00 33.86
178.00 34.52
179.00 35.08
180.00 35.27
181.00 34.90
182.00 34.15
183.00 33.43
184.00 32.98
185.00 32.91
186.00 33.16
187.00 33.68
188.00 34.39
189.00 35.30
190.00 36.45
191.00 37.96
192.00 39.88
193.00 42.17
194.00 44.53
195.00 46.18
196.00 46.20
197.00 44.83
198.00 43.06
199.00 41.38
200.00 39.87
201.00 38.50
202.00 37.26
203.00 36.29
204.00 35.80
205.00 36.00
206.00 37.05
207.00 38.85
208.00 40.53
209.00 40.53
210.00 39.28
211.00 38.05
212.00 37.10
213.00 36.29
214.00 35.51
215.00 34.80
216.00 34.33
217.00 34.34
218.00 35.00
219.00 36.42
220.00 38.69
221.00 41.92
222.00 45.59
223.00 45.05
224.00 41.29
225.00 38.58
226.00 37.09
227.00 36.41
228.00 36.07
229.00 35.60
230.00 34.70
231.00 33.48
232.00 32.27
233.00 31.40
234.00 31.08
235.00 31.32
236.00 32.04
237.00 33.03
238.00 34.04
239.00 34.84
240.00 34.95
241.00 34.04
242.00 32.60
243.00 31.40
244.00 30.73
245.00 30.53
246.00 30.57
247.00 30.62
248.00 30.60
249.00 30.53
250.00 30.38
251.00 30.15
252.00 29.95
253.00 29.89
254.00 29.91
255.00 29.78
256.00 29.33
257.00 28.64
258.00 27.94
259.00 27.49
260.00 27.44
261.00 27.83
262.00 28.59
263.00 29.41
264.00 29.92
265.00 29.99
266.00 29.76
267.00 29.43
268.00 29.16
269.00 29.13
270.00 29.46
271.00 30.14
272.00 31.02
273.00 31.92
274.00 32.70
275.00 33.33
276.00 33.82
277.00 34.16
278.00 34.32
279.00 34.25
280.00 34.05
281.00 33.84
282.00 33.73
283.00 33.71
284.00 33.63
285.00 33.33
286.00 32.76
287.00 32.04
288.00 31.38
289.00 30.99
290.00 30.93
291.00 31.18
292.00 31.65
293.00 32.22
294.00 32.78
295.00 33.25
296.00 33.60
297.00 33.87
298.00 34.14
299.00 34.51
300.00 35.03
301.00 35.77
302.00 36.81
303.00 38.22
304.00 39.92
305.00 41.62
306.00 42.58
307.00 41.95
308.00 40.28
309.00 38.75
310.00 37.83
311.00 37.16
312.00 35.64
313.00 32.84
314.00 29.71
315.00 27.03
316.00 25.00
317.00 23.65
318.00 22.94
319.00 22.82
320.00 23.24
321.00 24.13
322.00 25.39
323.00 26.97
324.00 28.82
325.00 30.65
326.00 30.92
327.00 28.57
328.00 25.61
329.00 23.26
330.00 21.66
331.00 20.77
332.00 20.55
333.00 20.96
334.00 22.03
335.00 23.83
336.00 26.59
337.00 30.86
338.00 38.80
339.00 46.41
340.00 35.85
341.00 32.25
342.00 30.48
343.00 29.14
344.00 27.42
345.00 25.35
346.00 23.45
347.00 22.05
348.00 21.31
349.00 21.32
350.00 22.19
351.00 24.16
352.00 27.82
353.00 34.17
354.00 34.06
355.00 29.15
356.00 27.57
357.00 29.50
358.00 37.93
359.00 25.35
