NAME ATR4518R7_1850_X_CO_P45_06T_yL
FREQUENCY 1850
GAIN 15.10 dBd
TILT	ELECTRICAL
COMMENT DATE 05.08.2013 +45 degrees polarized system Lever position 06T deg
HORIZONTAL 360
0.00 0.01
1.00 0.02
2.00 0.04
3.00 0.06
4.00 0.08
5.00 0.10
6.00 0.14
7.00 0.17
8.00 0.20
9.00 0.24
10.00 0.28
11.00 0.32
12.00 0.36
13.00 0.41
14.00 0.46
15.00 0.51
16.00 0.57
17.00 0.63
18.00 0.69
19.00 0.75
20.00 0.82
21.00 0.89
22.00 0.97
23.00 1.05
24.00 1.14
25.00 1.24
26.00 1.34
27.00 1.44
28.00 1.55
29.00 1.67
30.00 1.80
31.00 1.93
32.00 2.07
33.00 2.22
34.00 2.37
35.00 2.54
36.00 2.70
37.00 2.88
38.00 3.06
39.00 3.25
40.00 3.44
41.00 3.64
42.00 3.85
43.00 4.06
44.00 4.27
45.00 4.49
46.00 4.72
47.00 4.94
48.00 5.18
49.00 5.41
50.00 5.65
51.00 5.89
52.00 6.14
53.00 6.38
54.00 6.63
55.00 6.88
56.00 7.14
57.00 7.40
58.00 7.66
59.00 7.93
60.00 8.20
61.00 8.47
62.00 8.75
63.00 9.03
64.00 9.32
65.00 9.61
66.00 9.91
67.00 10.21
68.00 10.52
69.00 10.84
70.00 11.15
71.00 11.48
72.00 11.81
73.00 12.14
74.00 12.48
75.00 12.82
76.00 13.17
77.00 13.51
78.00 13.86
79.00 14.21
80.00 14.57
81.00 14.91
82.00 15.26
83.00 15.60
84.00 15.94
85.00 16.27
86.00 16.60
87.00 16.92
88.00 17.24
89.00 17.55
90.00 17.87
91.00 18.18
92.00 18.49
93.00 18.81
94.00 19.14
95.00 19.48
96.00 19.83
97.00 20.21
98.00 20.61
99.00 21.04
100.00 21.50
101.00 22.01
102.00 22.55
103.00 23.15
104.00 23.80
105.00 24.51
106.00 25.28
107.00 26.13
108.00 27.06
109.00 28.07
110.00 29.16
111.00 30.35
112.00 31.63
113.00 33.00
114.00 34.44
115.00 35.91
116.00 37.34
117.00 38.68
118.00 39.83
119.00 40.75
120.00 41.49
121.00 42.12
122.00 42.70
123.00 43.22
124.00 43.56
125.00 43.45
126.00 42.70
127.00 41.37
128.00 39.75
129.00 38.10
130.00 36.54
131.00 35.12
132.00 33.86
133.00 32.76
134.00 31.80
135.00 30.98
136.00 30.28
137.00 29.70
138.00 29.23
139.00 28.86
140.00 28.59
141.00 28.42
142.00 28.35
143.00 28.36
144.00 28.47
145.00 28.67
146.00 28.95
147.00 29.33
148.00 29.79
149.00 30.33
150.00 30.94
151.00 31.59
152.00 32.27
153.00 32.91
154.00 33.47
155.00 33.86
156.00 34.05
157.00 34.03
158.00 33.82
159.00 33.49
160.00 33.12
161.00 32.75
162.00 32.42
163.00 32.16
164.00 31.99
165.00 31.91
166.00 31.93
167.00 32.05
168.00 32.28
169.00 32.62
170.00 33.07
171.00 33.65
172.00 34.36
173.00 35.21
174.00 36.21
175.00 37.37
176.00 38.69
177.00 40.16
178.00 41.71
179.00 43.15
180.00 44.16
181.00 44.43
182.00 44.02
183.00 43.27
184.00 42.48
185.00 41.80
186.00 41.29
187.00 40.98
188.00 40.87
189.00 40.97
190.00 41.28
191.00 41.81
192.00 42.61
193.00 43.72
194.00 45.23
195.00 47.31
196.00 50.26
197.00 54.39
198.00 57.07
199.00 52.98
200.00 48.80
201.00 45.78
202.00 43.51
203.00 41.72
204.00 40.28
205.00 39.09
206.00 38.11
207.00 37.28
208.00 36.60
209.00 36.03
210.00 35.57
211.00 35.21
212.00 34.94
213.00 34.75
214.00 34.65
215.00 34.63
216.00 34.69
217.00 34.82
218.00 35.03
219.00 35.31
220.00 35.64
221.00 36.02
222.00 36.41
223.00 36.78
224.00 37.08
225.00 37.24
226.00 37.22
227.00 37.00
228.00 36.57
229.00 36.01
230.00 35.36
231.00 34.69
232.00 34.02
233.00 33.38
234.00 32.80
235.00 32.27
236.00 31.80
237.00 31.38
238.00 31.03
239.00 30.72
240.00 30.45
241.00 30.22
242.00 30.01
243.00 29.81
244.00 29.60
245.00 29.39
246.00 29.15
247.00 28.88
248.00 28.57
249.00 28.22
250.00 27.84
251.00 27.41
252.00 26.96
253.00 26.49
254.00 26.01
255.00 25.53
256.00 25.05
257.00 24.57
258.00 24.10
259.00 23.65
260.00 23.21
261.00 22.79
262.00 22.38
263.00 21.98
264.00 21.59
265.00 21.22
266.00 20.86
267.00 20.50
268.00 20.16
269.00 19.82
270.00 19.48
271.00 19.16
272.00 18.83
273.00 18.52
274.00 18.20
275.00 17.89
276.00 17.59
277.00 17.29
278.00 17.00
279.00 16.70
280.00 16.42
281.00 16.14
282.00 15.86
283.00 15.59
284.00 15.32
285.00 15.06
286.00 14.80
287.00 14.54
288.00 14.28
289.00 14.03
290.00 13.77
291.00 13.51
292.00 13.26
293.00 13.00
294.00 12.74
295.00 12.47
296.00 12.20
297.00 11.94
298.00 11.67
299.00 11.39
300.00 11.12
301.00 10.84
302.00 10.56
303.00 10.29
304.00 10.02
305.00 9.75
306.00 9.49
307.00 9.22
308.00 8.97
309.00 8.72
310.00 8.47
311.00 8.23
312.00 7.99
313.00 7.76
314.00 7.53
315.00 7.30
316.00 7.07
317.00 6.84
318.00 6.61
319.00 6.37
320.00 6.13
321.00 5.89
322.00 5.64
323.00 5.39
324.00 5.13
325.00 4.87
326.00 4.61
327.00 4.35
328.00 4.08
329.00 3.81
330.00 3.55
331.00 3.29
332.00 3.04
333.00 2.79
334.00 2.55
335.00 2.31
336.00 2.09
337.00 1.88
338.00 1.68
339.00 1.49
340.00 1.31
341.00 1.15
342.00 1.00
343.00 0.86
344.00 0.73
345.00 0.61
346.00 0.51
347.00 0.41
348.00 0.33
349.00 0.26
350.00 0.20
351.00 0.15
352.00 0.10
353.00 0.07
354.00 0.04
355.00 0.02
356.00 0.01
357.00 0.00
358.00 0.00
359.00 0.00
VERTICAL 360
0.00 12.73
1.00 8.43
2.00 5.18
3.00 2.81
4.00 1.20
5.00 0.27
6.00 0.00
7.00 0.37
8.00 1.45
9.00 3.36
10.00 6.44
11.00 11.49
12.00 21.45
13.00 19.71
14.00 14.24
15.00 12.79
16.00 13.58
17.00 16.58
18.00 23.13
19.00 23.97
20.00 17.36
21.00 14.30
22.00 13.19
23.00 13.50
24.00 15.14
25.00 18.23
26.00 22.53
27.00 23.45
28.00 20.45
29.00 18.39
30.00 17.68
31.00 18.26
32.00 20.47
33.00 25.55
34.00 31.07
35.00 23.01
36.00 18.80
37.00 16.88
38.00 16.32
39.00 16.71
40.00 17.72
41.00 19.08
42.00 20.56
43.00 22.11
44.00 23.91
45.00 26.18
46.00 28.75
47.00 30.52
48.00 30.97
49.00 31.66
50.00 33.13
51.00 32.74
52.00 30.01
53.00 27.99
54.00 27.36
55.00 27.98
56.00 29.61
57.00 32.01
58.00 34.81
59.00 37.51
60.00 39.01
61.00 37.99
62.00 35.89
63.00 34.36
64.00 33.79
65.00 34.01
66.00 34.52
67.00 34.64
68.00 34.05
69.00 33.04
70.00 32.08
71.00 31.45
72.00 31.24
73.00 31.38
74.00 31.65
75.00 31.86
76.00 31.90
77.00 31.87
78.00 31.91
79.00 32.12
80.00 32.47
81.00 32.88
82.00 33.30
83.00 33.80
84.00 34.47
85.00 35.17
86.00 35.46
87.00 35.14
88.00 34.39
89.00 33.47
90.00 32.62
91.00 32.15
92.00 32.27
93.00 32.93
94.00 33.85
95.00 34.75
96.00 35.48
97.00 36.10
98.00 36.80
99.00 37.88
100.00 39.44
101.00 41.11
102.00 41.91
103.00 41.31
104.00 40.15
105.00 39.48
106.00 39.80
107.00 41.06
108.00 42.26
109.00 41.68
110.00 39.97
111.00 38.70
112.00 38.40
113.00 39.08
114.00 40.43
115.00 41.41
116.00 41.26
117.00 40.87
118.00 41.20
119.00 42.36
120.00 43.30
121.00 43.02
122.00 43.04
123.00 44.93
124.00 48.58
125.00 48.32
126.00 45.79
127.00 43.58
128.00 40.07
129.00 36.75
130.00 34.74
131.00 33.95
132.00 34.03
133.00 34.47
134.00 34.89
135.00 35.11
136.00 35.22
137.00 35.51
138.00 36.32
139.00 37.81
140.00 39.55
141.00 40.74
142.00 41.38
143.00 41.66
144.00 41.00
145.00 40.10
146.00 40.39
147.00 42.69
148.00 47.73
149.00 56.14
150.00 55.32
151.00 47.57
152.00 42.81
153.00 40.80
154.00 40.69
155.00 39.90
156.00 37.03
157.00 34.71
158.00 33.93
159.00 34.50
160.00 35.71
161.00 36.30
162.00 35.75
163.00 34.45
164.00 32.84
165.00 31.52
166.00 31.00
167.00 31.67
168.00 33.50
169.00 36.42
170.00 39.70
171.00 41.49
172.00 41.76
173.00 41.86
174.00 41.71
175.00 40.36
176.00 38.09
177.00 35.81
178.00 34.18
179.00 33.43
180.00 33.71
181.00 34.49
182.00 35.22
183.00 35.92
184.00 37.38
185.00 40.33
186.00 43.04
187.00 41.26
188.00 39.43
189.00 39.47
190.00 41.16
191.00 44.06
192.00 47.50
193.00 50.09
194.00 49.63
195.00 46.31
196.00 42.88
197.00 40.87
198.00 40.80
199.00 43.18
200.00 49.34
201.00 54.28
202.00 47.04
203.00 41.87
204.00 37.88
205.00 35.47
206.00 34.60
207.00 34.72
208.00 34.43
209.00 32.87
210.00 31.07
211.00 29.85
212.00 29.25
213.00 29.15
214.00 29.36
215.00 29.82
216.00 30.60
217.00 32.00
218.00 34.45
219.00 38.68
220.00 46.54
221.00 54.04
222.00 46.37
223.00 43.86
224.00 42.45
225.00 41.18
226.00 40.52
227.00 40.98
228.00 42.62
229.00 44.77
230.00 46.19
231.00 47.41
232.00 50.74
233.00 59.27
234.00 51.96
235.00 45.97
236.00 43.01
237.00 41.58
238.00 41.25
239.00 41.79
240.00 42.78
241.00 43.36
242.00 43.29
243.00 43.53
244.00 45.08
245.00 48.95
246.00 57.44
247.00 53.60
248.00 46.74
249.00 42.37
250.00 39.03
251.00 36.61
252.00 35.19
253.00 34.80
254.00 35.38
255.00 36.78
256.00 38.76
257.00 41.19
258.00 44.52
259.00 50.52
260.00 52.62
261.00 43.49
262.00 38.40
263.00 35.33
264.00 33.58
265.00 32.75
266.00 32.54
267.00 32.62
268.00 32.71
269.00 32.60
270.00 32.31
271.00 31.98
272.00 31.63
273.00 31.16
274.00 30.62
275.00 30.21
276.00 30.10
277.00 30.27
278.00 30.62
279.00 31.00
280.00 31.33
281.00 31.57
282.00 31.73
283.00 31.85
284.00 31.96
285.00 31.97
286.00 31.52
287.00 30.35
288.00 28.70
289.00 27.07
290.00 25.78
291.00 24.93
292.00 24.42
293.00 24.05
294.00 23.65
295.00 23.24
296.00 23.04
297.00 23.30
298.00 24.28
299.00 26.29
300.00 29.90
301.00 36.96
302.00 48.28
303.00 34.40
304.00 29.32
305.00 26.24
306.00 24.33
307.00 23.46
308.00 23.68
309.00 25.18
310.00 28.58
311.00 36.21
312.00 36.54
313.00 28.20
314.00 24.04
315.00 21.56
316.00 20.17
317.00 19.76
318.00 20.36
319.00 22.09
320.00 25.17
321.00 28.95
322.00 28.02
323.00 24.13
324.00 21.29
325.00 19.59
326.00 18.88
327.00 19.13
328.00 20.30
329.00 22.19
330.00 24.09
331.00 24.99
332.00 25.27
333.00 26.21
334.00 28.63
335.00 31.67
336.00 28.47
337.00 23.89
338.00 21.11
339.00 19.90
340.00 20.13
341.00 21.94
342.00 26.03
343.00 34.69
344.00 33.26
345.00 28.16
346.00 27.13
347.00 27.66
348.00 25.71
349.00 21.71
350.00 18.67
351.00 17.00
352.00 16.62
353.00 17.60
354.00 20.24
355.00 25.47
356.00 34.45
357.00 29.50
358.00 23.88
359.00 18.12
