NAME ATR4518R7_0894_X_CO_P45_05T
FREQUENCY 0894
GAIN 14.82 dBd
TILT	ELECTRICAL
COMMENT DATE 05.08.2013 +45 degrees polarized system Lever position 05T deg
HORIZONTAL 360
0.00 0.01
1.00 0.01
2.00 0.01
3.00 0.01
4.00 0.02
5.00 0.04
6.00 0.06
7.00 0.09
8.00 0.13
9.00 0.17
10.00 0.22
11.00 0.27
12.00 0.33
13.00 0.40
14.00 0.47
15.00 0.55
16.00 0.63
17.00 0.72
18.00 0.82
19.00 0.92
20.00 1.03
21.00 1.15
22.00 1.27
23.00 1.40
24.00 1.53
25.00 1.67
26.00 1.82
27.00 1.97
28.00 2.13
29.00 2.29
30.00 2.46
31.00 2.64
32.00 2.82
33.00 3.01
34.00 3.20
35.00 3.40
36.00 3.61
37.00 3.82
38.00 4.04
39.00 4.26
40.00 4.49
41.00 4.73
42.00 4.97
43.00 5.22
44.00 5.47
45.00 5.73
46.00 5.99
47.00 6.26
48.00 6.54
49.00 6.82
50.00 7.11
51.00 7.40
52.00 7.70
53.00 8.01
54.00 8.32
55.00 8.63
56.00 8.96
57.00 9.28
58.00 9.62
59.00 9.96
60.00 10.30
61.00 10.65
62.00 11.01
63.00 11.37
64.00 11.74
65.00 12.11
66.00 12.49
67.00 12.88
68.00 13.27
69.00 13.67
70.00 14.07
71.00 14.48
72.00 14.89
73.00 15.31
74.00 15.74
75.00 16.17
76.00 16.62
77.00 17.06
78.00 17.52
79.00 17.98
80.00 18.45
81.00 18.93
82.00 19.41
83.00 19.91
84.00 20.41
85.00 20.92
86.00 21.44
87.00 21.97
88.00 22.52
89.00 23.07
90.00 23.63
91.00 24.21
92.00 24.80
93.00 25.40
94.00 26.01
95.00 26.64
96.00 27.28
97.00 27.93
98.00 28.60
99.00 29.27
100.00 29.95
101.00 30.64
102.00 31.32
103.00 31.98
104.00 32.62
105.00 33.23
106.00 33.78
107.00 34.27
108.00 34.67
109.00 34.97
110.00 35.16
111.00 35.25
112.00 35.25
113.00 35.16
114.00 35.02
115.00 34.83
116.00 34.61
117.00 34.36
118.00 34.12
119.00 33.88
120.00 33.64
121.00 33.41
122.00 33.21
123.00 33.02
124.00 32.85
125.00 32.70
126.00 32.57
127.00 32.47
128.00 32.38
129.00 32.32
130.00 32.28
131.00 32.26
132.00 32.26
133.00 32.29
134.00 32.34
135.00 32.41
136.00 32.51
137.00 32.63
138.00 32.78
139.00 32.95
140.00 33.15
141.00 33.38
142.00 33.65
143.00 33.95
144.00 34.29
145.00 34.66
146.00 35.08
147.00 35.55
148.00 36.07
149.00 36.65
150.00 37.31
151.00 38.04
152.00 38.88
153.00 39.83
154.00 40.93
155.00 42.23
156.00 43.79
157.00 45.72
158.00 48.25
159.00 51.87
160.00 58.10
161.00 66.94
162.00 56.03
163.00 50.76
164.00 47.48
165.00 45.10
166.00 43.27
167.00 41.77
168.00 40.52
169.00 39.44
170.00 38.52
171.00 37.70
172.00 36.97
173.00 36.33
174.00 35.75
175.00 35.24
176.00 34.79
177.00 34.38
178.00 34.01
179.00 33.69
180.00 33.41
181.00 33.16
182.00 32.94
183.00 32.75
184.00 32.60
185.00 32.47
186.00 32.38
187.00 32.31
188.00 32.26
189.00 32.24
190.00 32.25
191.00 32.28
192.00 32.33
193.00 32.41
194.00 32.51
195.00 32.64
196.00 32.79
197.00 32.96
198.00 33.16
199.00 33.38
200.00 33.62
201.00 33.89
202.00 34.18
203.00 34.50
204.00 34.84
205.00 35.20
206.00 35.59
207.00 36.00
208.00 36.43
209.00 36.89
210.00 37.37
211.00 37.86
212.00 38.38
213.00 38.90
214.00 39.43
215.00 39.94
216.00 40.44
217.00 40.92
218.00 41.34
219.00 41.70
220.00 41.98
221.00 42.16
222.00 42.24
223.00 42.21
224.00 42.06
225.00 41.84
226.00 41.55
227.00 41.19
228.00 40.79
229.00 40.37
230.00 39.92
231.00 39.46
232.00 39.01
233.00 38.54
234.00 38.08
235.00 37.62
236.00 37.17
237.00 36.71
238.00 36.27
239.00 35.82
240.00 35.38
241.00 34.95
242.00 34.52
243.00 34.10
244.00 33.67
245.00 33.25
246.00 32.83
247.00 32.42
248.00 32.00
249.00 31.58
250.00 31.17
251.00 30.75
252.00 30.33
253.00 29.91
254.00 29.48
255.00 29.06
256.00 28.63
257.00 28.20
258.00 27.76
259.00 27.33
260.00 26.89
261.00 26.44
262.00 26.00
263.00 25.55
264.00 25.10
265.00 24.65
266.00 24.20
267.00 23.75
268.00 23.31
269.00 22.86
270.00 22.41
271.00 21.96
272.00 21.52
273.00 21.08
274.00 20.64
275.00 20.21
276.00 19.77
277.00 19.35
278.00 18.92
279.00 18.51
280.00 18.09
281.00 17.68
282.00 17.28
283.00 16.88
284.00 16.48
285.00 16.09
286.00 15.70
287.00 15.32
288.00 14.94
289.00 14.58
290.00 14.21
291.00 13.84
292.00 13.49
293.00 13.13
294.00 12.79
295.00 12.44
296.00 12.10
297.00 11.76
298.00 11.43
299.00 11.10
300.00 10.78
301.00 10.46
302.00 10.14
303.00 9.83
304.00 9.52
305.00 9.22
306.00 8.92
307.00 8.63
308.00 8.33
309.00 8.04
310.00 7.76
311.00 7.48
312.00 7.21
313.00 6.94
314.00 6.67
315.00 6.41
316.00 6.15
317.00 5.90
318.00 5.65
319.00 5.40
320.00 5.16
321.00 4.93
322.00 4.70
323.00 4.47
324.00 4.25
325.00 4.03
326.00 3.82
327.00 3.62
328.00 3.42
329.00 3.22
330.00 3.03
331.00 2.85
332.00 2.67
333.00 2.50
334.00 2.33
335.00 2.17
336.00 2.01
337.00 1.86
338.00 1.71
339.00 1.57
340.00 1.44
341.00 1.31
342.00 1.19
343.00 1.07
344.00 0.96
345.00 0.86
346.00 0.76
347.00 0.67
348.00 0.58
349.00 0.50
350.00 0.43
351.00 0.36
352.00 0.29
353.00 0.24
354.00 0.19
355.00 0.14
356.00 0.10
357.00 0.07
358.00 0.05
359.00 0.03
VERTICAL 360
0.00 4.69
1.00 2.88
2.00 1.55
3.00 0.65
4.00 0.14
5.00 0.00
6.00 0.26
7.00 0.91
8.00 1.97
9.00 3.49
10.00 5.50
11.00 8.10
12.00 11.48
13.00 16.02
14.00 22.12
15.00 25.83
16.00 23.69
17.00 23.01
18.00 24.69
19.00 29.34
20.00 34.58
21.00 27.90
22.00 23.64
23.00 21.39
24.00 20.31
25.00 20.21
26.00 21.10
27.00 23.20
28.00 26.91
29.00 32.11
30.00 32.73
31.00 29.59
32.00 27.82
33.00 27.28
34.00 27.94
35.00 30.47
36.00 35.75
37.00 30.89
38.00 24.62
39.00 21.07
40.00 19.11
41.00 18.16
42.00 17.81
43.00 17.72
44.00 17.68
45.00 17.75
46.00 18.15
47.00 19.12
48.00 20.76
49.00 23.01
50.00 25.66
51.00 28.54
52.00 32.06
53.00 37.98
54.00 41.65
55.00 34.34
56.00 30.80
57.00 29.38
58.00 29.15
59.00 29.59
60.00 30.24
61.00 30.83
62.00 31.60
63.00 33.11
64.00 35.67
65.00 38.47
66.00 38.09
67.00 34.96
68.00 32.66
69.00 31.98
70.00 32.62
71.00 33.36
72.00 32.93
73.00 32.02
74.00 31.56
75.00 31.95
76.00 33.23
77.00 33.25
78.00 30.43
79.00 27.65
80.00 25.96
81.00 25.46
82.00 26.54
83.00 29.37
84.00 31.05
85.00 29.48
86.00 27.28
87.00 25.68
88.00 25.22
89.00 25.93
90.00 27.83
91.00 31.01
92.00 35.17
93.00 34.97
94.00 30.60
95.00 28.09
96.00 27.13
97.00 27.60
98.00 29.42
99.00 32.21
100.00 34.78
101.00 34.76
102.00 32.83
103.00 31.46
104.00 31.35
105.00 32.34
106.00 33.96
107.00 35.21
108.00 34.79
109.00 33.43
110.00 32.67
111.00 32.99
112.00 34.26
113.00 36.08
114.00 37.11
115.00 36.19
116.00 35.01
117.00 34.81
118.00 35.59
119.00 37.12
120.00 39.33
121.00 41.58
122.00 41.64
123.00 40.03
124.00 38.56
125.00 37.58
126.00 37.37
127.00 38.13
128.00 39.57
129.00 40.80
130.00 40.63
131.00 39.20
132.00 37.87
133.00 37.37
134.00 37.58
135.00 38.20
136.00 39.18
137.00 40.43
138.00 41.16
139.00 40.80
140.00 39.96
141.00 39.31
142.00 39.45
143.00 40.72
144.00 42.87
145.00 44.64
146.00 44.88
147.00 43.82
148.00 42.37
149.00 41.45
150.00 41.17
151.00 41.11
152.00 40.72
153.00 39.60
154.00 38.22
155.00 37.62
156.00 38.45
157.00 40.88
158.00 44.21
159.00 44.52
160.00 41.48
161.00 39.01
162.00 38.04
163.00 38.73
164.00 41.18
165.00 45.42
166.00 50.74
167.00 51.26
168.00 46.16
169.00 41.64
170.00 38.31
171.00 35.92
172.00 34.27
173.00 33.27
174.00 32.87
175.00 33.04
176.00 33.40
177.00 34.01
178.00 34.69
179.00 35.36
180.00 36.22
181.00 37.70
182.00 40.36
183.00 43.98
184.00 44.17
185.00 41.20
186.00 39.08
187.00 37.89
188.00 37.17
189.00 36.47
190.00 35.70
191.00 35.21
192.00 35.42
193.00 36.65
194.00 39.14
195.00 42.77
196.00 44.96
197.00 43.42
198.00 41.67
199.00 40.69
200.00 40.32
201.00 40.57
202.00 41.63
203.00 43.76
204.00 47.47
205.00 53.57
206.00 57.28
207.00 50.49
208.00 44.70
209.00 40.64
210.00 38.00
211.00 36.30
212.00 35.06
213.00 34.14
214.00 33.76
215.00 34.21
216.00 35.66
217.00 37.95
218.00 39.86
219.00 39.17
220.00 36.97
221.00 35.19
222.00 34.21
223.00 33.93
224.00 34.21
225.00 35.07
226.00 36.35
227.00 37.17
228.00 36.86
229.00 36.36
230.00 36.30
231.00 36.55
232.00 37.51
233.00 40.47
234.00 48.90
235.00 50.72
236.00 43.86
237.00 43.74
238.00 45.73
239.00 43.29
240.00 40.61
241.00 40.40
242.00 42.17
243.00 43.29
244.00 42.17
245.00 42.66
246.00 46.96
247.00 44.41
248.00 38.28
249.00 35.50
250.00 34.66
251.00 34.56
252.00 33.93
253.00 32.52
254.00 31.22
255.00 30.68
256.00 31.06
257.00 32.13
258.00 33.15
259.00 33.10
260.00 32.01
261.00 30.91
262.00 30.55
263.00 31.13
264.00 32.34
265.00 33.13
266.00 32.11
267.00 29.91
268.00 28.17
269.00 27.58
270.00 28.24
271.00 29.86
272.00 31.58
273.00 31.99
274.00 30.76
275.00 29.25
276.00 28.56
277.00 28.93
278.00 29.98
279.00 30.54
280.00 29.72
281.00 28.25
282.00 27.12
283.00 26.79
284.00 27.33
285.00 28.48
286.00 29.43
287.00 29.14
288.00 27.86
289.00 26.72
290.00 26.32
291.00 26.81
292.00 28.09
293.00 29.94
294.00 31.91
295.00 32.98
296.00 32.91
297.00 32.99
298.00 34.18
299.00 36.83
300.00 40.86
301.00 43.90
302.00 43.25
303.00 43.65
304.00 44.63
305.00 39.51
306.00 35.05
307.00 32.81
308.00 32.11
309.00 32.21
310.00 32.04
311.00 30.58
312.00 28.31
313.00 26.35
314.00 25.04
315.00 24.08
316.00 22.92
317.00 21.45
318.00 20.02
319.00 19.02
320.00 18.64
321.00 18.95
322.00 19.90
323.00 21.27
324.00 22.64
325.00 23.69
326.00 24.69
327.00 26.25
328.00 28.99
329.00 33.52
330.00 40.39
331.00 45.28
332.00 41.65
333.00 36.93
334.00 33.52
335.00 31.88
336.00 32.12
337.00 34.83
338.00 40.73
339.00 35.36
340.00 29.05
341.00 25.04
342.00 22.17
343.00 20.12
344.00 18.88
345.00 18.49
346.00 19.09
347.00 20.94
348.00 24.81
349.00 33.54
350.00 32.01
351.00 25.08
352.00 22.39
353.00 21.85
354.00 23.13
355.00 24.61
356.00 20.17
357.00 14.54
358.00 10.29
359.00 7.10
