NAME ATR4518R7_0832_X_CO_M45_03T
FREQUENCY 0832
GAIN 14.59 dBd
TILT	ELECTRICAL
COMMENT DATE 05.08.2013 -45 degrees polarized system Lever position 03T deg
HORIZONTAL 360
0.00 0.00
1.00 0.01
2.00 0.03
3.00 0.05
4.00 0.07
5.00 0.10
6.00 0.14
7.00 0.18
8.00 0.23
9.00 0.29
10.00 0.35
11.00 0.42
12.00 0.49
13.00 0.57
14.00 0.66
15.00 0.75
16.00 0.85
17.00 0.95
18.00 1.06
19.00 1.17
20.00 1.30
21.00 1.42
22.00 1.56
23.00 1.70
24.00 1.84
25.00 1.99
26.00 2.15
27.00 2.31
28.00 2.48
29.00 2.66
30.00 2.84
31.00 3.02
32.00 3.22
33.00 3.42
34.00 3.62
35.00 3.83
36.00 4.05
37.00 4.27
38.00 4.50
39.00 4.73
40.00 4.97
41.00 5.22
42.00 5.47
43.00 5.73
44.00 5.99
45.00 6.26
46.00 6.53
47.00 6.81
48.00 7.10
49.00 7.39
50.00 7.69
51.00 7.99
52.00 8.30
53.00 8.61
54.00 8.93
55.00 9.26
56.00 9.59
57.00 9.92
58.00 10.27
59.00 10.61
60.00 10.97
61.00 11.33
62.00 11.70
63.00 12.07
64.00 12.44
65.00 12.82
66.00 13.22
67.00 13.61
68.00 14.01
69.00 14.41
70.00 14.83
71.00 15.24
72.00 15.66
73.00 16.09
74.00 16.52
75.00 16.96
76.00 17.40
77.00 17.84
78.00 18.29
79.00 18.74
80.00 19.18
81.00 19.63
82.00 20.08
83.00 20.53
84.00 20.97
85.00 21.40
86.00 21.83
87.00 22.24
88.00 22.64
89.00 23.03
90.00 23.40
91.00 23.76
92.00 24.09
93.00 24.40
94.00 24.69
95.00 24.96
96.00 25.21
97.00 25.43
98.00 25.64
99.00 25.84
100.00 26.01
101.00 26.18
102.00 26.34
103.00 26.49
104.00 26.63
105.00 26.78
106.00 26.93
107.00 27.08
108.00 27.24
109.00 27.41
110.00 27.58
111.00 27.77
112.00 27.98
113.00 28.20
114.00 28.43
115.00 28.69
116.00 28.97
117.00 29.26
118.00 29.58
119.00 29.92
120.00 30.29
121.00 30.69
122.00 31.11
123.00 31.56
124.00 32.04
125.00 32.56
126.00 33.11
127.00 33.69
128.00 34.31
129.00 34.96
130.00 35.64
131.00 36.35
132.00 37.08
133.00 37.81
134.00 38.52
135.00 39.18
136.00 39.75
137.00 40.18
138.00 40.44
139.00 40.51
140.00 40.39
141.00 40.11
142.00 39.73
143.00 39.28
144.00 38.79
145.00 38.30
146.00 37.82
147.00 37.36
148.00 36.93
149.00 36.52
150.00 36.15
151.00 35.81
152.00 35.49
153.00 35.20
154.00 34.94
155.00 34.70
156.00 34.48
157.00 34.28
158.00 34.10
159.00 33.93
160.00 33.78
161.00 33.63
162.00 33.50
163.00 33.37
164.00 33.25
165.00 33.14
166.00 33.03
167.00 32.93
168.00 32.83
169.00 32.73
170.00 32.63
171.00 32.53
172.00 32.44
173.00 32.35
174.00 32.26
175.00 32.17
176.00 32.09
177.00 32.01
178.00 31.93
179.00 31.87
180.00 31.80
181.00 31.74
182.00 31.69
183.00 31.65
184.00 31.62
185.00 31.60
186.00 31.58
187.00 31.58
188.00 31.59
189.00 31.61
190.00 31.65
191.00 31.70
192.00 31.77
193.00 31.85
194.00 31.94
195.00 32.06
196.00 32.18
197.00 32.33
198.00 32.50
199.00 32.68
200.00 32.89
201.00 33.11
202.00 33.35
203.00 33.62
204.00 33.91
205.00 34.22
206.00 34.56
207.00 34.92
208.00 35.30
209.00 35.72
210.00 36.16
211.00 36.63
212.00 37.12
213.00 37.65
214.00 38.22
215.00 38.81
216.00 39.43
217.00 40.08
218.00 40.78
219.00 41.50
220.00 42.25
221.00 43.03
222.00 43.83
223.00 44.63
224.00 45.44
225.00 46.23
226.00 46.95
227.00 47.55
228.00 48.02
229.00 48.26
230.00 48.28
231.00 48.03
232.00 47.53
233.00 46.83
234.00 46.00
235.00 45.07
236.00 44.06
237.00 43.04
238.00 42.00
239.00 40.96
240.00 39.95
241.00 38.94
242.00 37.97
243.00 37.01
244.00 36.08
245.00 35.18
246.00 34.31
247.00 33.46
248.00 32.64
249.00 31.85
250.00 31.09
251.00 30.35
252.00 29.63
253.00 28.94
254.00 28.27
255.00 27.62
256.00 26.99
257.00 26.38
258.00 25.79
259.00 25.22
260.00 24.66
261.00 24.12
262.00 23.59
263.00 23.09
264.00 22.59
265.00 22.11
266.00 21.64
267.00 21.18
268.00 20.73
269.00 20.29
270.00 19.87
271.00 19.45
272.00 19.04
273.00 18.64
274.00 18.25
275.00 17.87
276.00 17.49
277.00 17.12
278.00 16.76
279.00 16.40
280.00 16.04
281.00 15.70
282.00 15.35
283.00 15.01
284.00 14.68
285.00 14.34
286.00 14.01
287.00 13.69
288.00 13.37
289.00 13.05
290.00 12.73
291.00 12.41
292.00 12.10
293.00 11.79
294.00 11.48
295.00 11.18
296.00 10.87
297.00 10.57
298.00 10.27
299.00 9.98
300.00 9.68
301.00 9.39
302.00 9.10
303.00 8.81
304.00 8.53
305.00 8.25
306.00 7.97
307.00 7.69
308.00 7.42
309.00 7.15
310.00 6.89
311.00 6.63
312.00 6.37
313.00 6.11
314.00 5.87
315.00 5.62
316.00 5.38
317.00 5.14
318.00 4.91
319.00 4.68
320.00 4.46
321.00 4.24
322.00 4.03
323.00 3.82
324.00 3.61
325.00 3.42
326.00 3.22
327.00 3.03
328.00 2.85
329.00 2.67
330.00 2.50
331.00 2.34
332.00 2.18
333.00 2.02
334.00 1.87
335.00 1.72
336.00 1.59
337.00 1.45
338.00 1.33
339.00 1.21
340.00 1.09
341.00 0.98
342.00 0.88
343.00 0.78
344.00 0.69
345.00 0.60
346.00 0.52
347.00 0.44
348.00 0.37
349.00 0.31
350.00 0.25
351.00 0.20
352.00 0.15
353.00 0.12
354.00 0.08
355.00 0.05
356.00 0.03
357.00 0.02
358.00 0.01
359.00 0.00
VERTICAL 360
0.00 1.35
1.00 0.55
2.00 0.11
3.00 0.00
4.00 0.23
5.00 0.80
6.00 1.73
7.00 3.08
8.00 4.89
9.00 7.29
10.00 10.46
11.00 14.81
12.00 21.04
13.00 26.17
14.00 22.84
15.00 20.79
16.00 20.76
17.00 22.51
18.00 26.61
19.00 33.75
20.00 28.42
21.00 23.17
22.00 20.46
23.00 19.13
24.00 18.78
25.00 19.24
26.00 20.49
27.00 22.63
28.00 25.97
29.00 31.22
30.00 37.36
31.00 33.45
32.00 30.09
33.00 29.11
34.00 30.15
35.00 33.92
36.00 37.89
37.00 30.02
38.00 24.58
39.00 21.11
40.00 18.74
41.00 17.11
42.00 16.03
43.00 15.37
44.00 15.04
45.00 15.00
46.00 15.22
47.00 15.68
48.00 16.40
49.00 17.43
50.00 18.81
51.00 20.61
52.00 22.89
53.00 25.74
54.00 29.23
55.00 33.44
56.00 38.39
57.00 42.74
58.00 41.41
59.00 38.06
60.00 35.72
61.00 34.35
62.00 33.81
63.00 34.16
64.00 35.75
65.00 39.46
66.00 46.41
67.00 41.61
68.00 36.45
69.00 34.12
70.00 33.40
71.00 33.66
72.00 34.23
73.00 34.26
74.00 33.14
75.00 31.21
76.00 29.24
77.00 27.70
78.00 26.77
79.00 26.45
80.00 26.59
81.00 26.97
82.00 27.24
83.00 27.17
84.00 26.77
85.00 26.25
86.00 25.88
87.00 25.82
88.00 26.15
89.00 26.88
90.00 27.84
91.00 28.80
92.00 29.43
93.00 29.59
94.00 29.36
95.00 29.05
96.00 28.97
97.00 29.32
98.00 30.18
99.00 31.46
100.00 33.01
101.00 34.59
102.00 36.03
103.00 37.24
104.00 38.11
105.00 38.72
106.00 39.29
107.00 39.96
108.00 40.47
109.00 40.58
110.00 40.47
111.00 40.47
112.00 40.64
113.00 40.73
114.00 40.50
115.00 39.96
116.00 39.36
117.00 38.97
118.00 38.94
119.00 39.15
120.00 39.10
121.00 38.33
122.00 37.06
123.00 35.81
124.00 34.81
125.00 34.06
126.00 33.48
127.00 33.00
128.00 32.61
129.00 32.31
130.00 32.18
131.00 32.34
132.00 32.89
133.00 33.93
134.00 35.48
135.00 37.54
136.00 39.99
137.00 42.64
138.00 45.12
139.00 46.91
140.00 47.18
141.00 45.69
142.00 43.64
143.00 42.10
144.00 41.41
145.00 41.44
146.00 41.51
147.00 40.47
148.00 38.41
149.00 36.36
150.00 34.80
151.00 33.78
152.00 33.29
153.00 33.29
154.00 33.76
155.00 34.74
156.00 36.26
157.00 38.43
158.00 41.42
159.00 45.03
160.00 46.38
161.00 44.12
162.00 41.94
163.00 40.72
164.00 40.34
165.00 40.67
166.00 41.61
167.00 42.60
168.00 42.02
169.00 39.55
170.00 36.93
171.00 34.92
172.00 33.59
173.00 32.76
174.00 32.28
175.00 32.03
176.00 31.87
177.00 31.83
178.00 31.91
179.00 32.21
180.00 32.75
181.00 33.55
182.00 34.57
183.00 35.76
184.00 37.14
185.00 38.89
186.00 41.24
187.00 44.39
188.00 46.64
189.00 44.25
190.00 40.73
191.00 38.09
192.00 36.31
193.00 35.19
194.00 34.60
195.00 34.44
196.00 34.58
197.00 34.87
198.00 35.18
199.00 35.38
200.00 35.48
201.00 35.56
202.00 35.76
203.00 36.22
204.00 37.05
205.00 38.29
206.00 39.84
207.00 41.40
208.00 42.45
209.00 42.58
210.00 42.00
211.00 41.34
212.00 40.99
213.00 40.92
214.00 40.67
215.00 39.92
216.00 39.03
217.00 38.61
218.00 39.00
219.00 40.35
220.00 42.62
221.00 45.26
222.00 46.54
223.00 45.49
224.00 43.56
225.00 41.69
226.00 40.10
227.00 38.72
228.00 37.47
229.00 36.33
230.00 35.36
231.00 34.67
232.00 34.29
233.00 34.20
234.00 34.44
235.00 35.03
236.00 36.08
237.00 37.64
238.00 39.68
239.00 42.05
240.00 44.56
241.00 47.35
242.00 50.94
243.00 54.84
244.00 53.13
245.00 48.80
246.00 45.50
247.00 43.03
248.00 41.16
249.00 39.78
250.00 38.85
251.00 38.33
252.00 38.08
253.00 37.85
254.00 37.38
255.00 36.70
256.00 36.14
257.00 35.99
258.00 36.36
259.00 37.28
260.00 38.74
261.00 40.95
262.00 44.36
263.00 48.92
264.00 48.54
265.00 45.09
266.00 43.49
267.00 43.61
268.00 45.17
269.00 48.13
270.00 54.07
271.00 65.23
272.00 48.42
273.00 42.50
274.00 39.16
275.00 37.27
276.00 36.34
277.00 36.06
278.00 36.08
279.00 36.07
280.00 35.83
281.00 35.39
282.00 34.93
283.00 34.67
284.00 34.75
285.00 35.17
286.00 35.86
287.00 36.63
288.00 37.16
289.00 36.96
290.00 35.88
291.00 34.34
292.00 32.87
293.00 31.71
294.00 30.95
295.00 30.61
296.00 30.76
297.00 31.47
298.00 32.84
299.00 35.04
300.00 38.46
301.00 44.99
302.00 54.46
303.00 39.36
304.00 33.16
305.00 29.00
306.00 25.89
307.00 23.47
308.00 21.58
309.00 20.15
310.00 19.08
311.00 18.33
312.00 17.84
313.00 17.56
314.00 17.49
315.00 17.65
316.00 18.07
317.00 18.84
318.00 20.04
319.00 21.81
320.00 24.25
321.00 27.43
322.00 30.69
323.00 32.01
324.00 31.43
325.00 31.10
326.00 31.74
327.00 33.39
328.00 35.60
329.00 36.45
330.00 34.51
331.00 31.81
332.00 29.58
333.00 28.06
334.00 27.33
335.00 27.58
336.00 29.10
337.00 32.06
338.00 32.77
339.00 28.30
340.00 24.56
341.00 22.29
342.00 21.20
343.00 21.17
344.00 22.24
345.00 24.76
346.00 29.47
347.00 33.20
348.00 27.93
349.00 24.52
350.00 23.48
351.00 24.85
352.00 30.57
353.00 26.99
354.00 18.13
355.00 12.80
356.00 9.06
357.00 6.27
358.00 4.14
359.00 2.53
