NAME ATR4518R7_0894_X_CO_P45_10T
FREQUENCY 0894
GAIN 14.59 dBd
TILT	ELECTRICAL
COMMENT DATE 05.08.2013 +45 degrees polarized system Lever position 10T deg
HORIZONTAL 360
0.00 0.02
1.00 0.01
2.00 0.00
3.00 0.00
4.00 0.00
5.00 0.01
6.00 0.03
7.00 0.05
8.00 0.08
9.00 0.12
10.00 0.16
11.00 0.20
12.00 0.26
13.00 0.31
14.00 0.38
15.00 0.45
16.00 0.53
17.00 0.61
18.00 0.70
19.00 0.79
20.00 0.89
21.00 1.00
22.00 1.11
23.00 1.23
24.00 1.35
25.00 1.48
26.00 1.62
27.00 1.76
28.00 1.91
29.00 2.06
30.00 2.22
31.00 2.39
32.00 2.56
33.00 2.73
34.00 2.92
35.00 3.10
36.00 3.30
37.00 3.49
38.00 3.70
39.00 3.91
40.00 4.12
41.00 4.34
42.00 4.57
43.00 4.80
44.00 5.03
45.00 5.27
46.00 5.52
47.00 5.77
48.00 6.02
49.00 6.28
50.00 6.55
51.00 6.81
52.00 7.09
53.00 7.36
54.00 7.64
55.00 7.93
56.00 8.22
57.00 8.51
58.00 8.81
59.00 9.11
60.00 9.41
61.00 9.72
62.00 10.03
63.00 10.34
64.00 10.66
65.00 10.98
66.00 11.30
67.00 11.63
68.00 11.96
69.00 12.30
70.00 12.64
71.00 12.97
72.00 13.32
73.00 13.67
74.00 14.02
75.00 14.38
76.00 14.74
77.00 15.11
78.00 15.48
79.00 15.85
80.00 16.23
81.00 16.62
82.00 17.01
83.00 17.41
84.00 17.82
85.00 18.24
86.00 18.66
87.00 19.09
88.00 19.53
89.00 19.99
90.00 20.45
91.00 20.92
92.00 21.41
93.00 21.91
94.00 22.43
95.00 22.96
96.00 23.50
97.00 24.07
98.00 24.65
99.00 25.25
100.00 25.88
101.00 26.52
102.00 27.18
103.00 27.87
104.00 28.58
105.00 29.30
106.00 30.04
107.00 30.79
108.00 31.53
109.00 32.26
110.00 32.95
111.00 33.59
112.00 34.13
113.00 34.55
114.00 34.83
115.00 34.96
116.00 34.96
117.00 34.82
118.00 34.59
119.00 34.30
120.00 33.97
121.00 33.62
122.00 33.27
123.00 32.93
124.00 32.61
125.00 32.31
126.00 32.03
127.00 31.78
128.00 31.56
129.00 31.37
130.00 31.20
131.00 31.06
132.00 30.95
133.00 30.86
134.00 30.80
135.00 30.77
136.00 30.76
137.00 30.78
138.00 30.83
139.00 30.90
140.00 31.00
141.00 31.13
142.00 31.28
143.00 31.47
144.00 31.69
145.00 31.94
146.00 32.22
147.00 32.54
148.00 32.89
149.00 33.29
150.00 33.74
151.00 34.23
152.00 34.77
153.00 35.36
154.00 36.01
155.00 36.71
156.00 37.48
157.00 38.30
158.00 39.16
159.00 40.02
160.00 40.82
161.00 41.45
162.00 41.79
163.00 41.76
164.00 41.36
165.00 40.67
166.00 39.82
167.00 38.90
168.00 37.99
169.00 37.11
170.00 36.29
171.00 35.52
172.00 34.82
173.00 34.17
174.00 33.57
175.00 33.03
176.00 32.53
177.00 32.08
178.00 31.67
179.00 31.30
180.00 30.96
181.00 30.66
182.00 30.39
183.00 30.15
184.00 29.94
185.00 29.76
186.00 29.60
187.00 29.47
188.00 29.37
189.00 29.29
190.00 29.24
191.00 29.21
192.00 29.20
193.00 29.21
194.00 29.25
195.00 29.31
196.00 29.39
197.00 29.49
198.00 29.62
199.00 29.76
200.00 29.93
201.00 30.12
202.00 30.32
203.00 30.55
204.00 30.80
205.00 31.06
206.00 31.35
207.00 31.65
208.00 31.97
209.00 32.29
210.00 32.63
211.00 32.97
212.00 33.32
213.00 33.67
214.00 34.00
215.00 34.32
216.00 34.62
217.00 34.88
218.00 35.10
219.00 35.28
220.00 35.40
221.00 35.47
222.00 35.48
223.00 35.44
224.00 35.34
225.00 35.20
226.00 35.01
227.00 34.80
228.00 34.57
229.00 34.32
230.00 34.06
231.00 33.79
232.00 33.52
233.00 33.24
234.00 32.97
235.00 32.70
236.00 32.43
237.00 32.17
238.00 31.91
239.00 31.66
240.00 31.40
241.00 31.16
242.00 30.91
243.00 30.67
244.00 30.42
245.00 30.18
246.00 29.94
247.00 29.70
248.00 29.45
249.00 29.21
250.00 28.95
251.00 28.70
252.00 28.44
253.00 28.17
254.00 27.90
255.00 27.62
256.00 27.34
257.00 27.04
258.00 26.74
259.00 26.43
260.00 26.11
261.00 25.78
262.00 25.44
263.00 25.10
264.00 24.74
265.00 24.38
266.00 24.01
267.00 23.63
268.00 23.25
269.00 22.86
270.00 22.46
271.00 22.06
272.00 21.66
273.00 21.25
274.00 20.84
275.00 20.43
276.00 20.02
277.00 19.61
278.00 19.20
279.00 18.79
280.00 18.39
281.00 17.98
282.00 17.58
283.00 17.18
284.00 16.78
285.00 16.39
286.00 16.00
287.00 15.62
288.00 15.23
289.00 14.86
290.00 14.49
291.00 14.11
292.00 13.75
293.00 13.39
294.00 13.03
295.00 12.68
296.00 12.33
297.00 11.99
298.00 11.65
299.00 11.31
300.00 10.98
301.00 10.66
302.00 10.33
303.00 10.02
304.00 9.70
305.00 9.39
306.00 9.09
307.00 8.79
308.00 8.49
309.00 8.20
310.00 7.91
311.00 7.63
312.00 7.35
313.00 7.08
314.00 6.81
315.00 6.54
316.00 6.28
317.00 6.02
318.00 5.77
319.00 5.53
320.00 5.28
321.00 5.05
322.00 4.81
323.00 4.59
324.00 4.36
325.00 4.15
326.00 3.94
327.00 3.73
328.00 3.53
329.00 3.33
330.00 3.14
331.00 2.95
332.00 2.77
333.00 2.60
334.00 2.43
335.00 2.26
336.00 2.10
337.00 1.95
338.00 1.80
339.00 1.66
340.00 1.53
341.00 1.40
342.00 1.27
343.00 1.15
344.00 1.04
345.00 0.93
346.00 0.83
347.00 0.73
348.00 0.64
349.00 0.56
350.00 0.48
351.00 0.41
352.00 0.34
353.00 0.28
354.00 0.23
355.00 0.18
356.00 0.13
357.00 0.10
358.00 0.07
359.00 0.04
VERTICAL 360
0.00 28.01
1.00 19.39
2.00 13.90
3.00 9.98
4.00 7.01
5.00 4.72
6.00 2.96
7.00 1.65
8.00 0.73
9.00 0.19
10.00 0.00
11.00 0.16
12.00 0.65
13.00 1.50
14.00 2.71
15.00 4.33
16.00 6.45
17.00 9.23
18.00 12.94
19.00 18.23
20.00 26.69
21.00 28.74
22.00 23.70
23.00 21.97
24.00 22.04
25.00 23.45
26.00 26.33
27.00 31.38
28.00 37.08
29.00 32.57
30.00 29.20
31.00 27.99
32.00 28.20
33.00 29.46
34.00 31.58
35.00 34.48
36.00 38.05
37.00 40.66
38.00 39.72
39.00 38.26
40.00 38.06
41.00 38.16
42.00 36.40
43.00 33.26
44.00 30.33
45.00 28.00
46.00 26.27
47.00 25.09
48.00 24.45
49.00 24.43
50.00 25.12
51.00 26.60
52.00 28.79
53.00 31.37
54.00 33.88
55.00 36.29
56.00 39.70
57.00 45.15
58.00 40.06
59.00 34.68
60.00 32.34
61.00 32.08
62.00 33.22
63.00 34.38
64.00 33.53
65.00 31.20
66.00 29.02
67.00 27.68
68.00 27.40
69.00 28.16
70.00 29.66
71.00 31.19
72.00 31.88
73.00 31.84
74.00 31.82
75.00 32.29
76.00 33.14
77.00 33.71
78.00 33.38
79.00 32.63
80.00 32.58
81.00 34.16
82.00 37.79
83.00 37.79
84.00 33.61
85.00 31.36
86.00 30.75
87.00 31.07
88.00 31.80
89.00 32.19
90.00 31.29
91.00 29.85
92.00 29.15
93.00 29.58
94.00 30.85
95.00 32.21
96.00 32.75
97.00 32.24
98.00 31.33
99.00 30.83
100.00 31.03
101.00 31.77
102.00 32.79
103.00 34.19
104.00 36.09
105.00 37.72
106.00 37.70
107.00 36.72
108.00 36.04
109.00 36.09
110.00 36.98
111.00 38.39
112.00 39.36
113.00 39.08
114.00 38.07
115.00 37.45
116.00 37.97
117.00 40.05
118.00 43.70
119.00 47.60
120.00 47.49
121.00 44.37
122.00 42.47
123.00 43.14
124.00 47.96
125.00 69.58
126.00 48.10
127.00 44.22
128.00 42.69
129.00 41.56
130.00 40.51
131.00 39.35
132.00 37.99
133.00 36.88
134.00 36.33
135.00 36.17
136.00 36.19
137.00 36.47
138.00 37.23
139.00 38.47
140.00 40.08
141.00 41.91
142.00 43.91
143.00 46.45
144.00 49.81
145.00 51.14
146.00 49.76
147.00 49.53
148.00 48.85
149.00 46.17
150.00 44.15
151.00 43.47
152.00 43.29
153.00 42.31
154.00 40.48
155.00 38.83
156.00 38.03
157.00 38.33
158.00 39.71
159.00 41.87
160.00 44.30
161.00 46.77
162.00 50.12
163.00 53.50
164.00 45.94
165.00 39.64
166.00 35.71
167.00 33.26
168.00 31.73
169.00 30.77
170.00 30.15
171.00 29.78
172.00 29.90
173.00 30.67
174.00 32.15
175.00 34.22
176.00 36.47
177.00 38.23
178.00 39.06
179.00 39.36
180.00 39.89
181.00 40.65
182.00 40.35
183.00 38.77
184.00 37.28
185.00 36.33
186.00 35.80
187.00 35.62
188.00 35.77
189.00 36.09
190.00 36.55
191.00 37.44
192.00 39.17
193.00 41.82
194.00 44.29
195.00 44.40
196.00 43.18
197.00 42.13
198.00 41.16
199.00 40.03
200.00 39.00
201.00 38.38
202.00 38.10
203.00 37.83
204.00 37.30
205.00 36.70
206.00 36.44
207.00 36.87
208.00 38.24
209.00 40.80
210.00 44.96
211.00 50.04
212.00 47.44
213.00 42.94
214.00 39.78
215.00 37.52
216.00 36.10
217.00 35.43
218.00 35.16
219.00 34.79
220.00 34.25
221.00 33.93
222.00 34.00
223.00 34.32
224.00 34.51
225.00 34.34
226.00 34.17
227.00 34.74
228.00 36.85
229.00 41.88
230.00 60.31
231.00 45.34
232.00 40.19
233.00 38.29
234.00 37.81
235.00 38.19
236.00 38.81
237.00 38.83
238.00 38.32
239.00 38.08
240.00 38.57
241.00 39.98
242.00 42.47
243.00 44.21
244.00 40.38
245.00 36.08
246.00 33.38
247.00 32.03
248.00 31.61
249.00 31.59
250.00 31.39
251.00 30.81
252.00 30.16
253.00 29.87
254.00 30.23
255.00 31.28
256.00 32.74
257.00 33.79
258.00 33.41
259.00 31.89
260.00 30.44
261.00 29.83
262.00 30.31
263.00 31.92
264.00 34.59
265.00 37.11
266.00 35.69
267.00 32.82
268.00 31.22
269.00 30.93
270.00 31.49
271.00 32.59
272.00 34.55
273.00 38.20
274.00 41.39
275.00 37.65
276.00 34.20
277.00 32.29
278.00 31.60
279.00 32.30
280.00 34.82
281.00 39.31
282.00 39.35
283.00 35.13
284.00 32.59
285.00 31.63
286.00 32.21
287.00 34.72
288.00 39.78
289.00 41.19
290.00 36.34
291.00 33.68
292.00 32.81
293.00 33.32
294.00 34.73
295.00 35.25
296.00 33.78
297.00 32.30
298.00 31.84
299.00 32.32
300.00 33.17
301.00 33.34
302.00 32.50
303.00 31.54
304.00 31.21
305.00 31.70
306.00 33.02
307.00 34.92
308.00 36.69
309.00 37.11
310.00 36.23
311.00 35.18
312.00 34.56
313.00 34.50
314.00 34.84
315.00 35.17
316.00 34.82
317.00 33.66
318.00 32.12
319.00 30.59
320.00 29.19
321.00 28.02
322.00 27.22
323.00 26.93
324.00 27.34
325.00 28.68
326.00 31.45
327.00 36.97
328.00 39.30
329.00 31.21
330.00 26.33
331.00 23.17
332.00 21.09
333.00 19.85
334.00 19.37
335.00 19.63
336.00 20.67
337.00 22.62
338.00 25.74
339.00 30.95
340.00 43.49
341.00 37.81
342.00 31.29
343.00 28.99
344.00 28.81
345.00 30.47
346.00 33.11
347.00 31.31
348.00 27.15
349.00 24.42
350.00 23.06
351.00 22.83
352.00 23.60
353.00 25.36
354.00 28.14
355.00 30.85
356.00 30.29
357.00 28.60
358.00 29.03
359.00 33.65
