NAME ATR4518R7_1950_X_CO_M45_03T_yyR
FREQUENCY 1950
GAIN 15.38 dBd
TILT	ELECTRICAL
COMMENT DATE 05.08.2013 -45 degrees polarized system Lever position 03T deg
HORIZONTAL 360
0.00 0.12
1.00 0.09
2.00 0.06
3.00 0.03
4.00 0.02
5.00 0.00
6.00 0.00
7.00 0.00
8.00 0.01
9.00 0.02
10.00 0.04
11.00 0.07
12.00 0.11
13.00 0.16
14.00 0.21
15.00 0.28
16.00 0.35
17.00 0.43
18.00 0.53
19.00 0.63
20.00 0.75
21.00 0.87
22.00 1.01
23.00 1.16
24.00 1.32
25.00 1.49
26.00 1.67
27.00 1.87
28.00 2.07
29.00 2.30
30.00 2.53
31.00 2.77
32.00 3.03
33.00 3.29
34.00 3.57
35.00 3.86
36.00 4.17
37.00 4.48
38.00 4.81
39.00 5.15
40.00 5.49
41.00 5.86
42.00 6.23
43.00 6.61
44.00 7.00
45.00 7.41
46.00 7.82
47.00 8.25
48.00 8.68
49.00 9.13
50.00 9.59
51.00 10.06
52.00 10.53
53.00 11.02
54.00 11.51
55.00 12.01
56.00 12.52
57.00 13.03
58.00 13.54
59.00 14.06
60.00 14.57
61.00 15.09
62.00 15.59
63.00 16.09
64.00 16.58
65.00 17.04
66.00 17.50
67.00 17.93
68.00 18.34
69.00 18.74
70.00 19.11
71.00 19.47
72.00 19.81
73.00 20.13
74.00 20.45
75.00 20.76
76.00 21.07
77.00 21.38
78.00 21.70
79.00 22.03
80.00 22.38
81.00 22.75
82.00 23.14
83.00 23.55
84.00 23.99
85.00 24.47
86.00 24.98
87.00 25.53
88.00 26.12
89.00 26.76
90.00 27.45
91.00 28.20
92.00 29.02
93.00 29.91
94.00 30.90
95.00 31.98
96.00 33.20
97.00 34.58
98.00 36.17
99.00 38.08
100.00 40.43
101.00 43.51
102.00 47.98
103.00 54.82
104.00 52.59
105.00 46.73
106.00 43.05
107.00 40.48
108.00 38.54
109.00 37.00
110.00 35.72
111.00 34.63
112.00 33.70
113.00 32.89
114.00 32.18
115.00 31.56
116.00 31.01
117.00 30.54
118.00 30.12
119.00 29.77
120.00 29.47
121.00 29.22
122.00 29.03
123.00 28.88
124.00 28.79
125.00 28.74
126.00 28.74
127.00 28.79
128.00 28.88
129.00 29.02
130.00 29.22
131.00 29.46
132.00 29.74
133.00 30.07
134.00 30.46
135.00 30.88
136.00 31.36
137.00 31.88
138.00 32.44
139.00 33.04
140.00 33.69
141.00 34.37
142.00 35.08
143.00 35.82
144.00 36.58
145.00 37.37
146.00 38.19
147.00 39.02
148.00 39.89
149.00 40.80
150.00 41.75
151.00 42.74
152.00 43.77
153.00 44.74
154.00 45.50
155.00 45.87
156.00 45.61
157.00 44.79
158.00 43.63
159.00 42.33
160.00 41.06
161.00 39.86
162.00 38.79
163.00 37.82
164.00 36.98
165.00 36.24
166.00 35.61
167.00 35.08
168.00 34.64
169.00 34.30
170.00 34.05
171.00 33.88
172.00 33.81
173.00 33.83
174.00 33.95
175.00 34.16
176.00 34.48
177.00 34.92
178.00 35.49
179.00 36.21
180.00 37.10
181.00 38.20
182.00 39.57
183.00 41.28
184.00 43.46
185.00 46.26
186.00 49.48
187.00 50.68
188.00 48.11
189.00 45.02
190.00 42.53
191.00 40.61
192.00 39.10
193.00 37.91
194.00 36.95
195.00 36.19
196.00 35.60
197.00 35.16
198.00 34.84
199.00 34.66
200.00 34.58
201.00 34.62
202.00 34.76
203.00 35.02
204.00 35.38
205.00 35.84
206.00 36.40
207.00 37.05
208.00 37.76
209.00 38.47
210.00 39.09
211.00 39.50
212.00 39.58
213.00 39.29
214.00 38.69
215.00 37.89
216.00 37.03
217.00 36.17
218.00 35.38
219.00 34.66
220.00 34.03
221.00 33.50
222.00 33.05
223.00 32.69
224.00 32.42
225.00 32.22
226.00 32.11
227.00 32.07
228.00 32.10
229.00 32.21
230.00 32.39
231.00 32.64
232.00 32.95
233.00 33.33
234.00 33.75
235.00 34.22
236.00 34.70
237.00 35.17
238.00 35.58
239.00 35.88
240.00 36.03
241.00 35.99
242.00 35.75
243.00 35.33
244.00 34.80
245.00 34.18
246.00 33.53
247.00 32.88
248.00 32.24
249.00 31.62
250.00 31.05
251.00 30.50
252.00 29.99
253.00 29.50
254.00 29.05
255.00 28.62
256.00 28.21
257.00 27.81
258.00 27.43
259.00 27.06
260.00 26.68
261.00 26.31
262.00 25.94
263.00 25.56
264.00 25.17
265.00 24.78
266.00 24.38
267.00 23.97
268.00 23.55
269.00 23.12
270.00 22.69
271.00 22.25
272.00 21.82
273.00 21.38
274.00 20.94
275.00 20.51
276.00 20.08
277.00 19.65
278.00 19.23
279.00 18.82
280.00 18.42
281.00 18.02
282.00 17.64
283.00 17.27
284.00 16.90
285.00 16.54
286.00 16.19
287.00 15.86
288.00 15.53
289.00 15.20
290.00 14.89
291.00 14.58
292.00 14.28
293.00 13.98
294.00 13.69
295.00 13.40
296.00 13.12
297.00 12.84
298.00 12.55
299.00 12.28
300.00 12.00
301.00 11.72
302.00 11.45
303.00 11.17
304.00 10.90
305.00 10.62
306.00 10.34
307.00 10.06
308.00 9.78
309.00 9.50
310.00 9.22
311.00 8.94
312.00 8.65
313.00 8.37
314.00 8.09
315.00 7.80
316.00 7.52
317.00 7.24
318.00 6.96
319.00 6.68
320.00 6.40
321.00 6.13
322.00 5.86
323.00 5.59
324.00 5.33
325.00 5.07
326.00 4.82
327.00 4.57
328.00 4.33
329.00 4.10
330.00 3.87
331.00 3.65
332.00 3.43
333.00 3.22
334.00 3.02
335.00 2.82
336.00 2.64
337.00 2.46
338.00 2.28
339.00 2.12
340.00 1.96
341.00 1.81
342.00 1.66
343.00 1.52
344.00 1.39
345.00 1.27
346.00 1.15
347.00 1.04
348.00 0.94
349.00 0.84
350.00 0.75
351.00 0.66
352.00 0.58
353.00 0.50
354.00 0.43
355.00 0.37
356.00 0.31
357.00 0.25
358.00 0.20
359.00 0.16
VERTICAL 360
0.00 3.52
1.00 1.58
2.00 0.43
3.00 0.00
4.00 0.34
5.00 1.52
6.00 3.75
7.00 7.46
8.00 14.17
9.00 27.48
10.00 17.72
11.00 13.56
12.00 13.06
13.00 15.07
14.00 20.41
15.00 24.42
16.00 18.17
17.00 15.08
18.00 14.57
19.00 15.99
20.00 19.51
21.00 26.70
22.00 31.94
23.00 23.72
24.00 20.14
25.00 19.03
26.00 19.99
27.00 23.84
28.00 40.04
29.00 29.36
30.00 22.51
31.00 20.37
32.00 20.22
33.00 21.38
34.00 23.66
35.00 27.16
36.00 31.57
37.00 31.89
38.00 28.37
39.00 26.07
40.00 25.14
41.00 24.98
42.00 24.87
43.00 24.32
44.00 23.51
45.00 22.94
46.00 22.90
47.00 23.56
48.00 25.13
49.00 28.10
50.00 33.91
51.00 42.70
52.00 35.04
53.00 30.78
54.00 29.62
55.00 30.31
56.00 32.64
57.00 37.10
58.00 46.82
59.00 46.59
60.00 38.39
61.00 34.95
62.00 33.23
63.00 32.55
64.00 32.69
65.00 33.56
66.00 35.03
67.00 36.79
68.00 38.02
69.00 37.74
70.00 36.19
71.00 34.42
72.00 32.98
73.00 32.00
74.00 31.31
75.00 30.66
76.00 29.89
77.00 29.00
78.00 28.08
79.00 27.24
80.00 26.60
81.00 26.21
82.00 26.03
83.00 26.03
84.00 26.23
85.00 26.66
86.00 27.33
87.00 28.23
88.00 29.30
89.00 30.38
90.00 31.14
91.00 31.11
92.00 30.29
93.00 29.29
94.00 28.62
95.00 28.55
96.00 29.12
97.00 30.27
98.00 31.91
99.00 33.92
100.00 36.21
101.00 38.81
102.00 41.91
103.00 45.96
104.00 52.44
105.00 62.79
106.00 53.47
107.00 47.76
108.00 44.39
109.00 41.93
110.00 40.18
111.00 39.19
112.00 38.92
113.00 39.19
114.00 39.73
115.00 40.25
116.00 40.52
117.00 40.69
118.00 41.24
119.00 42.66
120.00 45.34
121.00 49.94
122.00 58.52
123.00 55.72
124.00 47.63
125.00 43.00
126.00 40.10
127.00 38.64
128.00 38.64
129.00 40.28
130.00 43.56
131.00 46.59
132.00 46.81
133.00 47.91
134.00 51.32
135.00 48.02
136.00 43.14
137.00 41.20
138.00 41.36
139.00 41.99
140.00 40.49
141.00 38.11
142.00 37.08
143.00 38.12
144.00 42.28
145.00 57.98
146.00 47.60
147.00 41.68
148.00 40.08
149.00 39.91
150.00 40.11
151.00 40.06
152.00 39.37
153.00 38.52
154.00 38.69
155.00 40.89
156.00 45.94
157.00 49.42
158.00 46.33
159.00 44.77
160.00 43.59
161.00 41.97
162.00 40.91
163.00 40.67
164.00 41.06
165.00 42.03
166.00 42.22
167.00 40.09
168.00 37.89
169.00 37.18
170.00 38.76
171.00 41.63
172.00 45.00
173.00 47.63
174.00 50.39
175.00 55.36
176.00 55.18
177.00 50.60
178.00 48.15
179.00 51.96
180.00 54.14
181.00 42.16
182.00 38.23
183.00 37.16
184.00 37.93
185.00 39.90
186.00 42.08
187.00 42.75
188.00 41.42
189.00 39.94
190.00 39.53
191.00 40.23
192.00 41.46
193.00 42.85
194.00 44.22
195.00 43.14
196.00 40.20
197.00 38.43
198.00 38.06
199.00 37.97
200.00 37.27
201.00 36.37
202.00 35.50
203.00 34.43
204.00 33.69
205.00 34.12
206.00 36.28
207.00 40.35
208.00 45.40
209.00 50.68
210.00 52.23
211.00 44.17
212.00 40.83
213.00 41.33
214.00 46.22
215.00 49.71
216.00 43.27
217.00 40.97
218.00 41.61
219.00 44.08
220.00 46.11
221.00 45.71
222.00 45.39
223.00 47.04
224.00 51.03
225.00 52.69
226.00 50.08
227.00 49.21
228.00 48.12
229.00 44.84
230.00 42.07
231.00 40.97
232.00 41.60
233.00 44.16
234.00 47.94
235.00 46.51
236.00 42.12
237.00 39.23
238.00 37.46
239.00 36.41
240.00 36.00
241.00 36.32
242.00 37.66
243.00 40.58
244.00 46.53
245.00 53.13
246.00 46.98
247.00 44.27
248.00 44.78
249.00 48.15
250.00 57.71
251.00 60.95
252.00 49.43
253.00 44.77
254.00 41.72
255.00 39.78
256.00 39.01
257.00 39.59
258.00 41.93
259.00 47.16
260.00 55.92
261.00 49.48
262.00 44.48
263.00 42.08
264.00 40.71
265.00 39.86
266.00 39.22
267.00 38.49
268.00 37.61
269.00 36.53
270.00 35.21
271.00 33.89
272.00 32.91
273.00 32.45
274.00 32.45
275.00 32.86
276.00 33.72
277.00 35.05
278.00 36.61
279.00 37.91
280.00 38.53
281.00 38.76
282.00 39.43
283.00 40.83
284.00 40.70
285.00 37.50
286.00 34.29
287.00 32.00
288.00 30.28
289.00 28.76
290.00 27.30
291.00 25.96
292.00 24.92
293.00 24.23
294.00 23.84
295.00 23.68
296.00 23.71
297.00 24.05
298.00 24.88
299.00 26.35
300.00 28.56
301.00 31.40
302.00 34.06
303.00 35.28
304.00 35.49
305.00 36.46
306.00 39.66
307.00 42.86
308.00 36.67
309.00 31.18
310.00 27.62
311.00 24.98
312.00 22.82
313.00 21.04
314.00 19.72
315.00 18.96
316.00 18.77
317.00 19.04
318.00 19.56
319.00 19.99
320.00 20.06
321.00 19.68
322.00 19.05
323.00 18.43
324.00 18.05
325.00 17.98
326.00 18.14
327.00 18.22
328.00 17.93
329.00 17.37
330.00 17.02
331.00 17.37
332.00 18.90
333.00 22.50
334.00 32.07
335.00 34.36
336.00 24.69
337.00 22.30
338.00 22.83
339.00 26.23
340.00 31.15
341.00 26.86
342.00 22.49
343.00 20.91
344.00 21.53
345.00 24.88
346.00 35.78
347.00 30.71
348.00 22.99
349.00 20.17
350.00 19.62
351.00 21.11
352.00 25.52
353.00 33.76
354.00 30.16
355.00 27.13
356.00 23.57
357.00 16.26
358.00 10.46
359.00 6.38
