NAME ATR4518R7_2655_X_CO_M45_10T_yL
FREQUENCY 2655
GAIN 15.27 dBd
TILT	ELECTRICAL
COMMENT DATE 05.08.2013 -45 degrees polarized system Lever position 10T deg
HORIZONTAL 360
0.00 0.03
1.00 0.08
2.00 0.14
3.00 0.22
4.00 0.31
5.00 0.41
6.00 0.52
7.00 0.63
8.00 0.75
9.00 0.85
10.00 0.95
11.00 1.04
12.00 1.11
13.00 1.17
14.00 1.22
15.00 1.25
16.00 1.28
17.00 1.30
18.00 1.33
19.00 1.36
20.00 1.40
21.00 1.46
22.00 1.54
23.00 1.63
24.00 1.75
25.00 1.90
26.00 2.06
27.00 2.25
28.00 2.46
29.00 2.69
30.00 2.93
31.00 3.19
32.00 3.45
33.00 3.71
34.00 3.97
35.00 4.21
36.00 4.44
37.00 4.65
38.00 4.84
39.00 5.01
40.00 5.15
41.00 5.26
42.00 5.36
43.00 5.44
44.00 5.51
45.00 5.58
46.00 5.64
47.00 5.71
48.00 5.78
49.00 5.85
50.00 5.94
51.00 6.05
52.00 6.17
53.00 6.30
54.00 6.45
55.00 6.62
56.00 6.81
57.00 7.01
58.00 7.24
59.00 7.48
60.00 7.73
61.00 8.01
62.00 8.29
63.00 8.59
64.00 8.91
65.00 9.23
66.00 9.57
67.00 9.91
68.00 10.27
69.00 10.62
70.00 10.99
71.00 11.36
72.00 11.73
73.00 12.11
74.00 12.49
75.00 12.88
76.00 13.26
77.00 13.65
78.00 14.03
79.00 14.42
80.00 14.81
81.00 15.21
82.00 15.61
83.00 16.01
84.00 16.41
85.00 16.82
86.00 17.23
87.00 17.64
88.00 18.05
89.00 18.47
90.00 18.88
91.00 19.29
92.00 19.71
93.00 20.12
94.00 20.53
95.00 20.95
96.00 21.37
97.00 21.81
98.00 22.26
99.00 22.74
100.00 23.25
101.00 23.81
102.00 24.41
103.00 25.07
104.00 25.81
105.00 26.62
106.00 27.54
107.00 28.56
108.00 29.72
109.00 31.04
110.00 32.53
111.00 34.24
112.00 36.21
113.00 38.44
114.00 40.86
115.00 42.97
116.00 43.82
117.00 43.09
118.00 41.72
119.00 40.37
120.00 39.24
121.00 38.33
122.00 37.59
123.00 36.98
124.00 36.44
125.00 35.94
126.00 35.47
127.00 35.02
128.00 34.58
129.00 34.18
130.00 33.82
131.00 33.51
132.00 33.28
133.00 33.13
134.00 33.05
135.00 33.06
136.00 33.14
137.00 33.29
138.00 33.46
139.00 33.61
140.00 33.68
141.00 33.60
142.00 33.33
143.00 32.86
144.00 32.25
145.00 31.53
146.00 30.79
147.00 30.07
148.00 29.40
149.00 28.81
150.00 28.31
151.00 27.90
152.00 27.59
153.00 27.38
154.00 27.27
155.00 27.26
156.00 27.35
157.00 27.55
158.00 27.85
159.00 28.25
160.00 28.76
161.00 29.37
162.00 30.09
163.00 30.91
164.00 31.79
165.00 32.72
166.00 33.61
167.00 34.36
168.00 34.84
169.00 34.96
170.00 34.74
171.00 34.27
172.00 33.70
173.00 33.12
174.00 32.59
175.00 32.15
176.00 31.82
177.00 31.62
178.00 31.55
179.00 31.62
180.00 31.83
181.00 32.21
182.00 32.77
183.00 33.55
184.00 34.58
185.00 35.93
186.00 37.70
187.00 40.05
188.00 43.06
189.00 45.72
190.00 44.68
191.00 41.42
192.00 38.56
193.00 36.36
194.00 34.67
195.00 33.35
196.00 32.35
197.00 31.59
198.00 31.05
199.00 30.71
200.00 30.55
201.00 30.58
202.00 30.79
203.00 31.19
204.00 31.80
205.00 32.65
206.00 33.79
207.00 35.30
208.00 37.29
209.00 40.00
210.00 43.75
211.00 47.84
212.00 46.36
213.00 42.25
214.00 39.18
215.00 37.00
216.00 35.41
217.00 34.23
218.00 33.36
219.00 32.72
220.00 32.27
221.00 31.98
222.00 31.81
223.00 31.74
224.00 31.75
225.00 31.81
226.00 31.91
227.00 32.05
228.00 32.20
229.00 32.38
230.00 32.59
231.00 32.85
232.00 33.16
233.00 33.56
234.00 34.06
235.00 34.67
236.00 35.42
237.00 36.31
238.00 37.33
239.00 38.40
240.00 39.39
241.00 40.04
242.00 40.14
243.00 39.66
244.00 38.84
245.00 37.93
246.00 37.09
247.00 36.39
248.00 35.85
249.00 35.48
250.00 35.27
251.00 35.20
252.00 35.25
253.00 35.39
254.00 35.59
255.00 35.79
256.00 35.93
257.00 35.94
258.00 35.80
259.00 35.48
260.00 35.05
261.00 34.54
262.00 34.03
263.00 33.56
264.00 33.17
265.00 32.88
266.00 32.73
267.00 32.72
268.00 32.87
269.00 33.23
270.00 33.82
271.00 34.68
272.00 35.88
273.00 37.47
274.00 39.38
275.00 40.92
276.00 40.43
277.00 38.01
278.00 35.29
279.00 32.89
280.00 30.88
281.00 29.18
282.00 27.75
283.00 26.52
284.00 25.47
285.00 24.55
286.00 23.76
287.00 23.06
288.00 22.44
289.00 21.88
290.00 21.37
291.00 20.88
292.00 20.40
293.00 19.91
294.00 19.41
295.00 18.88
296.00 18.32
297.00 17.74
298.00 17.13
299.00 16.50
300.00 15.87
301.00 15.23
302.00 14.59
303.00 13.97
304.00 13.36
305.00 12.77
306.00 12.21
307.00 11.66
308.00 11.14
309.00 10.64
310.00 10.16
311.00 9.69
312.00 9.25
313.00 8.81
314.00 8.40
315.00 7.99
316.00 7.59
317.00 7.20
318.00 6.83
319.00 6.46
320.00 6.10
321.00 5.75
322.00 5.42
323.00 5.09
324.00 4.78
325.00 4.48
326.00 4.20
327.00 3.93
328.00 3.67
329.00 3.43
330.00 3.21
331.00 2.99
332.00 2.79
333.00 2.60
334.00 2.42
335.00 2.25
336.00 2.09
337.00 1.93
338.00 1.79
339.00 1.65
340.00 1.52
341.00 1.39
342.00 1.27
343.00 1.16
344.00 1.04
345.00 0.93
346.00 0.83
347.00 0.72
348.00 0.62
349.00 0.52
350.00 0.43
351.00 0.34
352.00 0.26
353.00 0.18
354.00 0.12
355.00 0.07
356.00 0.03
357.00 0.00
358.00 0.00
359.00 0.00
VERTICAL 360
0.00 25.88
1.00 21.35
2.00 19.84
3.00 19.71
4.00 17.79
5.00 14.11
6.00 8.86
7.00 4.75
8.00 1.99
9.00 0.43
10.00 0.00
11.00 0.78
12.00 3.11
13.00 8.01
14.00 21.36
15.00 15.68
16.00 10.46
17.00 10.06
18.00 12.76
19.00 20.45
20.00 23.24
21.00 16.06
22.00 14.94
23.00 17.56
24.00 27.06
25.00 26.34
26.00 19.24
27.00 18.79
28.00 23.43
29.00 32.44
30.00 21.71
31.00 18.69
32.00 18.73
33.00 21.46
34.00 22.81
35.00 16.11
36.00 11.84
37.00 9.90
38.00 9.52
39.00 10.26
40.00 11.99
41.00 15.07
42.00 20.65
43.00 30.62
44.00 24.55
45.00 20.82
46.00 19.87
47.00 20.60
48.00 22.94
49.00 26.97
50.00 31.66
51.00 33.30
52.00 32.31
53.00 31.93
54.00 32.94
55.00 34.43
56.00 35.40
57.00 35.56
58.00 34.97
59.00 35.75
60.00 40.36
61.00 48.42
62.00 40.70
63.00 39.70
64.00 44.00
65.00 43.61
66.00 38.91
67.00 37.97
68.00 39.51
69.00 44.32
70.00 68.50
71.00 45.17
72.00 44.48
73.00 54.39
74.00 52.24
75.00 50.43
76.00 43.37
77.00 39.15
78.00 40.81
79.00 52.03
80.00 43.66
81.00 40.83
82.00 39.83
83.00 36.40
84.00 33.46
85.00 32.57
86.00 34.93
87.00 40.79
88.00 37.62
89.00 37.49
90.00 38.46
91.00 32.34
92.00 30.64
93.00 33.97
94.00 48.48
95.00 41.04
96.00 40.53
97.00 42.29
98.00 37.02
99.00 35.03
100.00 35.23
101.00 35.63
102.00 34.78
103.00 33.47
104.00 32.91
105.00 33.11
106.00 33.34
107.00 32.81
108.00 31.79
109.00 31.13
110.00 31.00
111.00 30.95
112.00 30.68
113.00 30.46
114.00 30.81
115.00 31.90
116.00 32.88
117.00 32.67
118.00 32.32
119.00 33.33
120.00 35.80
121.00 35.69
122.00 33.27
123.00 32.98
124.00 35.53
125.00 39.50
126.00 39.84
127.00 41.14
128.00 46.62
129.00 46.19
130.00 45.37
131.00 45.92
132.00 40.78
133.00 37.10
134.00 35.18
135.00 34.95
136.00 36.96
137.00 40.66
138.00 39.74
139.00 36.75
140.00 34.76
141.00 33.19
142.00 31.98
143.00 31.48
144.00 31.92
145.00 33.09
146.00 34.59
147.00 35.88
148.00 35.89
149.00 35.55
150.00 35.33
151.00 34.32
152.00 34.26
153.00 35.88
154.00 36.70
155.00 38.06
156.00 42.05
157.00 38.28
158.00 36.39
159.00 35.28
160.00 32.12
161.00 31.24
162.00 32.81
163.00 32.92
164.00 32.09
165.00 33.69
166.00 37.27
167.00 37.09
168.00 33.31
169.00 31.46
170.00 31.55
171.00 31.02
172.00 29.82
173.00 30.13
174.00 31.08
175.00 31.08
176.00 31.71
177.00 33.20
178.00 34.72
179.00 39.34
180.00 53.23
181.00 38.35
182.00 35.69
183.00 34.20
184.00 32.97
185.00 33.81
186.00 34.25
187.00 32.15
188.00 32.04
189.00 34.78
190.00 37.97
191.00 36.76
192.00 33.85
193.00 32.38
194.00 29.77
195.00 25.71
196.00 23.52
197.00 23.55
198.00 24.96
199.00 26.65
200.00 29.24
201.00 34.28
202.00 39.39
203.00 39.39
204.00 38.34
205.00 37.12
206.00 36.08
207.00 34.78
208.00 35.60
209.00 38.95
210.00 38.94
211.00 39.58
212.00 45.11
213.00 38.14
214.00 33.64
215.00 31.95
216.00 31.67
217.00 32.35
218.00 33.81
219.00 36.14
220.00 39.02
221.00 39.72
222.00 37.03
223.00 33.78
224.00 31.63
225.00 30.63
226.00 30.15
227.00 29.59
228.00 28.96
229.00 28.57
230.00 28.62
231.00 29.17
232.00 30.30
233.00 32.02
234.00 34.28
235.00 36.26
236.00 37.40
237.00 41.11
238.00 50.25
239.00 38.56
240.00 35.60
241.00 36.91
242.00 42.44
243.00 63.90
244.00 47.38
245.00 43.15
246.00 41.87
247.00 44.52
248.00 60.46
249.00 40.36
250.00 36.58
251.00 36.81
252.00 37.96
253.00 38.27
254.00 38.65
255.00 37.95
256.00 38.93
257.00 47.03
258.00 47.57
259.00 41.33
260.00 40.80
261.00 40.05
262.00 41.09
263.00 46.68
264.00 47.82
265.00 43.70
266.00 40.50
267.00 37.46
268.00 35.05
269.00 33.85
270.00 34.95
271.00 38.91
272.00 38.06
273.00 33.77
274.00 31.38
275.00 29.96
276.00 29.23
277.00 29.34
278.00 30.11
279.00 31.05
280.00 31.58
281.00 31.74
282.00 32.13
283.00 33.32
284.00 35.20
285.00 36.75
286.00 37.37
287.00 37.68
288.00 37.59
289.00 36.65
290.00 36.25
291.00 37.95
292.00 42.04
293.00 44.00
294.00 42.74
295.00 41.84
296.00 40.72
297.00 39.84
298.00 38.95
299.00 37.58
300.00 36.89
301.00 38.11
302.00 34.98
303.00 29.12
304.00 25.16
305.00 22.38
306.00 20.02
307.00 17.64
308.00 15.28
309.00 13.08
310.00 11.26
311.00 9.86
312.00 8.94
313.00 8.55
314.00 8.81
315.00 9.84
316.00 11.95
317.00 15.83
318.00 24.58
319.00 24.66
320.00 16.25
321.00 13.81
322.00 13.83
323.00 15.78
324.00 20.06
325.00 30.78
326.00 28.14
327.00 21.35
328.00 20.02
329.00 22.16
330.00 28.87
331.00 27.11
332.00 21.98
333.00 21.25
334.00 24.87
335.00 33.47
336.00 22.17
337.00 18.21
338.00 18.23
339.00 22.76
340.00 29.11
341.00 18.19
342.00 14.01
343.00 12.61
344.00 13.23
345.00 16.29
346.00 24.55
347.00 26.76
348.00 19.53
349.00 18.08
350.00 19.13
351.00 21.56
352.00 24.84
353.00 30.02
354.00 39.16
355.00 26.30
356.00 20.85
357.00 19.91
358.00 23.73
359.00 36.73
