NAME ATR4518R7_1950_X_CO_P45_02T_yyR
FREQUENCY 1950
GAIN 15.45 dBd
TILT	ELECTRICAL
COMMENT DATE 05.08.2013 +45 degrees polarized system Lever position 02T deg
HORIZONTAL 360
0.00 0.12
1.00 0.08
2.00 0.05
3.00 0.03
4.00 0.02
5.00 0.01
6.00 0.00
7.00 0.01
8.00 0.02
9.00 0.03
10.00 0.06
11.00 0.09
12.00 0.13
13.00 0.18
14.00 0.24
15.00 0.31
16.00 0.39
17.00 0.48
18.00 0.58
19.00 0.68
20.00 0.80
21.00 0.93
22.00 1.08
23.00 1.23
24.00 1.39
25.00 1.57
26.00 1.75
27.00 1.95
28.00 2.16
29.00 2.38
30.00 2.61
31.00 2.85
32.00 3.10
33.00 3.36
34.00 3.63
35.00 3.91
36.00 4.20
37.00 4.49
38.00 4.79
39.00 5.10
40.00 5.42
41.00 5.74
42.00 6.06
43.00 6.39
44.00 6.72
45.00 7.06
46.00 7.39
47.00 7.73
48.00 8.08
49.00 8.42
50.00 8.76
51.00 9.11
52.00 9.46
53.00 9.80
54.00 10.15
55.00 10.50
56.00 10.85
57.00 11.20
58.00 11.55
59.00 11.91
60.00 12.26
61.00 12.61
62.00 12.97
63.00 13.32
64.00 13.68
65.00 14.03
66.00 14.39
67.00 14.75
68.00 15.10
69.00 15.46
70.00 15.81
71.00 16.16
72.00 16.52
73.00 16.87
74.00 17.23
75.00 17.58
76.00 17.94
77.00 18.30
78.00 18.66
79.00 19.02
80.00 19.39
81.00 19.76
82.00 20.13
83.00 20.52
84.00 20.90
85.00 21.30
86.00 21.70
87.00 22.10
88.00 22.51
89.00 22.93
90.00 23.36
91.00 23.80
92.00 24.24
93.00 24.69
94.00 25.15
95.00 25.62
96.00 26.11
97.00 26.61
98.00 27.12
99.00 27.66
100.00 28.22
101.00 28.82
102.00 29.44
103.00 30.11
104.00 30.83
105.00 31.61
106.00 32.46
107.00 33.38
108.00 34.39
109.00 35.51
110.00 36.73
111.00 38.05
112.00 39.44
113.00 40.79
114.00 41.89
115.00 42.47
116.00 42.38
117.00 41.73
118.00 40.81
119.00 39.86
120.00 38.98
121.00 38.21
122.00 37.56
123.00 37.03
124.00 36.63
125.00 36.33
126.00 36.13
127.00 36.03
128.00 36.01
129.00 36.08
130.00 36.21
131.00 36.42
132.00 36.67
133.00 36.98
134.00 37.30
135.00 37.63
136.00 37.92
137.00 38.15
138.00 38.28
139.00 38.30
140.00 38.18
141.00 37.94
142.00 37.60
143.00 37.19
144.00 36.74
145.00 36.27
146.00 35.82
147.00 35.38
148.00 34.97
149.00 34.60
150.00 34.27
151.00 33.98
152.00 33.73
153.00 33.53
154.00 33.37
155.00 33.25
156.00 33.18
157.00 33.16
158.00 33.18
159.00 33.25
160.00 33.36
161.00 33.53
162.00 33.75
163.00 34.02
164.00 34.34
165.00 34.72
166.00 35.15
167.00 35.63
168.00 36.15
169.00 36.69
170.00 37.24
171.00 37.73
172.00 38.13
173.00 38.37
174.00 38.41
175.00 38.26
176.00 37.91
177.00 37.44
178.00 36.88
179.00 36.30
180.00 35.74
181.00 35.21
182.00 34.74
183.00 34.33
184.00 34.00
185.00 33.73
186.00 33.54
187.00 33.43
188.00 33.39
189.00 33.42
190.00 33.53
191.00 33.72
192.00 33.99
193.00 34.33
194.00 34.74
195.00 35.23
196.00 35.77
197.00 36.34
198.00 36.93
199.00 37.48
200.00 37.92
201.00 38.20
202.00 38.25
203.00 38.07
204.00 37.70
205.00 37.18
206.00 36.60
207.00 36.00
208.00 35.43
209.00 34.90
210.00 34.43
211.00 34.02
212.00 33.68
213.00 33.41
214.00 33.20
215.00 33.06
216.00 32.97
217.00 32.93
218.00 32.95
219.00 33.01
220.00 33.11
221.00 33.23
222.00 33.38
223.00 33.53
224.00 33.68
225.00 33.80
226.00 33.89
227.00 33.92
228.00 33.89
229.00 33.80
230.00 33.63
231.00 33.41
232.00 33.13
233.00 32.81
234.00 32.46
235.00 32.09
236.00 31.72
237.00 31.35
238.00 30.99
239.00 30.63
240.00 30.30
241.00 29.98
242.00 29.68
243.00 29.39
244.00 29.12
245.00 28.87
246.00 28.63
247.00 28.40
248.00 28.19
249.00 27.99
250.00 27.80
251.00 27.62
252.00 27.44
253.00 27.27
254.00 27.11
255.00 26.95
256.00 26.79
257.00 26.64
258.00 26.48
259.00 26.32
260.00 26.16
261.00 26.00
262.00 25.83
263.00 25.66
264.00 25.48
265.00 25.29
266.00 25.09
267.00 24.88
268.00 24.66
269.00 24.43
270.00 24.19
271.00 23.94
272.00 23.68
273.00 23.41
274.00 23.12
275.00 22.82
276.00 22.52
277.00 22.20
278.00 21.87
279.00 21.54
280.00 21.19
281.00 20.84
282.00 20.49
283.00 20.12
284.00 19.76
285.00 19.38
286.00 19.01
287.00 18.63
288.00 18.25
289.00 17.87
290.00 17.49
291.00 17.11
292.00 16.73
293.00 16.35
294.00 15.97
295.00 15.60
296.00 15.23
297.00 14.86
298.00 14.49
299.00 14.13
300.00 13.76
301.00 13.40
302.00 13.05
303.00 12.70
304.00 12.34
305.00 12.00
306.00 11.65
307.00 11.30
308.00 10.97
309.00 10.63
310.00 10.29
311.00 9.96
312.00 9.62
313.00 9.30
314.00 8.97
315.00 8.65
316.00 8.33
317.00 8.01
318.00 7.69
319.00 7.38
320.00 7.08
321.00 6.77
322.00 6.48
323.00 6.18
324.00 5.89
325.00 5.61
326.00 5.33
327.00 5.06
328.00 4.80
329.00 4.54
330.00 4.28
331.00 4.04
332.00 3.80
333.00 3.57
334.00 3.34
335.00 3.13
336.00 2.92
337.00 2.71
338.00 2.52
339.00 2.33
340.00 2.16
341.00 1.99
342.00 1.82
343.00 1.67
344.00 1.52
345.00 1.38
346.00 1.25
347.00 1.13
348.00 1.01
349.00 0.90
350.00 0.80
351.00 0.70
352.00 0.61
353.00 0.53
354.00 0.45
355.00 0.38
356.00 0.32
357.00 0.26
358.00 0.21
359.00 0.16
VERTICAL 360
0.00 1.57
1.00 0.41
2.00 0.00
3.00 0.33
4.00 1.42
5.00 3.39
6.00 6.53
7.00 11.65
8.00 22.82
9.00 24.47
10.00 16.75
11.00 15.53
12.00 17.43
13.00 23.10
14.00 25.78
15.00 19.21
16.00 16.29
17.00 15.79
18.00 17.10
19.00 20.39
20.00 26.81
21.00 30.01
22.00 23.67
23.00 20.74
24.00 20.37
25.00 22.62
26.00 30.64
27.00 32.96
28.00 22.58
29.00 19.22
30.00 18.26
31.00 18.74
32.00 20.20
33.00 22.27
34.00 24.58
35.00 25.90
36.00 24.96
37.00 23.25
38.00 22.12
39.00 21.58
40.00 21.25
41.00 20.96
42.00 20.93
43.00 21.50
44.00 22.93
45.00 25.42
46.00 29.23
47.00 33.59
48.00 32.76
49.00 28.90
50.00 26.40
51.00 25.31
52.00 25.46
53.00 26.83
54.00 29.43
55.00 33.29
56.00 38.25
57.00 43.04
58.00 43.99
59.00 41.93
60.00 39.81
61.00 38.06
62.00 36.49
63.00 35.07
64.00 33.95
65.00 33.20
66.00 32.72
67.00 32.30
68.00 31.73
69.00 31.03
70.00 30.38
71.00 29.92
72.00 29.69
73.00 29.56
74.00 29.34
75.00 28.91
76.00 28.31
77.00 27.65
78.00 27.02
79.00 26.45
80.00 25.94
81.00 25.56
82.00 25.41
83.00 25.59
84.00 26.13
85.00 26.95
86.00 27.84
87.00 28.58
88.00 29.13
89.00 29.50
90.00 29.67
91.00 29.71
92.00 29.78
93.00 30.10
94.00 30.72
95.00 31.68
96.00 32.96
97.00 34.45
98.00 35.98
99.00 37.27
100.00 37.94
101.00 38.21
102.00 38.79
103.00 40.00
104.00 41.54
105.00 42.73
106.00 43.00
107.00 42.60
108.00 42.48
109.00 43.46
110.00 46.04
111.00 50.53
112.00 55.51
113.00 56.55
114.00 56.56
115.00 58.59
116.00 62.67
117.00 54.52
118.00 46.80
119.00 42.41
120.00 39.89
121.00 38.45
122.00 37.38
123.00 36.19
124.00 34.81
125.00 33.42
126.00 32.26
127.00 31.57
128.00 31.53
129.00 32.21
130.00 33.48
131.00 35.07
132.00 36.68
133.00 38.41
134.00 40.81
135.00 44.34
136.00 46.83
137.00 44.24
138.00 41.01
139.00 39.06
140.00 38.20
141.00 38.23
142.00 38.97
143.00 40.08
144.00 41.25
145.00 42.49
146.00 42.80
147.00 40.53
148.00 37.82
149.00 36.56
150.00 37.07
151.00 39.34
152.00 42.47
153.00 43.28
154.00 41.26
155.00 39.13
156.00 37.75
157.00 37.15
158.00 37.30
159.00 38.72
160.00 42.24
161.00 42.23
162.00 37.05
163.00 34.63
164.00 35.20
165.00 39.48
166.00 48.47
167.00 41.82
168.00 37.40
169.00 36.32
170.00 36.95
171.00 38.39
172.00 38.14
173.00 35.49
174.00 33.15
175.00 32.01
176.00 31.94
177.00 32.59
178.00 33.54
179.00 34.62
180.00 35.75
181.00 37.49
182.00 40.23
183.00 43.78
184.00 48.72
185.00 59.92
186.00 51.59
187.00 46.08
188.00 44.46
189.00 42.02
190.00 38.68
191.00 36.75
192.00 36.71
193.00 38.37
194.00 41.08
195.00 42.77
196.00 42.15
197.00 41.67
198.00 42.94
199.00 43.92
200.00 41.05
201.00 38.69
202.00 38.73
203.00 40.96
204.00 44.39
205.00 47.89
206.00 47.85
207.00 41.35
208.00 36.99
209.00 35.14
210.00 35.27
211.00 37.13
212.00 40.09
213.00 41.00
214.00 38.53
215.00 36.04
216.00 34.53
217.00 34.06
218.00 34.54
219.00 35.57
220.00 36.59
221.00 37.19
222.00 36.98
223.00 35.78
224.00 34.49
225.00 33.99
226.00 34.64
227.00 36.63
228.00 40.27
229.00 45.71
230.00 51.88
231.00 62.03
232.00 49.43
233.00 41.92
234.00 38.90
235.00 38.50
236.00 40.57
237.00 46.67
238.00 53.49
239.00 44.08
240.00 40.33
241.00 39.18
242.00 39.50
243.00 40.75
244.00 42.42
245.00 43.79
246.00 44.70
247.00 46.36
248.00 51.27
249.00 63.03
250.00 51.21
251.00 46.17
252.00 43.14
253.00 40.09
254.00 37.66
255.00 36.46
256.00 36.40
257.00 37.03
258.00 37.90
259.00 38.84
260.00 39.88
261.00 41.38
262.00 44.32
263.00 45.62
264.00 40.81
265.00 37.30
266.00 36.04
267.00 36.39
268.00 37.74
269.00 39.41
270.00 40.73
271.00 41.17
272.00 40.47
273.00 39.35
274.00 38.63
275.00 38.63
276.00 39.41
277.00 40.62
278.00 41.43
279.00 42.08
280.00 44.43
281.00 47.89
282.00 44.36
283.00 40.37
284.00 37.87
285.00 34.91
286.00 31.71
287.00 29.18
288.00 27.47
289.00 26.40
290.00 25.77
291.00 25.43
292.00 25.27
293.00 25.27
294.00 25.54
295.00 26.30
296.00 27.86
297.00 30.76
298.00 36.20
299.00 41.93
300.00 35.87
301.00 31.60
302.00 29.42
303.00 28.13
304.00 27.15
305.00 26.32
306.00 25.74
307.00 25.53
308.00 25.56
309.00 25.57
310.00 25.29
311.00 24.71
312.00 23.98
313.00 23.24
314.00 22.59
315.00 22.12
316.00 21.92
317.00 21.96
318.00 22.09
319.00 21.97
320.00 21.41
321.00 20.63
322.00 20.04
323.00 19.87
324.00 20.12
325.00 20.48
326.00 20.41
327.00 19.75
328.00 18.98
329.00 18.75
330.00 19.50
331.00 21.82
332.00 27.27
333.00 37.91
334.00 27.32
335.00 22.11
336.00 20.27
337.00 20.66
338.00 23.79
339.00 35.30
340.00 32.34
341.00 24.03
342.00 21.98
343.00 22.69
344.00 25.80
345.00 28.63
346.00 25.15
347.00 21.45
348.00 19.64
349.00 19.51
350.00 21.15
351.00 24.30
352.00 24.75
353.00 22.02
354.00 21.32
355.00 22.05
356.00 17.44
357.00 11.13
358.00 6.65
359.00 3.59
