NAME ATR4518R7_2535_X_CO_M45_07T_yL
FREQUENCY 2535
GAIN 15.66 dBd
TILT	ELECTRICAL
COMMENT DATE 05.08.2013 -45 degrees polarized system Lever position 07T deg
HORIZONTAL 360
0.00 0.03
1.00 0.07
2.00 0.11
3.00 0.17
4.00 0.24
5.00 0.31
6.00 0.40
7.00 0.50
8.00 0.60
9.00 0.71
10.00 0.83
11.00 0.94
12.00 1.06
13.00 1.18
14.00 1.30
15.00 1.42
16.00 1.54
17.00 1.65
18.00 1.77
19.00 1.89
20.00 2.02
21.00 2.15
22.00 2.28
23.00 2.41
24.00 2.56
25.00 2.71
26.00 2.87
27.00 3.03
28.00 3.21
29.00 3.39
30.00 3.58
31.00 3.78
32.00 3.98
33.00 4.20
34.00 4.41
35.00 4.63
36.00 4.86
37.00 5.09
38.00 5.32
39.00 5.55
40.00 5.79
41.00 6.03
42.00 6.27
43.00 6.52
44.00 6.77
45.00 7.02
46.00 7.28
47.00 7.54
48.00 7.80
49.00 8.07
50.00 8.34
51.00 8.61
52.00 8.89
53.00 9.17
54.00 9.46
55.00 9.75
56.00 10.04
57.00 10.34
58.00 10.64
59.00 10.95
60.00 11.26
61.00 11.58
62.00 11.90
63.00 12.23
64.00 12.56
65.00 12.90
66.00 13.25
67.00 13.60
68.00 13.96
69.00 14.32
70.00 14.68
71.00 15.05
72.00 15.42
73.00 15.78
74.00 16.14
75.00 16.50
76.00 16.85
77.00 17.18
78.00 17.51
79.00 17.83
80.00 18.13
81.00 18.42
82.00 18.71
83.00 18.99
84.00 19.27
85.00 19.55
86.00 19.83
87.00 20.13
88.00 20.44
89.00 20.76
90.00 21.11
91.00 21.48
92.00 21.87
93.00 22.28
94.00 22.71
95.00 23.16
96.00 23.62
97.00 24.10
98.00 24.58
99.00 25.06
100.00 25.53
101.00 25.99
102.00 26.45
103.00 26.90
104.00 27.34
105.00 27.78
106.00 28.24
107.00 28.71
108.00 29.22
109.00 29.78
110.00 30.38
111.00 31.06
112.00 31.82
113.00 32.66
114.00 33.60
115.00 34.64
116.00 35.78
117.00 37.00
118.00 38.23
119.00 39.38
120.00 40.27
121.00 40.71
122.00 40.62
123.00 40.12
124.00 39.40
125.00 38.60
126.00 37.83
127.00 37.14
128.00 36.53
129.00 36.02
130.00 35.60
131.00 35.26
132.00 35.02
133.00 34.87
134.00 34.81
135.00 34.84
136.00 34.96
137.00 35.18
138.00 35.49
139.00 35.89
140.00 36.37
141.00 36.93
142.00 37.53
143.00 38.13
144.00 38.68
145.00 39.11
146.00 39.35
147.00 39.37
148.00 39.19
149.00 38.87
150.00 38.46
151.00 38.04
152.00 37.64
153.00 37.29
154.00 37.00
155.00 36.79
156.00 36.63
157.00 36.54
158.00 36.49
159.00 36.46
160.00 36.43
161.00 36.39
162.00 36.31
163.00 36.17
164.00 35.96
165.00 35.68
166.00 35.33
167.00 34.93
168.00 34.51
169.00 34.09
170.00 33.68
171.00 33.31
172.00 33.00
173.00 32.75
174.00 32.58
175.00 32.50
176.00 32.52
177.00 32.65
178.00 32.90
179.00 33.28
180.00 33.79
181.00 34.44
182.00 35.23
183.00 36.13
184.00 37.09
185.00 37.97
186.00 38.56
187.00 38.64
188.00 38.21
189.00 37.43
190.00 36.53
191.00 35.68
192.00 34.97
193.00 34.42
194.00 34.06
195.00 33.89
196.00 33.92
197.00 34.17
198.00 34.66
199.00 35.42
200.00 36.53
201.00 38.09
202.00 40.30
203.00 43.66
204.00 49.81
205.00 71.34
206.00 48.55
207.00 42.84
208.00 39.52
209.00 37.25
210.00 35.60
211.00 34.36
212.00 33.44
213.00 32.77
214.00 32.31
215.00 32.04
216.00 31.93
217.00 31.99
218.00 32.20
219.00 32.55
220.00 33.04
221.00 33.66
222.00 34.40
223.00 35.21
224.00 36.05
225.00 36.80
226.00 37.31
227.00 37.45
228.00 37.18
229.00 36.61
230.00 35.86
231.00 35.07
232.00 34.30
233.00 33.62
234.00 33.01
235.00 32.50
236.00 32.07
237.00 31.72
238.00 31.45
239.00 31.24
240.00 31.09
241.00 30.98
242.00 30.91
243.00 30.86
244.00 30.83
245.00 30.79
246.00 30.73
247.00 30.64
248.00 30.49
249.00 30.29
250.00 30.03
251.00 29.70
252.00 29.32
253.00 28.89
254.00 28.42
255.00 27.94
256.00 27.45
257.00 26.95
258.00 26.47
259.00 26.01
260.00 25.57
261.00 25.16
262.00 24.77
263.00 24.42
264.00 24.10
265.00 23.81
266.00 23.54
267.00 23.31
268.00 23.10
269.00 22.91
270.00 22.75
271.00 22.59
272.00 22.44
273.00 22.30
274.00 22.15
275.00 22.00
276.00 21.83
277.00 21.64
278.00 21.43
279.00 21.20
280.00 20.94
281.00 20.65
282.00 20.34
283.00 20.01
284.00 19.66
285.00 19.29
286.00 18.91
287.00 18.52
288.00 18.13
289.00 17.72
290.00 17.31
291.00 16.89
292.00 16.47
293.00 16.05
294.00 15.63
295.00 15.21
296.00 14.78
297.00 14.36
298.00 13.94
299.00 13.52
300.00 13.11
301.00 12.70
302.00 12.29
303.00 11.89
304.00 11.50
305.00 11.10
306.00 10.71
307.00 10.33
308.00 9.94
309.00 9.56
310.00 9.17
311.00 8.79
312.00 8.41
313.00 8.02
314.00 7.63
315.00 7.25
316.00 6.86
317.00 6.48
318.00 6.10
319.00 5.72
320.00 5.35
321.00 4.98
322.00 4.62
323.00 4.28
324.00 3.94
325.00 3.63
326.00 3.32
327.00 3.03
328.00 2.76
329.00 2.50
330.00 2.26
331.00 2.04
332.00 1.83
333.00 1.64
334.00 1.47
335.00 1.32
336.00 1.18
337.00 1.06
338.00 0.95
339.00 0.85
340.00 0.77
341.00 0.69
342.00 0.62
343.00 0.56
344.00 0.50
345.00 0.45
346.00 0.40
347.00 0.35
348.00 0.30
349.00 0.26
350.00 0.21
351.00 0.17
352.00 0.13
353.00 0.09
354.00 0.06
355.00 0.04
356.00 0.02
357.00 0.01
358.00 0.00
359.00 0.01
VERTICAL 360
0.00 23.03
1.00 20.10
2.00 14.24
3.00 8.76
4.00 4.66
5.00 1.90
6.00 0.37
7.00 0.00
8.00 0.87
9.00 3.24
10.00 8.05
11.00 20.58
12.00 16.08
13.00 10.59
14.00 10.10
15.00 12.58
16.00 17.82
17.00 18.24
18.00 14.65
19.00 13.88
20.00 16.08
21.00 23.42
22.00 29.06
23.00 19.41
24.00 17.76
25.00 20.15
26.00 29.96
27.00 26.73
28.00 20.28
29.00 19.32
30.00 21.86
31.00 30.86
32.00 24.99
33.00 17.24
34.00 13.62
35.00 12.18
36.00 12.43
37.00 14.15
38.00 17.22
39.00 22.02
40.00 31.85
41.00 33.94
42.00 26.00
43.00 24.56
44.00 25.78
45.00 27.45
46.00 27.17
47.00 27.01
48.00 28.88
49.00 32.59
50.00 34.60
51.00 35.20
52.00 38.83
53.00 47.79
54.00 44.85
55.00 39.32
56.00 35.12
57.00 32.51
58.00 31.70
59.00 32.41
60.00 33.99
61.00 35.33
62.00 35.85
63.00 36.15
64.00 36.91
65.00 38.91
66.00 43.03
67.00 50.91
68.00 53.61
69.00 43.66
70.00 40.14
71.00 40.88
72.00 46.43
73.00 59.21
74.00 53.91
75.00 42.53
76.00 39.14
77.00 41.60
78.00 55.34
79.00 44.95
80.00 47.01
81.00 48.51
82.00 40.06
83.00 39.77
84.00 44.74
85.00 49.11
86.00 43.59
87.00 38.08
88.00 35.82
89.00 36.73
90.00 39.71
91.00 40.69
92.00 37.81
93.00 35.45
94.00 35.62
95.00 38.76
96.00 43.54
97.00 43.64
98.00 40.75
99.00 39.30
100.00 40.73
101.00 44.92
102.00 50.05
103.00 51.50
104.00 47.86
105.00 51.31
106.00 51.32
107.00 43.66
108.00 43.46
109.00 44.91
110.00 42.94
111.00 42.91
112.00 43.33
113.00 43.01
114.00 44.42
115.00 42.95
116.00 41.53
117.00 44.66
118.00 57.50
119.00 56.23
120.00 49.42
121.00 42.98
122.00 38.24
123.00 34.39
124.00 31.80
125.00 30.84
126.00 31.42
127.00 33.21
128.00 35.42
129.00 36.54
130.00 36.48
131.00 36.45
132.00 36.86
133.00 38.09
134.00 40.58
135.00 43.65
136.00 44.34
137.00 41.92
138.00 38.69
139.00 35.81
140.00 33.47
141.00 31.83
142.00 31.12
143.00 31.36
144.00 32.23
145.00 33.49
146.00 35.56
147.00 39.05
148.00 43.41
149.00 44.67
150.00 44.05
151.00 46.16
152.00 47.37
153.00 41.69
154.00 39.14
155.00 39.82
156.00 42.72
157.00 42.66
158.00 40.54
159.00 40.86
160.00 43.24
161.00 45.00
162.00 44.39
163.00 42.56
164.00 41.81
165.00 41.73
166.00 41.35
167.00 44.37
168.00 42.15
169.00 34.86
170.00 31.86
171.00 30.98
172.00 31.15
173.00 32.90
174.00 38.35
175.00 50.42
176.00 43.22
177.00 41.20
178.00 37.06
179.00 35.11
180.00 36.38
181.00 39.06
182.00 40.29
183.00 39.88
184.00 36.60
185.00 34.63
186.00 35.50
187.00 39.27
188.00 42.80
189.00 39.04
190.00 35.59
191.00 34.45
192.00 36.06
193.00 41.01
194.00 41.01
195.00 36.86
196.00 35.51
197.00 36.05
198.00 37.76
199.00 37.88
200.00 35.74
201.00 34.93
202.00 36.37
203.00 40.35
204.00 46.65
205.00 43.15
206.00 39.41
207.00 38.74
208.00 39.64
209.00 39.69
210.00 38.04
211.00 36.45
212.00 35.84
213.00 36.14
214.00 37.14
215.00 39.18
216.00 43.24
217.00 47.56
218.00 45.03
219.00 43.08
220.00 42.91
221.00 42.88
222.00 41.16
223.00 38.96
224.00 37.59
225.00 36.11
226.00 33.81
227.00 32.02
228.00 31.54
229.00 32.18
230.00 33.31
231.00 34.49
232.00 35.13
233.00 34.54
234.00 33.52
235.00 32.90
236.00 32.43
237.00 31.48
238.00 30.25
239.00 29.55
240.00 29.86
241.00 31.19
242.00 33.34
243.00 36.24
244.00 40.67
245.00 48.25
246.00 44.84
247.00 40.32
248.00 38.97
249.00 39.42
250.00 40.70
251.00 41.47
252.00 41.18
253.00 41.17
254.00 42.13
255.00 43.64
256.00 45.98
257.00 51.13
258.00 50.66
259.00 43.62
260.00 38.86
261.00 35.51
262.00 33.62
263.00 33.21
264.00 34.08
265.00 35.81
266.00 37.94
267.00 40.08
268.00 42.17
269.00 46.81
270.00 56.58
271.00 41.03
272.00 36.44
273.00 34.63
274.00 33.82
275.00 33.65
276.00 35.00
277.00 39.00
278.00 46.31
279.00 43.92
280.00 39.83
281.00 38.05
282.00 38.25
283.00 40.56
284.00 43.31
285.00 42.65
286.00 41.96
287.00 43.50
288.00 47.37
289.00 48.97
290.00 44.27
291.00 39.60
292.00 35.66
293.00 32.84
294.00 31.44
295.00 31.45
296.00 31.90
297.00 29.68
298.00 25.40
299.00 21.54
300.00 18.51
301.00 16.16
302.00 14.40
303.00 13.15
304.00 12.37
305.00 12.11
306.00 12.47
307.00 13.49
308.00 15.25
309.00 17.82
310.00 21.13
311.00 22.83
312.00 20.37
313.00 18.01
314.00 17.20
315.00 17.92
316.00 20.23
317.00 24.50
318.00 28.14
319.00 23.76
320.00 20.35
321.00 19.21
322.00 20.17
323.00 23.99
324.00 35.95
325.00 28.31
326.00 22.54
327.00 21.18
328.00 22.87
329.00 30.14
330.00 31.89
331.00 22.15
332.00 19.19
333.00 19.39
334.00 23.09
335.00 31.82
336.00 22.52
337.00 17.67
338.00 15.94
339.00 16.30
340.00 18.87
341.00 24.67
342.00 27.73
343.00 22.63
344.00 21.25
345.00 23.08
346.00 27.23
347.00 24.42
348.00 20.47
349.00 19.49
350.00 21.36
351.00 27.02
352.00 32.17
353.00 27.50
354.00 27.94
355.00 33.99
356.00 29.52
357.00 24.29
358.00 22.74
359.00 22.98
