NAME ATR4518R7_1950_X_CO_M45_07T_yyR
FREQUENCY 1950
GAIN 15.12 dBd
TILT	ELECTRICAL
COMMENT DATE 05.08.2013 -45 degrees polarized system Lever position 07T deg
HORIZONTAL 360
0.00 0.14
1.00 0.10
2.00 0.07
3.00 0.04
4.00 0.03
5.00 0.01
6.00 0.01
7.00 0.00
8.00 0.01
9.00 0.02
10.00 0.04
11.00 0.06
12.00 0.09
13.00 0.13
14.00 0.18
15.00 0.23
16.00 0.30
17.00 0.37
18.00 0.45
19.00 0.54
20.00 0.64
21.00 0.75
22.00 0.87
23.00 1.00
24.00 1.15
25.00 1.30
26.00 1.47
27.00 1.64
28.00 1.83
29.00 2.04
30.00 2.25
31.00 2.48
32.00 2.72
33.00 2.97
34.00 3.23
35.00 3.51
36.00 3.80
37.00 4.11
38.00 4.42
39.00 4.75
40.00 5.09
41.00 5.44
42.00 5.81
43.00 6.18
44.00 6.57
45.00 6.97
46.00 7.38
47.00 7.79
48.00 8.22
49.00 8.65
50.00 9.09
51.00 9.54
52.00 9.99
53.00 10.45
54.00 10.92
55.00 11.38
56.00 11.85
57.00 12.31
58.00 12.78
59.00 13.24
60.00 13.70
61.00 14.14
62.00 14.58
63.00 15.01
64.00 15.43
65.00 15.83
66.00 16.21
67.00 16.58
68.00 16.93
69.00 17.27
70.00 17.59
71.00 17.89
72.00 18.18
73.00 18.46
74.00 18.73
75.00 18.99
76.00 19.24
77.00 19.50
78.00 19.76
79.00 20.02
80.00 20.29
81.00 20.58
82.00 20.87
83.00 21.19
84.00 21.52
85.00 21.88
86.00 22.26
87.00 22.67
88.00 23.10
89.00 23.58
90.00 24.08
91.00 24.63
92.00 25.21
93.00 25.84
94.00 26.53
95.00 27.27
96.00 28.08
97.00 28.96
98.00 29.93
99.00 31.01
100.00 32.21
101.00 33.56
102.00 35.12
103.00 36.96
104.00 39.20
105.00 42.11
106.00 46.22
107.00 53.11
108.00 55.99
109.00 48.32
110.00 44.01
111.00 41.23
112.00 39.20
113.00 37.63
114.00 36.36
115.00 35.31
116.00 34.43
117.00 33.68
118.00 33.03
119.00 32.47
120.00 31.98
121.00 31.56
122.00 31.20
123.00 30.90
124.00 30.64
125.00 30.43
126.00 30.27
127.00 30.15
128.00 30.08
129.00 30.05
130.00 30.06
131.00 30.12
132.00 30.21
133.00 30.36
134.00 30.55
135.00 30.79
136.00 31.07
137.00 31.41
138.00 31.80
139.00 32.23
140.00 32.73
141.00 33.28
142.00 33.89
143.00 34.55
144.00 35.27
145.00 36.05
146.00 36.90
147.00 37.79
148.00 38.74
149.00 39.73
150.00 40.75
151.00 41.79
152.00 42.81
153.00 43.80
154.00 44.72
155.00 45.52
156.00 46.17
157.00 46.59
158.00 46.72
159.00 46.54
160.00 46.04
161.00 45.27
162.00 44.31
163.00 43.26
164.00 42.18
165.00 41.11
166.00 40.10
167.00 39.15
168.00 38.28
169.00 37.49
170.00 36.79
171.00 36.17
172.00 35.63
173.00 35.17
174.00 34.80
175.00 34.51
176.00 34.29
177.00 34.16
178.00 34.11
179.00 34.14
180.00 34.26
181.00 34.46
182.00 34.74
183.00 35.12
184.00 35.57
185.00 36.09
186.00 36.66
187.00 37.25
188.00 37.78
189.00 38.18
190.00 38.34
191.00 38.20
192.00 37.77
193.00 37.13
194.00 36.35
195.00 35.53
196.00 34.73
197.00 33.98
198.00 33.29
199.00 32.69
200.00 32.16
201.00 31.70
202.00 31.33
203.00 31.02
204.00 30.78
205.00 30.61
206.00 30.49
207.00 30.42
208.00 30.40
209.00 30.43
210.00 30.48
211.00 30.56
212.00 30.64
213.00 30.72
214.00 30.78
215.00 30.81
216.00 30.79
217.00 30.73
218.00 30.61
219.00 30.44
220.00 30.23
221.00 29.98
222.00 29.71
223.00 29.43
224.00 29.15
225.00 28.89
226.00 28.64
227.00 28.42
228.00 28.23
229.00 28.07
230.00 27.94
231.00 27.85
232.00 27.78
233.00 27.75
234.00 27.74
235.00 27.74
236.00 27.77
237.00 27.79
238.00 27.82
239.00 27.84
240.00 27.84
241.00 27.80
242.00 27.73
243.00 27.63
244.00 27.47
245.00 27.28
246.00 27.05
247.00 26.78
248.00 26.49
249.00 26.17
250.00 25.85
251.00 25.52
252.00 25.19
253.00 24.86
254.00 24.54
255.00 24.23
256.00 23.93
257.00 23.64
258.00 23.36
259.00 23.08
260.00 22.82
261.00 22.56
262.00 22.31
263.00 22.05
264.00 21.80
265.00 21.55
266.00 21.29
267.00 21.03
268.00 20.77
269.00 20.49
270.00 20.21
271.00 19.92
272.00 19.63
273.00 19.32
274.00 19.01
275.00 18.70
276.00 18.37
277.00 18.05
278.00 17.72
279.00 17.39
280.00 17.06
281.00 16.74
282.00 16.41
283.00 16.08
284.00 15.76
285.00 15.44
286.00 15.13
287.00 14.82
288.00 14.51
289.00 14.21
290.00 13.91
291.00 13.62
292.00 13.34
293.00 13.05
294.00 12.78
295.00 12.50
296.00 12.23
297.00 11.97
298.00 11.70
299.00 11.44
300.00 11.18
301.00 10.93
302.00 10.68
303.00 10.43
304.00 10.18
305.00 9.93
306.00 9.69
307.00 9.45
308.00 9.21
309.00 8.97
310.00 8.72
311.00 8.48
312.00 8.25
313.00 8.01
314.00 7.77
315.00 7.53
316.00 7.29
317.00 7.05
318.00 6.82
319.00 6.58
320.00 6.34
321.00 6.11
322.00 5.87
323.00 5.64
324.00 5.41
325.00 5.18
326.00 4.95
327.00 4.72
328.00 4.50
329.00 4.28
330.00 4.06
331.00 3.85
332.00 3.64
333.00 3.44
334.00 3.24
335.00 3.04
336.00 2.85
337.00 2.67
338.00 2.49
339.00 2.31
340.00 2.14
341.00 1.98
342.00 1.83
343.00 1.68
344.00 1.54
345.00 1.40
346.00 1.27
347.00 1.15
348.00 1.03
349.00 0.92
350.00 0.82
351.00 0.73
352.00 0.63
353.00 0.55
354.00 0.47
355.00 0.40
356.00 0.34
357.00 0.28
358.00 0.22
359.00 0.18
VERTICAL 360
0.00 19.50
1.00 14.13
2.00 9.44
3.00 5.78
4.00 3.10
5.00 1.30
6.00 0.29
7.00 0.00
8.00 0.43
9.00 1.62
10.00 3.76
11.00 7.34
12.00 13.98
13.00 30.96
14.00 16.69
15.00 12.92
16.00 12.74
17.00 15.08
18.00 20.81
19.00 25.71
20.00 18.73
21.00 15.36
22.00 14.39
23.00 15.28
24.00 18.44
25.00 27.51
26.00 30.39
27.00 20.01
28.00 16.84
29.00 16.07
30.00 17.05
31.00 20.03
32.00 27.19
33.00 41.37
34.00 24.50
35.00 20.77
36.00 19.81
37.00 20.65
38.00 23.25
39.00 28.72
40.00 42.53
41.00 30.75
42.00 24.67
43.00 21.84
44.00 20.55
45.00 20.37
46.00 21.05
47.00 22.39
48.00 24.07
49.00 25.61
50.00 26.41
51.00 26.38
52.00 26.17
53.00 26.55
54.00 27.97
55.00 30.49
56.00 33.09
57.00 33.99
58.00 34.57
59.00 36.94
60.00 41.72
61.00 42.75
62.00 38.81
63.00 36.98
64.00 37.01
65.00 38.36
66.00 40.42
67.00 42.56
68.00 44.83
69.00 46.11
70.00 44.13
71.00 41.70
72.00 40.14
73.00 38.97
74.00 37.61
75.00 35.87
76.00 34.17
77.00 32.98
78.00 32.43
79.00 32.14
80.00 31.47
81.00 30.06
82.00 28.26
83.00 26.68
84.00 25.76
85.00 25.70
86.00 26.53
87.00 28.10
88.00 30.01
89.00 31.47
90.00 31.69
91.00 30.60
92.00 29.02
93.00 27.72
94.00 27.02
95.00 26.96
96.00 27.51
97.00 28.53
98.00 29.81
99.00 31.07
100.00 32.11
101.00 33.02
102.00 34.08
103.00 35.60
104.00 37.79
105.00 40.73
106.00 44.19
107.00 47.04
108.00 47.29
109.00 45.32
110.00 43.29
111.00 42.14
112.00 41.94
113.00 42.52
114.00 43.59
115.00 44.88
116.00 46.67
117.00 50.87
118.00 60.88
119.00 48.68
120.00 42.88
121.00 40.38
122.00 39.66
123.00 40.10
124.00 41.25
125.00 42.91
126.00 45.46
127.00 49.90
128.00 51.38
129.00 45.48
130.00 42.01
131.00 40.73
132.00 41.02
133.00 42.62
134.00 46.12
135.00 55.35
136.00 51.10
137.00 42.96
138.00 39.49
139.00 37.98
140.00 37.62
141.00 38.07
142.00 39.28
143.00 41.22
144.00 42.44
145.00 40.43
146.00 37.69
147.00 36.17
148.00 36.02
149.00 37.08
150.00 39.17
151.00 42.21
152.00 46.78
153.00 58.02
154.00 49.25
155.00 40.92
156.00 37.05
157.00 35.48
158.00 35.81
159.00 37.99
160.00 41.21
161.00 41.27
162.00 38.69
163.00 37.17
164.00 37.30
165.00 39.35
166.00 42.17
167.00 40.45
168.00 37.81
169.00 37.66
170.00 39.71
171.00 40.73
172.00 38.49
173.00 37.25
174.00 37.66
175.00 38.99
176.00 40.19
177.00 42.45
178.00 50.11
179.00 45.33
180.00 37.95
181.00 35.61
182.00 36.43
183.00 41.04
184.00 52.93
185.00 47.26
186.00 46.00
187.00 57.16
188.00 52.20
189.00 47.78
190.00 54.79
191.00 46.57
192.00 39.51
193.00 37.39
194.00 37.82
195.00 39.45
196.00 40.25
197.00 38.79
198.00 36.44
199.00 35.00
200.00 35.10
201.00 35.99
202.00 35.82
203.00 35.26
204.00 36.62
205.00 40.59
206.00 39.74
207.00 35.35
208.00 33.68
209.00 33.99
210.00 35.44
211.00 37.41
212.00 39.76
213.00 41.29
214.00 39.75
215.00 37.56
216.00 36.39
217.00 36.13
218.00 36.51
219.00 37.46
220.00 39.06
221.00 41.36
222.00 44.08
223.00 45.99
224.00 45.95
225.00 45.62
226.00 47.20
227.00 53.51
228.00 53.42
229.00 45.19
230.00 42.32
231.00 42.28
232.00 44.58
233.00 48.91
234.00 51.17
235.00 48.69
236.00 47.03
237.00 46.88
238.00 47.89
239.00 49.36
240.00 50.20
241.00 49.85
242.00 48.78
243.00 47.51
244.00 45.96
245.00 44.39
246.00 43.53
247.00 43.77
248.00 44.96
249.00 46.42
250.00 47.42
251.00 47.44
252.00 46.32
253.00 44.14
254.00 41.09
255.00 38.36
256.00 37.01
257.00 37.43
258.00 39.54
259.00 41.09
260.00 39.83
261.00 39.26
262.00 41.46
263.00 48.30
264.00 51.26
265.00 45.29
266.00 44.95
267.00 48.85
268.00 59.04
269.00 57.89
270.00 47.98
271.00 40.90
272.00 36.42
273.00 34.01
274.00 33.24
275.00 33.76
276.00 35.06
277.00 36.22
278.00 36.28
279.00 34.92
280.00 32.83
281.00 30.93
282.00 29.59
283.00 28.73
284.00 28.21
285.00 27.85
286.00 27.60
287.00 27.48
288.00 27.59
289.00 28.01
290.00 28.75
291.00 29.77
292.00 31.08
293.00 32.62
294.00 33.84
295.00 33.59
296.00 31.83
297.00 29.80
298.00 28.25
299.00 27.36
300.00 27.06
301.00 27.11
302.00 27.16
303.00 26.90
304.00 26.29
305.00 25.50
306.00 24.78
307.00 24.28
308.00 24.03
309.00 24.00
310.00 24.17
311.00 24.62
312.00 25.62
313.00 27.69
314.00 32.25
315.00 42.96
316.00 32.37
317.00 25.67
318.00 21.95
319.00 19.56
320.00 18.02
321.00 17.21
322.00 17.12
323.00 17.67
324.00 18.37
325.00 18.15
326.00 16.69
327.00 15.02
328.00 13.83
329.00 13.29
330.00 13.36
331.00 13.97
332.00 14.91
333.00 15.88
334.00 16.63
335.00 17.35
336.00 18.68
337.00 21.56
338.00 28.37
339.00 35.25
340.00 24.24
341.00 20.54
342.00 19.57
343.00 20.69
344.00 24.61
345.00 34.29
346.00 28.13
347.00 21.90
348.00 19.60
349.00 19.47
350.00 21.18
351.00 23.94
352.00 23.51
353.00 20.57
354.00 19.01
355.00 19.20
356.00 21.06
357.00 24.25
358.00 26.40
359.00 24.27
