NAME ATR4518R7_1880_X_CO_P45_07T_yL
FREQUENCY 1880
GAIN 14.77 dBd
TILT	ELECTRICAL
COMMENT DATE 05.08.2013 +45 degrees polarized system Lever position 07T deg
HORIZONTAL 360
0.00 0.10
1.00 0.08
2.00 0.05
3.00 0.03
4.00 0.02
5.00 0.01
6.00 0.00
7.00 0.00
8.00 0.01
9.00 0.02
10.00 0.04
11.00 0.06
12.00 0.09
13.00 0.13
14.00 0.18
15.00 0.23
16.00 0.29
17.00 0.36
18.00 0.44
19.00 0.53
20.00 0.62
21.00 0.73
22.00 0.84
23.00 0.96
24.00 1.08
25.00 1.22
26.00 1.36
27.00 1.50
28.00 1.66
29.00 1.82
30.00 1.99
31.00 2.16
32.00 2.34
33.00 2.53
34.00 2.73
35.00 2.93
36.00 3.13
37.00 3.34
38.00 3.56
39.00 3.78
40.00 4.00
41.00 4.23
42.00 4.46
43.00 4.70
44.00 4.94
45.00 5.19
46.00 5.43
47.00 5.68
48.00 5.94
49.00 6.19
50.00 6.44
51.00 6.70
52.00 6.96
53.00 7.22
54.00 7.49
55.00 7.75
56.00 8.02
57.00 8.28
58.00 8.55
59.00 8.82
60.00 9.09
61.00 9.37
62.00 9.65
63.00 9.93
64.00 10.21
65.00 10.50
66.00 10.79
67.00 11.08
68.00 11.37
69.00 11.67
70.00 11.97
71.00 12.28
72.00 12.59
73.00 12.90
74.00 13.21
75.00 13.53
76.00 13.86
77.00 14.18
78.00 14.50
79.00 14.83
80.00 15.17
81.00 15.51
82.00 15.85
83.00 16.20
84.00 16.55
85.00 16.91
86.00 17.28
87.00 17.65
88.00 18.05
89.00 18.45
90.00 18.87
91.00 19.31
92.00 19.77
93.00 20.25
94.00 20.76
95.00 21.29
96.00 21.86
97.00 22.46
98.00 23.10
99.00 23.78
100.00 24.50
101.00 25.25
102.00 26.05
103.00 26.89
104.00 27.75
105.00 28.63
106.00 29.52
107.00 30.39
108.00 31.21
109.00 31.94
110.00 32.57
111.00 33.08
112.00 33.46
113.00 33.73
114.00 33.94
115.00 34.11
116.00 34.28
117.00 34.48
118.00 34.73
119.00 35.03
120.00 35.39
121.00 35.82
122.00 36.28
123.00 36.76
124.00 37.20
125.00 37.54
126.00 37.71
127.00 37.67
128.00 37.40
129.00 36.94
130.00 36.35
131.00 35.70
132.00 35.05
133.00 34.42
134.00 33.85
135.00 33.34
136.00 32.89
137.00 32.52
138.00 32.21
139.00 31.98
140.00 31.81
141.00 31.71
142.00 31.67
143.00 31.70
144.00 31.80
145.00 31.97
146.00 32.21
147.00 32.52
148.00 32.91
149.00 33.40
150.00 33.97
151.00 34.65
152.00 35.44
153.00 36.36
154.00 37.42
155.00 38.64
156.00 40.02
157.00 41.54
158.00 43.07
159.00 44.37
160.00 45.06
161.00 44.90
162.00 44.13
163.00 43.17
164.00 42.27
165.00 41.53
166.00 41.02
167.00 40.71
168.00 40.64
169.00 40.81
170.00 41.22
171.00 41.94
172.00 43.01
173.00 44.57
174.00 46.86
175.00 50.46
176.00 57.41
177.00 62.73
178.00 52.11
179.00 47.19
180.00 44.08
181.00 41.85
182.00 40.18
183.00 38.88
184.00 37.89
185.00 37.13
186.00 36.59
187.00 36.23
188.00 36.06
189.00 36.06
190.00 36.25
191.00 36.63
192.00 37.22
193.00 38.05
194.00 39.19
195.00 40.68
196.00 42.66
197.00 45.15
198.00 47.67
199.00 47.90
200.00 45.34
201.00 42.47
202.00 40.10
203.00 38.22
204.00 36.71
205.00 35.50
206.00 34.53
207.00 33.76
208.00 33.17
209.00 32.73
210.00 32.42
211.00 32.26
212.00 32.22
213.00 32.31
214.00 32.54
215.00 32.89
216.00 33.39
217.00 34.05
218.00 34.87
219.00 35.86
220.00 37.03
221.00 38.32
222.00 39.57
223.00 40.38
224.00 40.29
225.00 39.31
226.00 37.87
227.00 36.35
228.00 34.94
229.00 33.69
230.00 32.60
231.00 31.65
232.00 30.84
233.00 30.15
234.00 29.55
235.00 29.06
236.00 28.64
237.00 28.30
238.00 28.03
239.00 27.82
240.00 27.67
241.00 27.58
242.00 27.52
243.00 27.51
244.00 27.54
245.00 27.59
246.00 27.65
247.00 27.72
248.00 27.77
249.00 27.80
250.00 27.78
251.00 27.71
252.00 27.56
253.00 27.34
254.00 27.05
255.00 26.68
256.00 26.26
257.00 25.79
258.00 25.29
259.00 24.77
260.00 24.25
261.00 23.73
262.00 23.22
263.00 22.72
264.00 22.25
265.00 21.79
266.00 21.35
267.00 20.93
268.00 20.53
269.00 20.15
270.00 19.78
271.00 19.43
272.00 19.10
273.00 18.77
274.00 18.46
275.00 18.15
276.00 17.85
277.00 17.55
278.00 17.26
279.00 16.97
280.00 16.68
281.00 16.39
282.00 16.10
283.00 15.81
284.00 15.52
285.00 15.23
286.00 14.94
287.00 14.65
288.00 14.37
289.00 14.08
290.00 13.81
291.00 13.53
292.00 13.27
293.00 13.00
294.00 12.75
295.00 12.50
296.00 12.25
297.00 12.01
298.00 11.78
299.00 11.56
300.00 11.33
301.00 11.12
302.00 10.90
303.00 10.69
304.00 10.48
305.00 10.27
306.00 10.05
307.00 9.84
308.00 9.62
309.00 9.39
310.00 9.16
311.00 8.92
312.00 8.68
313.00 8.42
314.00 8.16
315.00 7.90
316.00 7.63
317.00 7.35
318.00 7.07
319.00 6.79
320.00 6.50
321.00 6.21
322.00 5.92
323.00 5.64
324.00 5.35
325.00 5.07
326.00 4.79
327.00 4.51
328.00 4.25
329.00 3.98
330.00 3.73
331.00 3.48
332.00 3.24
333.00 3.01
334.00 2.78
335.00 2.57
336.00 2.37
337.00 2.18
338.00 1.99
339.00 1.82
340.00 1.66
341.00 1.50
342.00 1.36
343.00 1.23
344.00 1.11
345.00 0.99
346.00 0.89
347.00 0.80
348.00 0.71
349.00 0.63
350.00 0.56
351.00 0.49
352.00 0.43
353.00 0.38
354.00 0.33
355.00 0.28
356.00 0.24
357.00 0.20
358.00 0.16
359.00 0.13
VERTICAL 360
0.00 23.44
1.00 13.75
2.00 8.35
3.00 4.79
4.00 2.39
5.00 0.87
6.00 0.11
7.00 0.08
8.00 0.81
9.00 2.42
10.00 5.18
11.00 9.79
12.00 19.02
13.00 21.08
14.00 13.76
15.00 11.61
16.00 11.70
17.00 13.66
18.00 18.08
19.00 27.65
20.00 22.98
21.00 17.73
22.00 15.92
23.00 16.01
24.00 17.68
25.00 20.98
26.00 24.57
27.00 22.65
28.00 19.32
29.00 17.39
30.00 16.71
31.00 17.14
32.00 18.82
33.00 22.32
34.00 29.67
35.00 31.49
36.00 23.98
37.00 20.76
38.00 19.37
39.00 18.94
40.00 19.00
41.00 19.32
42.00 19.87
43.00 20.79
44.00 22.31
45.00 24.76
46.00 28.64
47.00 33.41
48.00 32.31
49.00 29.18
50.00 27.73
51.00 27.63
52.00 28.48
53.00 29.48
54.00 29.18
55.00 27.76
56.00 26.75
57.00 26.87
58.00 28.30
59.00 31.20
60.00 35.85
61.00 42.04
62.00 43.34
63.00 39.80
64.00 36.43
65.00 33.52
66.00 31.32
67.00 29.90
68.00 29.14
69.00 28.86
70.00 28.85
71.00 28.98
72.00 29.17
73.00 29.40
74.00 29.68
75.00 29.96
76.00 30.19
77.00 30.39
78.00 30.69
79.00 31.23
80.00 32.07
81.00 33.20
82.00 34.56
83.00 36.10
84.00 37.72
85.00 39.11
86.00 39.33
87.00 38.01
88.00 36.38
89.00 35.28
90.00 34.76
91.00 34.56
92.00 34.59
93.00 34.99
94.00 35.94
95.00 37.22
96.00 37.96
97.00 37.39
98.00 36.08
99.00 34.87
100.00 34.17
101.00 34.09
102.00 34.57
103.00 35.33
104.00 36.04
105.00 36.58
106.00 37.10
107.00 37.83
108.00 38.94
109.00 40.47
110.00 42.17
111.00 43.26
112.00 42.93
113.00 41.49
114.00 39.97
115.00 39.02
116.00 38.77
117.00 39.02
118.00 39.31
119.00 39.14
120.00 38.45
121.00 37.63
122.00 37.06
123.00 36.74
124.00 36.25
125.00 35.19
126.00 33.88
127.00 32.88
128.00 32.50
129.00 32.83
130.00 33.81
131.00 35.18
132.00 36.57
133.00 37.86
134.00 39.59
135.00 42.01
136.00 42.81
137.00 40.55
138.00 38.72
139.00 38.47
140.00 39.83
141.00 42.63
142.00 46.13
143.00 48.42
144.00 47.97
145.00 45.80
146.00 44.62
147.00 46.31
148.00 55.21
149.00 49.95
150.00 42.99
151.00 40.96
152.00 40.79
153.00 39.43
154.00 36.97
155.00 35.75
156.00 36.41
157.00 38.28
158.00 38.36
159.00 36.84
160.00 36.65
161.00 37.41
162.00 35.93
163.00 33.15
164.00 31.49
165.00 31.04
166.00 31.30
167.00 31.81
168.00 32.83
169.00 35.01
170.00 38.02
171.00 38.01
172.00 36.09
173.00 35.81
174.00 37.35
175.00 39.77
176.00 41.88
177.00 46.17
178.00 59.96
179.00 42.16
180.00 37.86
181.00 37.35
182.00 39.91
183.00 45.80
184.00 47.38
185.00 45.77
186.00 49.13
187.00 51.56
188.00 45.95
189.00 45.02
190.00 48.74
191.00 50.53
192.00 43.92
193.00 40.81
194.00 39.95
195.00 40.54
196.00 42.15
197.00 44.97
198.00 51.33
199.00 51.95
200.00 42.54
201.00 38.53
202.00 37.17
203.00 37.79
204.00 40.18
205.00 44.32
206.00 51.78
207.00 51.59
208.00 42.62
209.00 38.16
210.00 35.66
211.00 34.23
212.00 33.55
213.00 33.59
214.00 34.36
215.00 35.50
216.00 36.15
217.00 35.73
218.00 34.70
219.00 33.75
220.00 33.32
221.00 33.70
222.00 35.03
223.00 37.22
224.00 39.54
225.00 40.34
226.00 39.54
227.00 38.67
228.00 38.47
229.00 39.21
230.00 41.20
231.00 44.68
232.00 47.35
233.00 44.66
234.00 41.59
235.00 39.57
236.00 38.31
237.00 37.68
238.00 37.72
239.00 38.52
240.00 40.21
241.00 42.92
242.00 46.61
243.00 50.11
244.00 50.99
245.00 50.25
246.00 49.74
247.00 49.26
248.00 47.82
249.00 46.13
250.00 45.57
251.00 46.90
252.00 50.84
253.00 55.97
254.00 50.88
255.00 46.22
256.00 43.07
257.00 40.45
258.00 38.03
259.00 35.90
260.00 34.29
261.00 33.29
262.00 32.83
263.00 32.70
264.00 32.65
265.00 32.41
266.00 31.95
267.00 31.45
268.00 31.13
269.00 31.00
270.00 30.87
271.00 30.42
272.00 29.53
273.00 28.42
274.00 27.40
275.00 26.60
276.00 25.99
277.00 25.47
278.00 25.00
279.00 24.63
280.00 24.51
281.00 24.79
282.00 25.56
283.00 26.86
284.00 28.65
285.00 30.78
286.00 32.80
287.00 34.01
288.00 34.32
289.00 34.85
290.00 37.37
291.00 47.09
292.00 38.62
293.00 30.73
294.00 26.73
295.00 24.50
296.00 23.41
297.00 23.14
298.00 23.52
299.00 24.43
300.00 25.82
301.00 27.64
302.00 29.72
303.00 30.80
304.00 29.06
305.00 26.22
306.00 23.95
307.00 22.50
308.00 21.81
309.00 21.81
310.00 22.51
311.00 24.07
312.00 26.91
313.00 32.16
314.00 36.18
315.00 29.21
316.00 25.01
317.00 22.82
318.00 21.95
319.00 22.19
320.00 23.58
321.00 26.60
322.00 32.74
323.00 34.17
324.00 26.47
325.00 22.31
326.00 19.96
327.00 18.76
328.00 18.44
329.00 18.76
330.00 19.46
331.00 20.21
332.00 20.88
333.00 21.79
334.00 23.73
335.00 28.38
336.00 41.64
337.00 27.61
338.00 22.39
339.00 20.46
340.00 20.70
341.00 23.20
342.00 28.29
343.00 26.28
344.00 20.90
345.00 18.03
346.00 16.94
347.00 17.39
348.00 19.64
349.00 24.78
350.00 31.11
351.00 23.89
352.00 20.32
353.00 19.49
354.00 20.86
355.00 24.91
356.00 30.44
357.00 26.63
358.00 25.39
359.00 33.99
