NAME ATR4518R7_0947_X_CO_M45_04T
FREQUENCY 0947
GAIN 15.23 dBd
TILT	ELECTRICAL
COMMENT DATE 05.08.2013 -45 degrees polarized system Lever position 04T deg
HORIZONTAL 360
0.00 0.04
1.00 0.02
2.00 0.00
3.00 0.00
4.00 0.00
5.00 0.01
6.00 0.02
7.00 0.05
8.00 0.07
9.00 0.11
10.00 0.15
11.00 0.20
12.00 0.26
13.00 0.33
14.00 0.40
15.00 0.47
16.00 0.56
17.00 0.65
18.00 0.75
19.00 0.86
20.00 0.97
21.00 1.09
22.00 1.22
23.00 1.36
24.00 1.50
25.00 1.65
26.00 1.80
27.00 1.97
28.00 2.14
29.00 2.32
30.00 2.50
31.00 2.69
32.00 2.89
33.00 3.10
34.00 3.31
35.00 3.54
36.00 3.76
37.00 4.00
38.00 4.24
39.00 4.49
40.00 4.75
41.00 5.02
42.00 5.29
43.00 5.57
44.00 5.85
45.00 6.15
46.00 6.45
47.00 6.76
48.00 7.08
49.00 7.41
50.00 7.74
51.00 8.08
52.00 8.43
53.00 8.79
54.00 9.15
55.00 9.53
56.00 9.91
57.00 10.30
58.00 10.71
59.00 11.12
60.00 11.54
61.00 11.97
62.00 12.41
63.00 12.87
64.00 13.33
65.00 13.81
66.00 14.29
67.00 14.79
68.00 15.30
69.00 15.83
70.00 16.37
71.00 16.92
72.00 17.49
73.00 18.07
74.00 18.66
75.00 19.27
76.00 19.89
77.00 20.53
78.00 21.18
79.00 21.84
80.00 22.51
81.00 23.19
82.00 23.87
83.00 24.54
84.00 25.21
85.00 25.87
86.00 26.50
87.00 27.09
88.00 27.65
89.00 28.16
90.00 28.61
91.00 28.99
92.00 29.32
93.00 29.60
94.00 29.81
95.00 29.99
96.00 30.13
97.00 30.24
98.00 30.34
99.00 30.44
100.00 30.53
101.00 30.63
102.00 30.75
103.00 30.88
104.00 31.02
105.00 31.20
106.00 31.39
107.00 31.61
108.00 31.86
109.00 32.13
110.00 32.43
111.00 32.76
112.00 33.12
113.00 33.51
114.00 33.93
115.00 34.38
116.00 34.86
117.00 35.36
118.00 35.90
119.00 36.46
120.00 37.06
121.00 37.68
122.00 38.31
123.00 38.98
124.00 39.66
125.00 40.35
126.00 41.05
127.00 41.72
128.00 42.39
129.00 43.02
130.00 43.60
131.00 44.10
132.00 44.50
133.00 44.79
134.00 44.94
135.00 44.97
136.00 44.88
137.00 44.66
138.00 44.35
139.00 43.94
140.00 43.48
141.00 42.97
142.00 42.44
143.00 41.88
144.00 41.32
145.00 40.76
146.00 40.20
147.00 39.66
148.00 39.13
149.00 38.61
150.00 38.12
151.00 37.65
152.00 37.19
153.00 36.76
154.00 36.36
155.00 35.98
156.00 35.62
157.00 35.29
158.00 34.98
159.00 34.69
160.00 34.43
161.00 34.19
162.00 33.98
163.00 33.78
164.00 33.61
165.00 33.47
166.00 33.34
167.00 33.24
168.00 33.16
169.00 33.10
170.00 33.06
171.00 33.04
172.00 33.05
173.00 33.08
174.00 33.13
175.00 33.20
176.00 33.29
177.00 33.41
178.00 33.55
179.00 33.71
180.00 33.90
181.00 34.11
182.00 34.35
183.00 34.61
184.00 34.91
185.00 35.24
186.00 35.59
187.00 35.99
188.00 36.42
189.00 36.89
190.00 37.41
191.00 37.98
192.00 38.61
193.00 39.30
194.00 40.07
195.00 40.93
196.00 41.89
197.00 42.99
198.00 44.26
199.00 45.73
200.00 47.49
201.00 49.60
202.00 52.13
203.00 54.75
204.00 55.79
205.00 54.00
206.00 51.33
207.00 48.95
208.00 46.97
209.00 45.32
210.00 43.94
211.00 42.74
212.00 41.69
213.00 40.77
214.00 39.94
215.00 39.20
216.00 38.53
217.00 37.90
218.00 37.34
219.00 36.82
220.00 36.33
221.00 35.88
222.00 35.47
223.00 35.07
224.00 34.70
225.00 34.35
226.00 34.02
227.00 33.71
228.00 33.41
229.00 33.12
230.00 32.85
231.00 32.58
232.00 32.33
233.00 32.07
234.00 31.83
235.00 31.59
236.00 31.36
237.00 31.12
238.00 30.89
239.00 30.66
240.00 30.43
241.00 30.20
242.00 29.96
243.00 29.72
244.00 29.48
245.00 29.23
246.00 28.98
247.00 28.72
248.00 28.45
249.00 28.18
250.00 27.90
251.00 27.60
252.00 27.31
253.00 27.00
254.00 26.69
255.00 26.37
256.00 26.04
257.00 25.70
258.00 25.36
259.00 25.02
260.00 24.66
261.00 24.30
262.00 23.94
263.00 23.58
264.00 23.21
265.00 22.84
266.00 22.47
267.00 22.10
268.00 21.73
269.00 21.36
270.00 20.99
271.00 20.63
272.00 20.26
273.00 19.90
274.00 19.54
275.00 19.18
276.00 18.82
277.00 18.47
278.00 18.12
279.00 17.77
280.00 17.43
281.00 17.09
282.00 16.76
283.00 16.42
284.00 16.09
285.00 15.77
286.00 15.44
287.00 15.12
288.00 14.80
289.00 14.49
290.00 14.18
291.00 13.86
292.00 13.56
293.00 13.25
294.00 12.95
295.00 12.64
296.00 12.35
297.00 12.05
298.00 11.75
299.00 11.46
300.00 11.16
301.00 10.88
302.00 10.59
303.00 10.30
304.00 10.01
305.00 9.73
306.00 9.45
307.00 9.17
308.00 8.89
309.00 8.62
310.00 8.34
311.00 8.07
312.00 7.80
313.00 7.54
314.00 7.28
315.00 7.01
316.00 6.76
317.00 6.50
318.00 6.25
319.00 6.00
320.00 5.76
321.00 5.51
322.00 5.28
323.00 5.04
324.00 4.81
325.00 4.59
326.00 4.37
327.00 4.15
328.00 3.94
329.00 3.73
330.00 3.52
331.00 3.33
332.00 3.13
333.00 2.94
334.00 2.76
335.00 2.58
336.00 2.41
337.00 2.24
338.00 2.08
339.00 1.92
340.00 1.77
341.00 1.63
342.00 1.49
343.00 1.35
344.00 1.22
345.00 1.10
346.00 0.99
347.00 0.88
348.00 0.77
349.00 0.68
350.00 0.59
351.00 0.50
352.00 0.42
353.00 0.35
354.00 0.29
355.00 0.23
356.00 0.18
357.00 0.13
358.00 0.09
359.00 0.06
VERTICAL 360
0.00 3.28
1.00 1.80
2.00 0.79
3.00 0.19
4.00 0.00
5.00 0.21
6.00 0.83
7.00 1.87
8.00 3.37
9.00 5.41
10.00 8.11
11.00 11.67
12.00 16.24
13.00 20.99
14.00 22.32
15.00 21.79
16.00 22.53
17.00 25.41
18.00 32.50
19.00 35.87
20.00 27.19
21.00 23.81
22.00 22.58
23.00 22.70
24.00 23.96
25.00 26.58
26.00 31.54
27.00 41.58
28.00 33.89
29.00 29.00
30.00 27.28
31.00 27.40
32.00 28.77
33.00 29.62
34.00 27.05
35.00 23.27
36.00 20.20
37.00 18.07
38.00 16.77
39.00 16.18
40.00 16.15
41.00 16.48
42.00 17.02
43.00 17.80
44.00 19.04
45.00 21.09
46.00 24.40
47.00 29.79
48.00 39.29
49.00 38.43
50.00 33.18
51.00 30.67
52.00 29.25
53.00 28.69
54.00 29.04
55.00 30.18
56.00 31.63
57.00 32.78
58.00 33.67
59.00 35.31
60.00 39.14
61.00 43.49
62.00 39.74
63.00 37.76
64.00 38.26
65.00 40.39
66.00 45.08
67.00 42.23
68.00 35.63
69.00 32.48
70.00 31.56
71.00 32.59
72.00 34.96
73.00 33.30
74.00 29.31
75.00 27.01
76.00 26.30
77.00 26.99
78.00 29.40
79.00 31.90
80.00 29.93
81.00 27.28
82.00 25.69
83.00 25.50
84.00 26.52
85.00 27.36
86.00 27.41
87.00 26.92
88.00 26.04
89.00 25.51
90.00 25.99
91.00 26.83
92.00 27.40
93.00 27.60
94.00 26.79
95.00 25.64
96.00 25.55
97.00 26.81
98.00 29.67
99.00 33.93
100.00 35.42
101.00 32.76
102.00 30.77
103.00 30.43
104.00 31.89
105.00 34.99
106.00 36.99
107.00 34.48
108.00 31.97
109.00 31.29
110.00 32.65
111.00 36.44
112.00 43.80
113.00 41.01
114.00 35.60
115.00 33.94
116.00 35.20
117.00 39.71
118.00 50.31
119.00 53.86
120.00 46.70
121.00 45.56
122.00 48.86
123.00 45.41
124.00 39.21
125.00 36.35
126.00 35.15
127.00 34.31
128.00 33.11
129.00 31.70
130.00 30.67
131.00 30.38
132.00 30.88
133.00 31.93
134.00 33.25
135.00 34.89
136.00 37.55
137.00 42.69
138.00 52.54
139.00 47.68
140.00 44.88
141.00 45.02
142.00 45.72
143.00 45.93
144.00 46.65
145.00 50.41
146.00 56.79
147.00 47.43
148.00 44.01
149.00 43.92
150.00 45.67
151.00 47.61
152.00 47.83
153.00 46.84
154.00 45.59
155.00 43.38
156.00 41.49
157.00 41.25
158.00 41.12
159.00 38.58
160.00 36.09
161.00 35.00
162.00 34.92
163.00 34.92
164.00 34.03
165.00 32.33
166.00 30.61
167.00 29.24
168.00 28.13
169.00 27.17
170.00 26.45
171.00 26.10
172.00 26.74
173.00 27.92
174.00 29.72
175.00 32.10
176.00 34.76
177.00 36.39
178.00 36.25
179.00 34.69
180.00 33.02
181.00 31.88
182.00 31.44
183.00 31.70
184.00 32.56
185.00 34.04
186.00 36.42
187.00 40.50
188.00 47.58
189.00 45.99
190.00 41.47
191.00 39.81
192.00 39.53
193.00 39.70
194.00 39.95
195.00 40.33
196.00 41.11
197.00 42.70
198.00 45.13
199.00 47.04
200.00 46.17
201.00 44.24
202.00 43.13
203.00 43.14
204.00 43.87
205.00 43.90
206.00 42.33
207.00 40.39
208.00 39.29
209.00 39.36
210.00 40.12
211.00 40.12
212.00 38.87
213.00 37.35
214.00 35.90
215.00 34.41
216.00 32.97
217.00 31.88
218.00 31.30
219.00 31.12
220.00 31.01
221.00 30.68
222.00 30.20
223.00 29.94
224.00 30.32
225.00 31.52
226.00 33.29
227.00 34.89
228.00 35.62
229.00 35.56
230.00 35.56
231.00 36.40
232.00 38.18
233.00 39.99
234.00 40.23
235.00 38.59
236.00 36.96
237.00 36.44
238.00 36.95
239.00 37.95
240.00 38.58
241.00 37.50
242.00 35.51
243.00 34.29
244.00 34.24
245.00 35.18
246.00 36.23
247.00 35.72
248.00 34.20
249.00 33.31
250.00 33.47
251.00 34.80
252.00 37.28
253.00 38.20
254.00 35.64
255.00 33.74
256.00 33.33
257.00 34.05
258.00 35.40
259.00 36.14
260.00 35.63
261.00 35.76
262.00 37.99
263.00 43.61
264.00 47.26
265.00 39.90
266.00 36.72
267.00 36.69
268.00 39.83
269.00 43.23
270.00 38.09
271.00 34.14
272.00 32.47
273.00 33.10
274.00 36.83
275.00 44.55
276.00 39.10
277.00 34.66
278.00 32.90
279.00 33.12
280.00 36.06
281.00 45.35
282.00 45.15
283.00 37.90
284.00 36.26
285.00 37.57
286.00 43.47
287.00 48.19
288.00 38.45
289.00 35.47
290.00 35.01
291.00 35.96
292.00 38.05
293.00 41.09
294.00 44.83
295.00 54.49
296.00 46.81
297.00 39.07
298.00 35.93
299.00 35.00
300.00 35.68
301.00 38.04
302.00 42.30
303.00 47.76
304.00 52.44
305.00 48.67
306.00 43.31
307.00 40.81
308.00 39.93
309.00 39.70
310.00 39.79
311.00 40.54
312.00 43.96
313.00 47.29
314.00 36.30
315.00 30.42
316.00 26.89
317.00 24.62
318.00 23.07
319.00 21.79
320.00 20.51
321.00 19.30
322.00 18.42
323.00 18.02
324.00 18.22
325.00 19.06
326.00 20.54
327.00 22.57
328.00 25.00
329.00 27.76
330.00 30.88
331.00 34.22
332.00 37.15
333.00 38.83
334.00 39.32
335.00 38.18
336.00 35.81
337.00 33.85
338.00 32.43
339.00 30.65
340.00 28.08
341.00 25.36
342.00 23.03
343.00 21.29
344.00 20.20
345.00 19.88
346.00 20.42
347.00 22.03
348.00 25.12
349.00 30.80
350.00 34.41
351.00 27.86
352.00 24.54
353.00 23.75
354.00 24.48
355.00 22.00
356.00 16.23
357.00 11.47
358.00 7.93
359.00 5.28
