NAME ATR4518R7_0806_X_CO_M45_01T
FREQUENCY 0806
GAIN 14.25 dBd
TILT	ELECTRICAL
COMMENT DATE 05.08.2013 -45 degrees polarized system Lever position 01T deg
HORIZONTAL 360
0.00 0.01
1.00 0.02
2.00 0.04
3.00 0.07
4.00 0.10
5.00 0.13
6.00 0.18
7.00 0.22
8.00 0.28
9.00 0.34
10.00 0.40
11.00 0.47
12.00 0.55
13.00 0.63
14.00 0.72
15.00 0.81
16.00 0.91
17.00 1.02
18.00 1.13
19.00 1.25
20.00 1.37
21.00 1.50
22.00 1.63
23.00 1.77
24.00 1.92
25.00 2.07
26.00 2.23
27.00 2.40
28.00 2.56
29.00 2.74
30.00 2.92
31.00 3.11
32.00 3.30
33.00 3.50
34.00 3.71
35.00 3.92
36.00 4.13
37.00 4.35
38.00 4.58
39.00 4.81
40.00 5.05
41.00 5.30
42.00 5.55
43.00 5.80
44.00 6.06
45.00 6.32
46.00 6.60
47.00 6.87
48.00 7.15
49.00 7.44
50.00 7.73
51.00 8.02
52.00 8.32
53.00 8.63
54.00 8.94
55.00 9.25
56.00 9.57
57.00 9.89
58.00 10.22
59.00 10.55
60.00 10.88
61.00 11.22
62.00 11.56
63.00 11.90
64.00 12.24
65.00 12.59
66.00 12.94
67.00 13.30
68.00 13.65
69.00 14.01
70.00 14.37
71.00 14.72
72.00 15.08
73.00 15.44
74.00 15.79
75.00 16.15
76.00 16.50
77.00 16.86
78.00 17.21
79.00 17.55
80.00 17.89
81.00 18.23
82.00 18.56
83.00 18.89
84.00 19.21
85.00 19.52
86.00 19.83
87.00 20.12
88.00 20.41
89.00 20.69
90.00 20.96
91.00 21.22
92.00 21.47
93.00 21.71
94.00 21.94
95.00 22.16
96.00 22.37
97.00 22.58
98.00 22.77
99.00 22.97
100.00 23.15
101.00 23.34
102.00 23.51
103.00 23.69
104.00 23.87
105.00 24.04
106.00 24.22
107.00 24.40
108.00 24.58
109.00 24.77
110.00 24.96
111.00 25.16
112.00 25.37
113.00 25.58
114.00 25.80
115.00 26.04
116.00 26.28
117.00 26.53
118.00 26.80
119.00 27.08
120.00 27.38
121.00 27.69
122.00 28.01
123.00 28.36
124.00 28.72
125.00 29.10
126.00 29.50
127.00 29.91
128.00 30.36
129.00 30.82
130.00 31.31
131.00 31.83
132.00 32.37
133.00 32.95
134.00 33.56
135.00 34.20
136.00 34.89
137.00 35.62
138.00 36.39
139.00 37.22
140.00 38.10
141.00 39.06
142.00 40.09
143.00 41.22
144.00 42.46
145.00 43.83
146.00 45.38
147.00 47.15
148.00 49.24
149.00 51.80
150.00 55.14
151.00 60.09
152.00 69.74
153.00 67.25
154.00 59.96
155.00 56.25
156.00 53.93
157.00 52.29
158.00 51.02
159.00 50.08
160.00 49.38
161.00 48.83
162.00 48.39
163.00 48.10
164.00 47.90
165.00 47.78
166.00 47.73
167.00 47.75
168.00 47.86
169.00 48.00
170.00 48.19
171.00 48.45
172.00 48.75
173.00 49.09
174.00 49.47
175.00 49.92
176.00 50.36
177.00 50.88
178.00 51.36
179.00 51.90
180.00 52.38
181.00 52.90
182.00 53.40
183.00 53.84
184.00 54.13
185.00 54.43
186.00 54.51
187.00 54.53
188.00 54.37
189.00 54.16
190.00 53.80
191.00 53.33
192.00 52.80
193.00 52.24
194.00 51.62
195.00 50.97
196.00 50.31
197.00 49.64
198.00 48.97
199.00 48.30
200.00 47.64
201.00 46.99
202.00 46.36
203.00 45.74
204.00 45.14
205.00 44.56
206.00 43.99
207.00 43.45
208.00 42.92
209.00 42.42
210.00 41.93
211.00 41.46
212.00 41.00
213.00 40.57
214.00 40.15
215.00 39.74
216.00 39.34
217.00 38.95
218.00 38.58
219.00 38.21
220.00 37.84
221.00 37.48
222.00 37.11
223.00 36.74
224.00 36.37
225.00 35.99
226.00 35.61
227.00 35.22
228.00 34.81
229.00 34.40
230.00 33.98
231.00 33.54
232.00 33.09
233.00 32.63
234.00 32.17
235.00 31.69
236.00 31.21
237.00 30.72
238.00 30.23
239.00 29.74
240.00 29.25
241.00 28.75
242.00 28.26
243.00 27.77
244.00 27.28
245.00 26.80
246.00 26.33
247.00 25.86
248.00 25.39
249.00 24.94
250.00 24.49
251.00 24.05
252.00 23.61
253.00 23.19
254.00 22.77
255.00 22.36
256.00 21.96
257.00 21.57
258.00 21.18
259.00 20.80
260.00 20.43
261.00 20.07
262.00 19.71
263.00 19.36
264.00 19.02
265.00 18.69
266.00 18.35
267.00 18.03
268.00 17.71
269.00 17.40
270.00 17.09
271.00 16.79
272.00 16.49
273.00 16.19
274.00 15.90
275.00 15.61
276.00 15.32
277.00 15.04
278.00 14.76
279.00 14.48
280.00 14.21
281.00 13.93
282.00 13.66
283.00 13.39
284.00 13.12
285.00 12.85
286.00 12.57
287.00 12.31
288.00 12.04
289.00 11.77
290.00 11.50
291.00 11.24
292.00 10.97
293.00 10.70
294.00 10.43
295.00 10.17
296.00 9.90
297.00 9.64
298.00 9.37
299.00 9.11
300.00 8.85
301.00 8.59
302.00 8.33
303.00 8.07
304.00 7.81
305.00 7.55
306.00 7.30
307.00 7.05
308.00 6.80
309.00 6.55
310.00 6.31
311.00 6.07
312.00 5.84
313.00 5.60
314.00 5.37
315.00 5.15
316.00 4.92
317.00 4.70
318.00 4.49
319.00 4.28
320.00 4.07
321.00 3.87
322.00 3.67
323.00 3.48
324.00 3.29
325.00 3.10
326.00 2.92
327.00 2.75
328.00 2.58
329.00 2.42
330.00 2.26
331.00 2.10
332.00 1.95
333.00 1.81
334.00 1.67
335.00 1.54
336.00 1.41
337.00 1.29
338.00 1.17
339.00 1.06
340.00 0.95
341.00 0.85
342.00 0.76
343.00 0.67
344.00 0.58
345.00 0.51
346.00 0.43
347.00 0.37
348.00 0.31
349.00 0.25
350.00 0.20
351.00 0.16
352.00 0.12
353.00 0.08
354.00 0.06
355.00 0.03
356.00 0.02
357.00 0.01
358.00 0.00
359.00 0.01
VERTICAL 360
0.00 0.21
1.00 0.00
2.00 0.11
3.00 0.53
4.00 1.29
5.00 2.39
6.00 3.89
7.00 5.85
8.00 8.39
9.00 11.70
10.00 16.24
11.00 23.26
12.00 39.97
13.00 29.18
14.00 25.81
15.00 26.12
16.00 28.67
17.00 29.39
18.00 24.92
19.00 21.13
20.00 18.73
21.00 17.38
22.00 16.85
23.00 17.06
24.00 17.98
25.00 19.68
26.00 22.37
27.00 26.58
28.00 34.15
29.00 43.41
30.00 33.24
31.00 30.27
32.00 30.03
33.00 32.14
34.00 37.19
35.00 33.79
36.00 26.88
37.00 22.45
38.00 19.39
39.00 17.16
40.00 15.53
41.00 14.36
42.00 13.57
43.00 13.09
44.00 12.89
45.00 12.91
46.00 13.13
47.00 13.55
48.00 14.14
49.00 14.92
50.00 15.92
51.00 17.17
52.00 18.69
53.00 20.52
54.00 22.66
55.00 25.06
56.00 27.66
57.00 30.29
58.00 32.71
59.00 34.51
60.00 35.29
61.00 35.08
62.00 34.37
63.00 33.76
64.00 33.67
65.00 34.44
66.00 36.37
67.00 39.54
68.00 41.44
69.00 38.80
70.00 35.95
71.00 34.14
72.00 33.04
73.00 32.33
74.00 31.86
75.00 31.53
76.00 31.15
77.00 30.50
78.00 29.55
79.00 28.54
80.00 27.75
81.00 27.34
82.00 27.32
83.00 27.65
84.00 28.22
85.00 28.89
86.00 29.54
87.00 30.12
88.00 30.66
89.00 31.26
90.00 32.01
91.00 32.93
92.00 33.92
93.00 34.73
94.00 35.10
95.00 34.99
96.00 34.60
97.00 34.19
98.00 33.95
99.00 34.03
100.00 34.54
101.00 35.61
102.00 37.24
103.00 39.35
104.00 41.50
105.00 42.93
106.00 43.47
107.00 43.78
108.00 44.12
109.00 44.05
110.00 43.07
111.00 41.52
112.00 40.09
113.00 39.10
114.00 38.64
115.00 38.64
116.00 39.03
117.00 39.71
118.00 40.68
119.00 41.93
120.00 43.53
121.00 45.71
122.00 49.27
123.00 57.59
124.00 55.70
125.00 46.70
126.00 42.32
127.00 39.76
128.00 38.26
129.00 37.46
130.00 37.14
131.00 37.07
132.00 37.09
133.00 37.10
134.00 37.09
135.00 37.14
136.00 37.40
137.00 38.05
138.00 39.26
139.00 41.32
140.00 44.75
141.00 51.13
142.00 59.77
143.00 49.79
144.00 45.64
145.00 43.78
146.00 43.21
147.00 43.67
148.00 45.33
149.00 49.26
150.00 62.28
151.00 50.59
152.00 43.27
153.00 39.36
154.00 36.94
155.00 35.46
156.00 34.61
157.00 34.19
158.00 33.95
159.00 33.64
160.00 33.08
161.00 32.32
162.00 31.57
163.00 31.07
164.00 30.97
165.00 31.37
166.00 32.37
167.00 34.13
168.00 36.98
169.00 41.79
170.00 52.20
171.00 47.90
172.00 41.48
173.00 38.67
174.00 37.46
175.00 37.98
176.00 39.86
177.00 42.55
178.00 46.25
179.00 51.36
180.00 56.05
181.00 55.09
182.00 50.34
183.00 46.94
184.00 44.61
185.00 43.07
186.00 43.46
187.00 44.78
188.00 46.20
189.00 45.11
190.00 41.94
191.00 39.04
192.00 36.87
193.00 35.31
194.00 34.22
195.00 33.48
196.00 33.01
197.00 32.75
198.00 32.66
199.00 32.71
200.00 32.87
201.00 33.13
202.00 33.51
203.00 34.08
204.00 34.94
205.00 36.19
206.00 37.99
207.00 40.34
208.00 42.10
209.00 40.67
210.00 37.70
211.00 35.32
212.00 33.84
213.00 33.16
214.00 33.18
215.00 33.81
216.00 35.04
217.00 36.93
218.00 39.69
219.00 43.72
220.00 48.60
221.00 47.42
222.00 43.17
223.00 40.16
224.00 38.23
225.00 37.23
226.00 37.19
227.00 38.25
228.00 40.62
229.00 44.60
230.00 49.12
231.00 48.30
232.00 45.56
233.00 43.47
234.00 41.50
235.00 39.59
236.00 37.95
237.00 36.68
238.00 35.81
239.00 35.38
240.00 35.47
241.00 36.14
242.00 37.39
243.00 39.05
244.00 40.58
245.00 41.19
246.00 40.81
247.00 39.93
248.00 38.91
249.00 37.88
250.00 36.97
251.00 36.32
252.00 36.07
253.00 36.27
254.00 36.90
255.00 37.80
256.00 38.65
257.00 38.98
258.00 38.45
259.00 37.24
260.00 35.89
261.00 34.88
262.00 34.46
263.00 34.73
264.00 35.69
265.00 37.21
266.00 39.10
267.00 41.27
268.00 44.23
269.00 49.64
270.00 58.85
271.00 48.52
272.00 43.59
273.00 40.91
274.00 39.12
275.00 37.74
276.00 36.72
277.00 36.19
278.00 36.28
279.00 36.97
280.00 38.14
281.00 39.34
282.00 40.01
283.00 39.93
284.00 39.46
285.00 38.94
286.00 38.47
287.00 38.05
288.00 37.67
289.00 37.32
290.00 37.07
291.00 37.07
292.00 37.61
293.00 39.10
294.00 42.47
295.00 50.66
296.00 45.04
297.00 37.30
298.00 32.74
299.00 29.50
300.00 27.02
301.00 25.02
302.00 23.38
303.00 22.02
304.00 20.86
305.00 19.86
306.00 19.01
307.00 18.30
308.00 17.72
309.00 17.31
310.00 17.08
311.00 17.09
312.00 17.35
313.00 17.91
314.00 18.79
315.00 20.01
316.00 21.56
317.00 23.41
318.00 25.48
319.00 27.69
320.00 29.98
321.00 32.39
322.00 34.91
323.00 37.08
324.00 37.90
325.00 37.43
326.00 36.76
327.00 36.33
328.00 36.03
329.00 35.81
330.00 36.09
331.00 37.76
332.00 43.28
333.00 47.70
334.00 35.11
335.00 29.45
336.00 25.97
337.00 23.74
338.00 22.43
339.00 21.96
340.00 22.34
341.00 23.77
342.00 26.71
343.00 32.28
344.00 34.13
345.00 27.70
346.00 24.18
347.00 22.71
348.00 23.04
349.00 26.04
350.00 40.27
351.00 25.31
352.00 17.21
353.00 12.40
354.00 8.96
355.00 6.34
356.00 4.31
357.00 2.74
358.00 1.55
359.00 0.72
