NAME ATR4518R7_1750_X_CO_M45_09T_yyR
FREQUENCY 1750
GAIN 14.28 dBd
TILT	ELECTRICAL
COMMENT DATE 05.08.2013 -45 degrees polarized system Lever position 09T deg
HORIZONTAL 360
0.00 0.02
1.00 0.01
2.00 0.01
3.00 0.00
4.00 0.01
5.00 0.01
6.00 0.02
7.00 0.04
8.00 0.06
9.00 0.09
10.00 0.12
11.00 0.16
12.00 0.21
13.00 0.26
14.00 0.32
15.00 0.40
16.00 0.48
17.00 0.56
18.00 0.66
19.00 0.77
20.00 0.89
21.00 1.02
22.00 1.15
23.00 1.30
24.00 1.46
25.00 1.63
26.00 1.82
27.00 2.01
28.00 2.22
29.00 2.43
30.00 2.66
31.00 2.90
32.00 3.15
33.00 3.42
34.00 3.69
35.00 3.98
36.00 4.27
37.00 4.58
38.00 4.90
39.00 5.23
40.00 5.56
41.00 5.90
42.00 6.26
43.00 6.61
44.00 6.98
45.00 7.35
46.00 7.72
47.00 8.10
48.00 8.48
49.00 8.86
50.00 9.24
51.00 9.62
52.00 10.00
53.00 10.37
54.00 10.73
55.00 11.09
56.00 11.44
57.00 11.79
58.00 12.12
59.00 12.45
60.00 12.76
61.00 13.06
62.00 13.36
63.00 13.64
64.00 13.91
65.00 14.18
66.00 14.44
67.00 14.69
68.00 14.93
69.00 15.17
70.00 15.40
71.00 15.64
72.00 15.87
73.00 16.10
74.00 16.33
75.00 16.56
76.00 16.79
77.00 17.03
78.00 17.27
79.00 17.51
80.00 17.76
81.00 18.02
82.00 18.28
83.00 18.55
84.00 18.82
85.00 19.10
86.00 19.38
87.00 19.67
88.00 19.97
89.00 20.27
90.00 20.57
91.00 20.88
92.00 21.18
93.00 21.49
94.00 21.80
95.00 22.10
96.00 22.41
97.00 22.71
98.00 23.00
99.00 23.29
100.00 23.57
101.00 23.85
102.00 24.12
103.00 24.38
104.00 24.64
105.00 24.89
106.00 25.13
107.00 25.38
108.00 25.62
109.00 25.86
110.00 26.10
111.00 26.35
112.00 26.59
113.00 26.84
114.00 27.09
115.00 27.34
116.00 27.60
117.00 27.85
118.00 28.10
119.00 28.35
120.00 28.59
121.00 28.83
122.00 29.05
123.00 29.26
124.00 29.47
125.00 29.66
126.00 29.84
127.00 30.02
128.00 30.19
129.00 30.37
130.00 30.55
131.00 30.75
132.00 30.97
133.00 31.22
134.00 31.51
135.00 31.84
136.00 32.23
137.00 32.69
138.00 33.22
139.00 33.85
140.00 34.59
141.00 35.47
142.00 36.52
143.00 37.80
144.00 39.37
145.00 41.36
146.00 43.95
147.00 47.41
148.00 51.21
149.00 50.38
150.00 46.38
151.00 43.12
152.00 40.68
153.00 38.80
154.00 37.29
155.00 36.07
156.00 35.06
157.00 34.23
158.00 33.54
159.00 32.97
160.00 32.52
161.00 32.16
162.00 31.90
163.00 31.72
164.00 31.62
165.00 31.61
166.00 31.67
167.00 31.81
168.00 32.02
169.00 32.32
170.00 32.70
171.00 33.16
172.00 33.72
173.00 34.37
174.00 35.12
175.00 35.98
176.00 36.93
177.00 37.95
178.00 39.00
179.00 39.94
180.00 40.60
181.00 40.80
182.00 40.46
183.00 39.72
184.00 38.77
185.00 37.77
186.00 36.81
187.00 35.93
188.00 35.14
189.00 34.45
190.00 33.85
191.00 33.33
192.00 32.88
193.00 32.51
194.00 32.20
195.00 31.96
196.00 31.76
197.00 31.62
198.00 31.53
199.00 31.49
200.00 31.48
201.00 31.52
202.00 31.59
203.00 31.69
204.00 31.81
205.00 31.95
206.00 32.11
207.00 32.27
208.00 32.43
209.00 32.58
210.00 32.71
211.00 32.80
212.00 32.85
213.00 32.86
214.00 32.82
215.00 32.74
216.00 32.61
217.00 32.45
218.00 32.26
219.00 32.06
220.00 31.85
221.00 31.65
222.00 31.46
223.00 31.30
224.00 31.15
225.00 31.04
226.00 30.97
227.00 30.93
228.00 30.94
229.00 31.00
230.00 31.10
231.00 31.26
232.00 31.46
233.00 31.73
234.00 32.05
235.00 32.43
236.00 32.86
237.00 33.34
238.00 33.87
239.00 34.41
240.00 34.96
241.00 35.45
242.00 35.83
243.00 36.03
244.00 36.00
245.00 35.73
246.00 35.24
247.00 34.60
248.00 33.87
249.00 33.10
250.00 32.33
251.00 31.58
252.00 30.87
253.00 30.20
254.00 29.58
255.00 28.99
256.00 28.45
257.00 27.94
258.00 27.47
259.00 27.02
260.00 26.60
261.00 26.20
262.00 25.82
263.00 25.45
264.00 25.09
265.00 24.74
266.00 24.40
267.00 24.06
268.00 23.72
269.00 23.37
270.00 23.03
271.00 22.68
272.00 22.32
273.00 21.96
274.00 21.60
275.00 21.23
276.00 20.85
277.00 20.47
278.00 20.08
279.00 19.69
280.00 19.30
281.00 18.90
282.00 18.49
283.00 18.09
284.00 17.68
285.00 17.27
286.00 16.86
287.00 16.44
288.00 16.03
289.00 15.61
290.00 15.20
291.00 14.78
292.00 14.36
293.00 13.94
294.00 13.52
295.00 13.11
296.00 12.69
297.00 12.28
298.00 11.87
299.00 11.46
300.00 11.05
301.00 10.65
302.00 10.25
303.00 9.86
304.00 9.47
305.00 9.08
306.00 8.70
307.00 8.33
308.00 7.97
309.00 7.61
310.00 7.26
311.00 6.91
312.00 6.58
313.00 6.25
314.00 5.93
315.00 5.62
316.00 5.32
317.00 5.03
318.00 4.75
319.00 4.48
320.00 4.21
321.00 3.96
322.00 3.71
323.00 3.48
324.00 3.26
325.00 3.04
326.00 2.83
327.00 2.64
328.00 2.45
329.00 2.28
330.00 2.11
331.00 1.95
332.00 1.80
333.00 1.66
334.00 1.52
335.00 1.40
336.00 1.28
337.00 1.17
338.00 1.07
339.00 0.97
340.00 0.88
341.00 0.80
342.00 0.72
343.00 0.65
344.00 0.58
345.00 0.52
346.00 0.47
347.00 0.41
348.00 0.37
349.00 0.32
350.00 0.28
351.00 0.24
352.00 0.20
353.00 0.17
354.00 0.14
355.00 0.12
356.00 0.09
357.00 0.07
358.00 0.05
359.00 0.03
VERTICAL 360
0.00 27.08
1.00 35.85
2.00 20.15
3.00 12.50
4.00 7.84
5.00 4.66
6.00 2.47
7.00 1.02
8.00 0.22
9.00 0.00
10.00 0.36
11.00 1.36
12.00 3.08
13.00 5.76
14.00 9.85
15.00 16.47
16.00 22.68
17.00 17.74
18.00 15.38
19.00 15.53
20.00 17.73
21.00 22.33
22.00 26.09
23.00 21.32
24.00 17.75
25.00 16.16
26.00 15.99
27.00 17.19
28.00 20.17
29.00 26.96
30.00 36.73
31.00 24.06
32.00 19.92
33.00 18.33
34.00 18.34
35.00 19.88
36.00 23.65
37.00 32.60
38.00 30.31
39.00 22.95
40.00 19.96
41.00 18.83
42.00 18.83
43.00 19.65
44.00 21.14
45.00 23.37
46.00 26.77
47.00 31.87
48.00 32.07
49.00 26.55
50.00 23.01
51.00 20.88
52.00 19.54
53.00 18.58
54.00 17.86
55.00 17.36
56.00 17.13
57.00 17.35
58.00 18.23
59.00 19.56
60.00 21.06
61.00 22.46
62.00 23.70
63.00 24.87
64.00 26.00
65.00 27.06
66.00 27.86
67.00 28.31
68.00 28.48
69.00 28.51
70.00 28.52
71.00 28.62
72.00 28.77
73.00 28.89
74.00 28.90
75.00 28.86
76.00 28.73
77.00 28.56
78.00 28.41
79.00 28.30
80.00 28.19
81.00 27.96
82.00 27.48
83.00 26.67
84.00 25.69
85.00 25.24
86.00 25.37
87.00 25.67
88.00 26.15
89.00 26.88
90.00 27.74
91.00 28.42
92.00 28.70
93.00 28.24
94.00 27.30
95.00 26.93
96.00 27.35
97.00 28.65
98.00 30.72
99.00 33.13
100.00 35.04
101.00 35.79
102.00 35.80
103.00 36.03
104.00 36.90
105.00 37.81
106.00 37.61
107.00 36.74
108.00 36.33
109.00 36.69
110.00 37.33
111.00 37.16
112.00 35.60
113.00 33.66
114.00 32.23
115.00 31.52
116.00 31.40
117.00 31.60
118.00 31.89
119.00 32.22
120.00 32.69
121.00 33.45
122.00 34.47
123.00 35.38
124.00 35.36
125.00 33.92
126.00 32.03
127.00 30.78
128.00 30.61
129.00 31.58
130.00 33.48
131.00 35.74
132.00 37.80
133.00 39.89
134.00 42.42
135.00 44.32
136.00 44.12
137.00 43.36
138.00 43.46
139.00 45.02
140.00 50.55
141.00 54.12
142.00 41.06
143.00 35.53
144.00 32.67
145.00 31.50
146.00 31.68
147.00 32.95
148.00 34.82
149.00 35.92
150.00 35.09
151.00 33.54
152.00 32.44
153.00 31.94
154.00 31.84
155.00 32.04
156.00 32.65
157.00 33.80
158.00 35.49
159.00 37.34
160.00 38.33
161.00 37.51
162.00 35.62
163.00 33.96
164.00 33.15
165.00 33.42
166.00 34.64
167.00 36.10
168.00 36.67
169.00 36.73
170.00 37.59
171.00 39.72
172.00 41.59
173.00 40.32
174.00 38.06
175.00 36.83
176.00 36.88
177.00 38.34
178.00 41.46
179.00 46.23
180.00 48.31
181.00 43.96
182.00 39.58
183.00 36.54
184.00 34.86
185.00 34.42
186.00 35.02
187.00 36.20
188.00 37.03
189.00 36.38
190.00 34.52
191.00 32.76
192.00 31.87
193.00 32.06
194.00 33.24
195.00 34.83
196.00 35.95
197.00 36.54
198.00 37.31
199.00 38.66
200.00 41.07
201.00 46.30
202.00 60.77
203.00 50.69
204.00 51.19
205.00 55.55
206.00 39.34
207.00 33.33
208.00 30.27
209.00 29.07
210.00 29.39
211.00 31.17
212.00 34.44
213.00 39.11
214.00 44.07
215.00 46.17
216.00 43.79
217.00 41.12
218.00 40.76
219.00 44.30
220.00 58.65
221.00 42.98
222.00 37.13
223.00 34.72
224.00 34.06
225.00 34.61
226.00 35.69
227.00 35.74
228.00 33.94
229.00 31.82
230.00 30.44
231.00 29.97
232.00 30.43
233.00 31.82
234.00 34.16
235.00 37.65
236.00 42.53
237.00 47.38
238.00 47.13
239.00 45.98
240.00 46.51
241.00 47.35
242.00 46.76
243.00 45.87
244.00 45.82
245.00 45.58
246.00 44.10
247.00 42.68
248.00 42.30
249.00 42.59
250.00 42.34
251.00 40.93
252.00 39.13
253.00 37.74
254.00 37.11
255.00 37.29
256.00 37.96
257.00 38.56
258.00 38.89
259.00 39.27
260.00 39.96
261.00 40.60
262.00 40.59
263.00 40.29
264.00 40.72
265.00 41.82
266.00 42.08
267.00 41.54
268.00 41.98
269.00 43.29
270.00 43.19
271.00 41.73
272.00 40.21
273.00 38.48
274.00 37.17
275.00 37.24
276.00 39.35
277.00 44.91
278.00 58.08
279.00 45.37
280.00 39.56
281.00 35.96
282.00 33.16
283.00 30.94
284.00 29.25
285.00 27.95
286.00 26.85
287.00 25.85
288.00 24.96
289.00 24.20
290.00 23.52
291.00 22.98
292.00 22.68
293.00 22.76
294.00 23.35
295.00 24.57
296.00 26.53
297.00 29.22
298.00 32.06
299.00 32.69
300.00 30.11
301.00 26.74
302.00 23.74
303.00 21.36
304.00 19.72
305.00 18.84
306.00 18.72
307.00 19.33
308.00 20.70
309.00 23.01
310.00 27.02
311.00 34.40
312.00 31.29
313.00 24.35
314.00 20.67
315.00 18.56
316.00 17.44
317.00 17.11
318.00 17.55
319.00 18.95
320.00 21.92
321.00 28.85
322.00 41.54
323.00 24.60
324.00 19.89
325.00 17.58
326.00 16.53
327.00 16.39
328.00 17.03
329.00 18.41
330.00 20.54
331.00 23.32
332.00 26.43
333.00 29.33
334.00 30.68
335.00 28.39
336.00 24.49
337.00 21.17
338.00 18.72
339.00 17.06
340.00 16.11
341.00 15.88
342.00 16.44
343.00 17.96
344.00 20.55
345.00 23.28
346.00 23.13
347.00 21.45
348.00 21.22
349.00 23.58
350.00 29.91
351.00 26.90
352.00 20.30
353.00 17.34
354.00 16.48
355.00 17.33
356.00 20.16
357.00 26.09
358.00 31.12
359.00 26.42
