NAME ATR4518R7_0806_X_CO_M45_02T
FREQUENCY 0806
GAIN 14.21 dBd
TILT	ELECTRICAL
COMMENT DATE 05.08.2013 -45 degrees polarized system Lever position 02T deg
HORIZONTAL 360
0.00 0.01
1.00 0.02
2.00 0.04
3.00 0.06
4.00 0.08
5.00 0.12
6.00 0.16
7.00 0.20
8.00 0.25
9.00 0.31
10.00 0.37
11.00 0.44
12.00 0.51
13.00 0.60
14.00 0.68
15.00 0.77
16.00 0.87
17.00 0.98
18.00 1.08
19.00 1.20
20.00 1.32
21.00 1.45
22.00 1.58
23.00 1.72
24.00 1.87
25.00 2.02
26.00 2.18
27.00 2.34
28.00 2.51
29.00 2.68
30.00 2.87
31.00 3.05
32.00 3.24
33.00 3.44
34.00 3.65
35.00 3.86
36.00 4.07
37.00 4.29
38.00 4.52
39.00 4.75
40.00 4.99
41.00 5.23
42.00 5.48
43.00 5.74
44.00 6.00
45.00 6.26
46.00 6.53
47.00 6.81
48.00 7.09
49.00 7.38
50.00 7.66
51.00 7.96
52.00 8.26
53.00 8.56
54.00 8.87
55.00 9.19
56.00 9.50
57.00 9.82
58.00 10.15
59.00 10.47
60.00 10.80
61.00 11.14
62.00 11.47
63.00 11.81
64.00 12.15
65.00 12.50
66.00 12.84
67.00 13.19
68.00 13.54
69.00 13.89
70.00 14.24
71.00 14.59
72.00 14.94
73.00 15.29
74.00 15.64
75.00 15.99
76.00 16.34
77.00 16.69
78.00 17.03
79.00 17.37
80.00 17.71
81.00 18.05
82.00 18.37
83.00 18.70
84.00 19.02
85.00 19.33
86.00 19.64
87.00 19.94
88.00 20.23
89.00 20.52
90.00 20.80
91.00 21.07
92.00 21.33
93.00 21.58
94.00 21.83
95.00 22.06
96.00 22.29
97.00 22.51
98.00 22.73
99.00 22.93
100.00 23.13
101.00 23.33
102.00 23.52
103.00 23.71
104.00 23.90
105.00 24.08
106.00 24.27
107.00 24.46
108.00 24.64
109.00 24.83
110.00 25.03
111.00 25.23
112.00 25.44
113.00 25.65
114.00 25.87
115.00 26.11
116.00 26.35
117.00 26.60
118.00 26.86
119.00 27.14
120.00 27.43
121.00 27.74
122.00 28.06
123.00 28.40
124.00 28.76
125.00 29.14
126.00 29.53
127.00 29.95
128.00 30.39
129.00 30.86
130.00 31.36
131.00 31.88
132.00 32.43
133.00 33.01
134.00 33.64
135.00 34.29
136.00 34.99
137.00 35.74
138.00 36.53
139.00 37.37
140.00 38.28
141.00 39.24
142.00 40.28
143.00 41.38
144.00 42.54
145.00 43.75
146.00 44.96
147.00 46.12
148.00 47.11
149.00 47.76
150.00 48.00
151.00 47.83
152.00 47.35
153.00 46.73
154.00 46.06
155.00 45.41
156.00 44.81
157.00 44.29
158.00 43.83
159.00 43.45
160.00 43.12
161.00 42.85
162.00 42.65
163.00 42.49
164.00 42.39
165.00 42.33
166.00 42.30
167.00 42.31
168.00 42.38
169.00 42.45
170.00 42.59
171.00 42.73
172.00 42.90
173.00 43.12
174.00 43.34
175.00 43.58
176.00 43.85
177.00 44.12
178.00 44.39
179.00 44.69
180.00 44.97
181.00 45.26
182.00 45.53
183.00 45.79
184.00 46.04
185.00 46.25
186.00 46.43
187.00 46.57
188.00 46.67
189.00 46.72
190.00 46.74
191.00 46.72
192.00 46.63
193.00 46.52
194.00 46.36
195.00 46.16
196.00 45.94
197.00 45.68
198.00 45.40
199.00 45.09
200.00 44.76
201.00 44.42
202.00 44.07
203.00 43.71
204.00 43.34
205.00 42.96
206.00 42.59
207.00 42.21
208.00 41.83
209.00 41.46
210.00 41.09
211.00 40.73
212.00 40.37
213.00 40.02
214.00 39.67
215.00 39.33
216.00 38.99
217.00 38.66
218.00 38.33
219.00 38.00
220.00 37.68
221.00 37.34
222.00 37.01
223.00 36.68
224.00 36.33
225.00 35.99
226.00 35.62
227.00 35.25
228.00 34.87
229.00 34.48
230.00 34.07
231.00 33.65
232.00 33.22
233.00 32.78
234.00 32.32
235.00 31.86
236.00 31.39
237.00 30.91
238.00 30.42
239.00 29.93
240.00 29.44
241.00 28.95
242.00 28.46
243.00 27.97
244.00 27.48
245.00 27.00
246.00 26.52
247.00 26.05
248.00 25.58
249.00 25.12
250.00 24.67
251.00 24.22
252.00 23.78
253.00 23.36
254.00 22.93
255.00 22.52
256.00 22.11
257.00 21.72
258.00 21.33
259.00 20.94
260.00 20.57
261.00 20.20
262.00 19.84
263.00 19.49
264.00 19.14
265.00 18.80
266.00 18.47
267.00 18.14
268.00 17.82
269.00 17.51
270.00 17.20
271.00 16.89
272.00 16.59
273.00 16.29
274.00 16.00
275.00 15.71
276.00 15.42
277.00 15.14
278.00 14.86
279.00 14.58
280.00 14.30
281.00 14.03
282.00 13.75
283.00 13.48
284.00 13.21
285.00 12.94
286.00 12.67
287.00 12.40
288.00 12.14
289.00 11.87
290.00 11.60
291.00 11.34
292.00 11.07
293.00 10.80
294.00 10.54
295.00 10.27
296.00 10.01
297.00 9.74
298.00 9.48
299.00 9.22
300.00 8.96
301.00 8.69
302.00 8.44
303.00 8.18
304.00 7.92
305.00 7.67
306.00 7.41
307.00 7.16
308.00 6.91
309.00 6.67
310.00 6.42
311.00 6.18
312.00 5.94
313.00 5.71
314.00 5.48
315.00 5.25
316.00 5.03
317.00 4.81
318.00 4.59
319.00 4.38
320.00 4.17
321.00 3.97
322.00 3.76
323.00 3.57
324.00 3.38
325.00 3.19
326.00 3.01
327.00 2.84
328.00 2.66
329.00 2.50
330.00 2.34
331.00 2.18
332.00 2.03
333.00 1.88
334.00 1.74
335.00 1.60
336.00 1.47
337.00 1.35
338.00 1.23
339.00 1.12
340.00 1.01
341.00 0.90
342.00 0.81
343.00 0.71
344.00 0.63
345.00 0.55
346.00 0.47
347.00 0.40
348.00 0.34
349.00 0.28
350.00 0.22
351.00 0.18
352.00 0.14
353.00 0.10
354.00 0.07
355.00 0.04
356.00 0.03
357.00 0.01
358.00 0.01
359.00 0.01
VERTICAL 360
0.00 0.69
1.00 0.19
2.00 0.00
3.00 0.12
4.00 0.55
5.00 1.30
6.00 2.39
7.00 3.87
8.00 5.79
9.00 8.27
10.00 11.49
11.00 15.85
12.00 22.41
13.00 37.79
14.00 31.24
15.00 26.89
16.00 27.04
17.00 30.08
18.00 32.12
19.00 26.57
20.00 22.23
21.00 19.59
22.00 18.10
23.00 17.46
24.00 17.54
25.00 18.31
26.00 19.80
27.00 22.11
28.00 25.60
29.00 31.21
30.00 44.56
31.00 39.15
32.00 33.36
33.00 31.99
34.00 33.09
35.00 36.71
36.00 36.13
37.00 29.35
38.00 24.56
39.00 21.23
40.00 18.81
41.00 17.04
42.00 15.76
43.00 14.87
44.00 14.31
45.00 14.02
46.00 13.96
47.00 14.12
48.00 14.47
49.00 15.04
50.00 15.84
51.00 16.91
52.00 18.28
53.00 19.97
54.00 22.00
55.00 24.34
56.00 26.91
57.00 29.51
58.00 31.81
59.00 33.32
60.00 33.75
61.00 33.28
62.00 32.47
63.00 31.80
64.00 31.61
65.00 32.11
66.00 33.50
67.00 35.87
68.00 38.80
69.00 39.79
70.00 38.02
71.00 36.09
72.00 34.72
73.00 33.76
74.00 33.10
75.00 32.63
76.00 32.15
77.00 31.41
78.00 30.37
79.00 29.31
80.00 28.47
81.00 27.99
82.00 27.84
83.00 27.93
84.00 28.14
85.00 28.35
86.00 28.51
87.00 28.64
88.00 28.82
89.00 29.17
90.00 29.75
91.00 30.55
92.00 31.45
93.00 32.30
94.00 32.95
95.00 33.40
96.00 33.75
97.00 34.09
98.00 34.48
99.00 34.93
100.00 35.52
101.00 36.31
102.00 37.41
103.00 38.89
104.00 40.60
105.00 42.08
106.00 42.74
107.00 42.79
108.00 42.75
109.00 42.60
110.00 42.03
111.00 41.06
112.00 40.10
113.00 39.43
114.00 39.10
115.00 39.06
116.00 39.27
117.00 39.82
118.00 40.81
119.00 42.40
120.00 44.70
121.00 47.96
122.00 52.88
123.00 58.62
124.00 52.21
125.00 46.57
126.00 42.93
127.00 40.48
128.00 38.88
129.00 37.97
130.00 37.62
131.00 37.71
132.00 38.13
133.00 38.72
134.00 39.37
135.00 40.00
136.00 40.67
137.00 41.58
138.00 43.05
139.00 45.52
140.00 49.58
141.00 53.65
142.00 50.49
143.00 47.16
144.00 45.64
145.00 45.43
146.00 45.98
147.00 46.45
148.00 45.92
149.00 44.48
150.00 42.73
151.00 40.89
152.00 39.07
153.00 37.42
154.00 36.10
155.00 35.18
156.00 34.65
157.00 34.35
158.00 34.01
159.00 33.40
160.00 32.54
161.00 31.70
162.00 31.11
163.00 30.95
164.00 31.31
165.00 32.31
166.00 34.10
167.00 37.04
168.00 42.09
169.00 49.39
170.00 42.92
171.00 38.05
172.00 35.48
173.00 34.23
174.00 33.93
175.00 35.52
176.00 37.77
177.00 40.80
178.00 44.54
179.00 47.04
180.00 47.45
181.00 45.91
182.00 44.25
183.00 43.11
184.00 42.59
185.00 42.81
186.00 43.89
187.00 45.39
188.00 44.70
189.00 41.28
190.00 37.99
191.00 35.56
192.00 33.85
193.00 32.70
194.00 31.95
195.00 31.49
196.00 31.21
197.00 31.08
198.00 31.05
199.00 31.14
200.00 31.35
201.00 31.75
202.00 32.37
203.00 33.28
204.00 34.52
205.00 36.12
206.00 38.07
207.00 40.03
208.00 40.58
209.00 38.88
210.00 36.57
211.00 34.77
212.00 33.69
213.00 33.32
214.00 33.62
215.00 34.58
216.00 36.22
217.00 38.69
218.00 42.38
219.00 48.54
220.00 57.61
221.00 47.98
222.00 42.82
223.00 39.79
224.00 37.97
225.00 37.16
226.00 37.35
227.00 38.71
228.00 41.58
229.00 46.87
230.00 53.80
231.00 48.40
232.00 44.44
233.00 42.27
234.00 40.67
235.00 39.21
236.00 37.88
237.00 36.79
238.00 36.09
239.00 35.92
240.00 36.39
241.00 37.66
242.00 39.80
243.00 42.48
244.00 43.78
245.00 42.38
246.00 40.38
247.00 38.87
248.00 37.86
249.00 37.28
250.00 37.06
251.00 37.13
252.00 37.45
253.00 37.99
254.00 38.75
255.00 39.68
256.00 40.50
257.00 40.73
258.00 40.04
259.00 38.63
260.00 37.05
261.00 35.76
262.00 35.03
263.00 34.97
264.00 35.61
265.00 36.84
266.00 38.42
267.00 40.05
268.00 41.62
269.00 43.02
270.00 43.18
271.00 41.53
272.00 39.50
273.00 37.94
274.00 36.83
275.00 35.96
276.00 35.26
277.00 34.84
278.00 34.81
279.00 35.25
280.00 36.06
281.00 37.04
282.00 37.85
283.00 38.29
284.00 38.31
285.00 37.94
286.00 37.27
287.00 36.42
288.00 35.51
289.00 34.66
290.00 33.99
291.00 33.60
292.00 33.59
293.00 34.05
294.00 35.13
295.00 37.12
296.00 40.87
297.00 50.14
298.00 44.76
299.00 36.52
300.00 31.88
301.00 28.66
302.00 26.23
303.00 24.33
304.00 22.79
305.00 21.49
306.00 20.39
307.00 19.43
308.00 18.63
309.00 17.99
310.00 17.57
311.00 17.38
312.00 17.48
313.00 17.88
314.00 18.62
315.00 19.69
316.00 21.08
317.00 22.76
318.00 24.68
319.00 26.77
320.00 29.00
321.00 31.48
322.00 34.51
323.00 38.59
324.00 43.83
325.00 45.31
326.00 42.20
327.00 39.76
328.00 37.82
329.00 36.10
330.00 34.88
331.00 34.53
332.00 35.48
333.00 38.28
334.00 40.01
335.00 34.20
336.00 29.14
337.00 25.75
338.00 23.52
339.00 22.20
340.00 21.71
341.00 22.07
342.00 23.44
343.00 26.15
344.00 30.66
345.00 32.07
346.00 27.36
347.00 24.22
348.00 22.90
349.00 23.32
350.00 26.46
351.00 42.64
352.00 25.13
353.00 17.17
354.00 12.38
355.00 8.94
356.00 6.31
357.00 4.27
358.00 2.70
359.00 1.52
