NAME ATR4518R7_1950_X_CO_P45_03T_yyR
FREQUENCY 1950
GAIN 15.41 dBd
TILT	ELECTRICAL
COMMENT DATE 05.08.2013 +45 degrees polarized system Lever position 03T deg
HORIZONTAL 360
0.00 0.15
1.00 0.11
2.00 0.07
3.00 0.05
4.00 0.02
5.00 0.01
6.00 0.00
7.00 0.00
8.00 0.00
9.00 0.02
10.00 0.04
11.00 0.07
12.00 0.11
13.00 0.15
14.00 0.21
15.00 0.28
16.00 0.35
17.00 0.44
18.00 0.53
19.00 0.63
20.00 0.75
21.00 0.87
22.00 1.01
23.00 1.16
24.00 1.31
25.00 1.48
26.00 1.66
27.00 1.84
28.00 2.04
29.00 2.25
30.00 2.47
31.00 2.69
32.00 2.93
33.00 3.17
34.00 3.43
35.00 3.69
36.00 3.96
37.00 4.24
38.00 4.52
39.00 4.82
40.00 5.11
41.00 5.42
42.00 5.73
43.00 6.04
44.00 6.36
45.00 6.68
46.00 7.01
47.00 7.34
48.00 7.67
49.00 8.01
50.00 8.35
51.00 8.69
52.00 9.03
53.00 9.37
54.00 9.71
55.00 10.06
56.00 10.40
57.00 10.75
58.00 11.09
59.00 11.44
60.00 11.78
61.00 12.13
62.00 12.47
63.00 12.81
64.00 13.16
65.00 13.50
66.00 13.84
67.00 14.19
68.00 14.54
69.00 14.88
70.00 15.23
71.00 15.58
72.00 15.93
73.00 16.29
74.00 16.65
75.00 17.01
76.00 17.38
77.00 17.75
78.00 18.12
79.00 18.50
80.00 18.88
81.00 19.26
82.00 19.65
83.00 20.04
84.00 20.43
85.00 20.83
86.00 21.23
87.00 21.63
88.00 22.03
89.00 22.43
90.00 22.83
91.00 23.24
92.00 23.65
93.00 24.06
94.00 24.48
95.00 24.90
96.00 25.33
97.00 25.78
98.00 26.24
99.00 26.71
100.00 27.21
101.00 27.74
102.00 28.30
103.00 28.90
104.00 29.54
105.00 30.24
106.00 31.00
107.00 31.83
108.00 32.73
109.00 33.72
110.00 34.80
111.00 35.96
112.00 37.20
113.00 38.44
114.00 39.55
115.00 40.35
116.00 40.60
117.00 40.30
118.00 39.60
119.00 38.73
120.00 37.84
121.00 37.02
122.00 36.30
123.00 35.68
124.00 35.18
125.00 34.79
126.00 34.50
127.00 34.30
128.00 34.21
129.00 34.21
130.00 34.29
131.00 34.47
132.00 34.74
133.00 35.11
134.00 35.56
135.00 36.11
136.00 36.75
137.00 37.47
138.00 38.25
139.00 39.05
140.00 39.80
141.00 40.37
142.00 40.68
143.00 40.63
144.00 40.25
145.00 39.62
146.00 38.87
147.00 38.10
148.00 37.36
149.00 36.67
150.00 36.07
151.00 35.54
152.00 35.10
153.00 34.72
154.00 34.42
155.00 34.20
156.00 34.03
157.00 33.92
158.00 33.88
159.00 33.89
160.00 33.96
161.00 34.07
162.00 34.24
163.00 34.46
164.00 34.73
165.00 35.05
166.00 35.43
167.00 35.85
168.00 36.33
169.00 36.84
170.00 37.38
171.00 37.94
172.00 38.48
173.00 38.97
174.00 39.33
175.00 39.51
176.00 39.48
177.00 39.23
178.00 38.79
179.00 38.22
180.00 37.58
181.00 36.93
182.00 36.29
183.00 35.70
184.00 35.16
185.00 34.69
186.00 34.29
187.00 33.96
188.00 33.70
189.00 33.52
190.00 33.42
191.00 33.38
192.00 33.42
193.00 33.53
194.00 33.71
195.00 33.96
196.00 34.27
197.00 34.63
198.00 35.04
199.00 35.46
200.00 35.88
201.00 36.25
202.00 36.54
203.00 36.70
204.00 36.70
205.00 36.54
206.00 36.24
207.00 35.84
208.00 35.38
209.00 34.90
210.00 34.44
211.00 34.01
212.00 33.61
213.00 33.27
214.00 32.99
215.00 32.75
216.00 32.58
217.00 32.45
218.00 32.38
219.00 32.35
220.00 32.36
221.00 32.40
222.00 32.47
223.00 32.56
224.00 32.65
225.00 32.73
226.00 32.81
227.00 32.85
228.00 32.87
229.00 32.84
230.00 32.77
231.00 32.65
232.00 32.50
233.00 32.31
234.00 32.09
235.00 31.85
236.00 31.60
237.00 31.34
238.00 31.08
239.00 30.82
240.00 30.57
241.00 30.32
242.00 30.08
243.00 29.86
244.00 29.63
245.00 29.42
246.00 29.21
247.00 29.01
248.00 28.81
249.00 28.62
250.00 28.42
251.00 28.23
252.00 28.04
253.00 27.84
254.00 27.65
255.00 27.45
256.00 27.25
257.00 27.05
258.00 26.84
259.00 26.64
260.00 26.42
261.00 26.21
262.00 25.99
263.00 25.77
264.00 25.54
265.00 25.30
266.00 25.06
267.00 24.81
268.00 24.56
269.00 24.30
270.00 24.03
271.00 23.76
272.00 23.47
273.00 23.18
274.00 22.88
275.00 22.57
276.00 22.26
277.00 21.93
278.00 21.60
279.00 21.26
280.00 20.92
281.00 20.57
282.00 20.21
283.00 19.85
284.00 19.49
285.00 19.12
286.00 18.75
287.00 18.38
288.00 18.01
289.00 17.63
290.00 17.26
291.00 16.89
292.00 16.52
293.00 16.16
294.00 15.79
295.00 15.43
296.00 15.07
297.00 14.71
298.00 14.36
299.00 14.01
300.00 13.67
301.00 13.32
302.00 12.98
303.00 12.64
304.00 12.30
305.00 11.97
306.00 11.64
307.00 11.31
308.00 10.98
309.00 10.65
310.00 10.33
311.00 10.00
312.00 9.68
313.00 9.36
314.00 9.04
315.00 8.73
316.00 8.41
317.00 8.10
318.00 7.79
319.00 7.48
320.00 7.18
321.00 6.88
322.00 6.59
323.00 6.30
324.00 6.01
325.00 5.72
326.00 5.45
327.00 5.18
328.00 4.91
329.00 4.65
330.00 4.40
331.00 4.16
332.00 3.92
333.00 3.68
334.00 3.46
335.00 3.24
336.00 3.03
337.00 2.83
338.00 2.64
339.00 2.45
340.00 2.27
341.00 2.10
342.00 1.94
343.00 1.78
344.00 1.63
345.00 1.49
346.00 1.36
347.00 1.23
348.00 1.11
349.00 0.99
350.00 0.89
351.00 0.79
352.00 0.69
353.00 0.60
354.00 0.52
355.00 0.44
356.00 0.37
357.00 0.31
358.00 0.25
359.00 0.20
VERTICAL 360
0.00 3.36
1.00 1.45
2.00 0.36
3.00 0.00
4.00 0.37
5.00 1.49
6.00 3.54
7.00 6.84
8.00 12.43
9.00 29.57
10.00 21.53
11.00 15.51
12.00 14.73
13.00 16.92
14.00 23.14
15.00 26.24
16.00 19.10
17.00 16.20
18.00 15.76
19.00 17.19
20.00 20.90
21.00 29.17
22.00 28.80
23.00 21.69
24.00 19.16
25.00 19.17
26.00 21.81
27.00 30.23
28.00 32.86
29.00 23.00
30.00 19.98
31.00 19.22
32.00 19.72
33.00 21.06
34.00 23.12
35.00 25.58
36.00 26.76
37.00 25.76
38.00 24.55
39.00 24.01
40.00 23.71
41.00 23.20
42.00 22.68
43.00 22.67
44.00 23.44
45.00 25.11
46.00 27.75
47.00 31.38
48.00 33.95
49.00 31.64
50.00 28.31
51.00 26.24
52.00 25.43
53.00 25.70
54.00 26.87
55.00 28.63
56.00 30.64
57.00 32.62
58.00 34.50
59.00 36.30
60.00 37.91
61.00 38.78
62.00 38.06
63.00 36.15
64.00 34.22
65.00 32.80
66.00 31.87
67.00 31.21
68.00 30.57
69.00 29.89
70.00 29.29
71.00 28.91
72.00 28.83
73.00 28.95
74.00 29.06
75.00 28.91
76.00 28.44
77.00 27.81
78.00 27.18
79.00 26.65
80.00 26.26
81.00 26.04
82.00 25.99
83.00 26.14
84.00 26.49
85.00 27.02
86.00 27.58
87.00 28.04
88.00 28.39
89.00 28.80
90.00 29.38
91.00 30.15
92.00 30.96
93.00 31.64
94.00 32.09
95.00 32.43
96.00 32.89
97.00 33.69
98.00 34.81
99.00 35.99
100.00 36.97
101.00 37.89
102.00 39.02
103.00 40.38
104.00 41.64
105.00 42.42
106.00 42.67
107.00 42.97
108.00 44.20
109.00 47.20
110.00 52.15
111.00 52.89
112.00 49.28
113.00 47.36
114.00 46.80
115.00 47.12
116.00 48.21
117.00 49.16
118.00 47.08
119.00 43.24
120.00 40.29
121.00 38.45
122.00 37.26
123.00 36.15
124.00 34.79
125.00 33.28
126.00 31.90
127.00 31.01
128.00 30.84
129.00 31.54
130.00 33.00
131.00 34.67
132.00 35.90
133.00 37.02
134.00 39.04
135.00 42.27
136.00 43.54
137.00 40.93
138.00 38.60
139.00 37.50
140.00 37.43
141.00 38.32
142.00 39.98
143.00 41.60
144.00 42.22
145.00 42.26
146.00 41.43
147.00 39.03
148.00 36.78
149.00 35.98
150.00 36.95
151.00 39.74
152.00 43.11
153.00 42.70
154.00 39.81
155.00 37.75
156.00 36.96
157.00 37.29
158.00 38.52
159.00 40.59
160.00 41.96
161.00 39.10
162.00 35.97
163.00 35.22
164.00 37.46
165.00 44.08
166.00 44.48
167.00 39.10
168.00 37.64
169.00 37.83
170.00 38.55
171.00 39.46
172.00 38.37
173.00 35.06
174.00 32.51
175.00 31.53
176.00 32.08
177.00 33.96
178.00 36.29
179.00 36.63
180.00 36.18
181.00 37.47
182.00 41.43
183.00 45.96
184.00 46.58
185.00 51.25
186.00 58.74
187.00 47.23
188.00 45.49
189.00 43.48
190.00 39.38
191.00 37.27
192.00 37.83
193.00 41.21
194.00 46.97
195.00 47.36
196.00 44.89
197.00 45.13
198.00 45.55
199.00 41.63
200.00 37.94
201.00 36.62
202.00 37.50
203.00 40.35
204.00 45.35
205.00 57.74
206.00 46.63
207.00 38.87
208.00 35.53
209.00 34.46
210.00 35.12
211.00 37.21
212.00 39.41
213.00 38.82
214.00 36.59
215.00 34.89
216.00 33.93
217.00 33.62
218.00 33.84
219.00 34.31
220.00 34.83
221.00 35.24
222.00 34.97
223.00 33.92
224.00 33.10
225.00 33.34
226.00 34.97
227.00 38.28
228.00 43.48
229.00 48.55
230.00 51.39
231.00 58.16
232.00 48.41
233.00 42.32
234.00 40.62
235.00 42.23
236.00 49.57
237.00 53.67
238.00 42.44
239.00 38.66
240.00 37.17
241.00 37.03
242.00 38.00
243.00 40.01
244.00 42.89
245.00 46.02
246.00 48.55
247.00 50.78
248.00 54.29
249.00 60.48
250.00 55.74
251.00 48.33
252.00 43.29
253.00 39.53
254.00 37.05
255.00 35.88
256.00 35.86
257.00 36.55
258.00 37.33
259.00 37.89
260.00 38.51
261.00 39.32
262.00 39.73
263.00 38.45
264.00 35.94
265.00 33.84
266.00 32.79
267.00 32.77
268.00 33.48
269.00 34.50
270.00 35.39
271.00 35.62
272.00 34.88
273.00 33.71
274.00 32.83
275.00 32.47
276.00 32.64
277.00 33.36
278.00 34.74
279.00 37.07
280.00 40.63
281.00 42.37
282.00 39.86
283.00 39.02
284.00 42.45
285.00 47.13
286.00 38.25
287.00 33.23
288.00 30.52
289.00 28.78
290.00 27.50
291.00 26.41
292.00 25.43
293.00 24.62
294.00 24.17
295.00 24.29
296.00 25.12
297.00 26.87
298.00 29.82
299.00 34.32
300.00 38.49
301.00 36.67
302.00 33.86
303.00 32.28
304.00 30.93
305.00 29.19
306.00 27.52
307.00 26.48
308.00 26.12
309.00 26.15
310.00 26.16
311.00 25.79
312.00 25.00
313.00 23.97
314.00 22.93
315.00 22.09
316.00 21.59
317.00 21.51
318.00 21.76
319.00 22.05
320.00 21.89
321.00 21.08
322.00 20.05
323.00 19.31
324.00 19.15
325.00 19.61
326.00 20.41
327.00 20.82
328.00 20.28
329.00 19.38
330.00 19.03
331.00 19.75
332.00 22.05
333.00 27.51
334.00 39.19
335.00 27.19
336.00 21.94
337.00 20.22
338.00 20.85
339.00 24.33
340.00 36.43
341.00 32.31
342.00 24.76
343.00 22.91
344.00 23.80
345.00 27.85
346.00 34.80
347.00 27.46
348.00 21.89
349.00 19.45
350.00 19.07
351.00 20.73
352.00 24.42
353.00 25.80
354.00 23.15
355.00 22.75
356.00 22.72
357.00 16.56
358.00 10.46
359.00 6.24
