NAME ATR4518R7_1950_X_CO_M45_04T_yL
FREQUENCY 1950
GAIN 15.22 dBd
TILT	ELECTRICAL
COMMENT DATE 05.08.2013 -45 degrees polarized system Lever position 04T deg
HORIZONTAL 360
0.00 0.02
1.00 0.03
2.00 0.05
3.00 0.08
4.00 0.10
5.00 0.14
6.00 0.17
7.00 0.21
8.00 0.25
9.00 0.29
10.00 0.34
11.00 0.38
12.00 0.43
13.00 0.49
14.00 0.55
15.00 0.61
16.00 0.68
17.00 0.75
18.00 0.83
19.00 0.92
20.00 1.01
21.00 1.10
22.00 1.21
23.00 1.32
24.00 1.44
25.00 1.57
26.00 1.71
27.00 1.86
28.00 2.01
29.00 2.18
30.00 2.35
31.00 2.53
32.00 2.73
33.00 2.93
34.00 3.14
35.00 3.36
36.00 3.60
37.00 3.84
38.00 4.09
39.00 4.35
40.00 4.62
41.00 4.89
42.00 5.18
43.00 5.48
44.00 5.78
45.00 6.09
46.00 6.41
47.00 6.73
48.00 7.06
49.00 7.39
50.00 7.73
51.00 8.07
52.00 8.41
53.00 8.76
54.00 9.11
55.00 9.46
56.00 9.81
57.00 10.16
58.00 10.51
59.00 10.86
60.00 11.22
61.00 11.57
62.00 11.93
63.00 12.29
64.00 12.65
65.00 13.01
66.00 13.38
67.00 13.74
68.00 14.12
69.00 14.49
70.00 14.88
71.00 15.26
72.00 15.65
73.00 16.03
74.00 16.43
75.00 16.82
76.00 17.21
77.00 17.60
78.00 17.99
79.00 18.37
80.00 18.76
81.00 19.13
82.00 19.51
83.00 19.88
84.00 20.25
85.00 20.62
86.00 20.99
87.00 21.37
88.00 21.76
89.00 22.15
90.00 22.57
91.00 23.01
92.00 23.47
93.00 23.96
94.00 24.48
95.00 25.05
96.00 25.64
97.00 26.28
98.00 26.95
99.00 27.64
100.00 28.35
101.00 29.03
102.00 29.66
103.00 30.20
104.00 30.59
105.00 30.80
106.00 30.83
107.00 30.69
108.00 30.45
109.00 30.14
110.00 29.81
111.00 29.49
112.00 29.21
113.00 28.99
114.00 28.82
115.00 28.72
116.00 28.69
117.00 28.71
118.00 28.79
119.00 28.91
120.00 29.07
121.00 29.24
122.00 29.41
123.00 29.55
124.00 29.64
125.00 29.67
126.00 29.63
127.00 29.51
128.00 29.33
129.00 29.10
130.00 28.85
131.00 28.59
132.00 28.34
133.00 28.12
134.00 27.93
135.00 27.78
136.00 27.68
137.00 27.64
138.00 27.64
139.00 27.69
140.00 27.79
141.00 27.93
142.00 28.13
143.00 28.36
144.00 28.63
145.00 28.94
146.00 29.29
147.00 29.67
148.00 30.08
149.00 30.51
150.00 30.97
151.00 31.43
152.00 31.88
153.00 32.28
154.00 32.59
155.00 32.76
156.00 32.77
157.00 32.58
158.00 32.21
159.00 31.71
160.00 31.13
161.00 30.51
162.00 29.92
163.00 29.36
164.00 28.87
165.00 28.46
166.00 28.14
167.00 27.92
168.00 27.80
169.00 27.78
170.00 27.88
171.00 28.10
172.00 28.44
173.00 28.92
174.00 29.53
175.00 30.26
176.00 31.11
177.00 32.02
178.00 32.86
179.00 33.45
180.00 33.56
181.00 33.13
182.00 32.30
183.00 31.29
184.00 30.29
185.00 29.37
186.00 28.58
187.00 27.94
188.00 27.44
189.00 27.09
190.00 26.89
191.00 26.83
192.00 26.93
193.00 27.18
194.00 27.61
195.00 28.24
196.00 29.09
197.00 30.21
198.00 31.70
199.00 33.69
200.00 36.43
201.00 40.43
202.00 45.22
203.00 42.84
204.00 38.05
205.00 34.70
206.00 32.32
207.00 30.54
208.00 29.17
209.00 28.12
210.00 27.30
211.00 26.69
212.00 26.26
213.00 25.99
214.00 25.86
215.00 25.88
216.00 26.04
217.00 26.36
218.00 26.83
219.00 27.48
220.00 28.32
221.00 29.41
222.00 30.80
223.00 32.59
224.00 34.97
225.00 38.21
226.00 42.26
227.00 43.03
228.00 39.07
229.00 35.54
230.00 32.93
231.00 30.95
232.00 29.40
233.00 28.15
234.00 27.13
235.00 26.30
236.00 25.61
237.00 25.05
238.00 24.60
239.00 24.23
240.00 23.94
241.00 23.72
242.00 23.56
243.00 23.44
244.00 23.35
245.00 23.29
246.00 23.24
247.00 23.20
248.00 23.14
249.00 23.07
250.00 22.96
251.00 22.83
252.00 22.66
253.00 22.45
254.00 22.22
255.00 21.96
256.00 21.68
257.00 21.39
258.00 21.09
259.00 20.80
260.00 20.51
261.00 20.24
262.00 19.97
263.00 19.72
264.00 19.48
265.00 19.25
266.00 19.03
267.00 18.81
268.00 18.60
269.00 18.38
270.00 18.16
271.00 17.93
272.00 17.68
273.00 17.43
274.00 17.16
275.00 16.87
276.00 16.57
277.00 16.26
278.00 15.93
279.00 15.59
280.00 15.25
281.00 14.90
282.00 14.55
283.00 14.20
284.00 13.85
285.00 13.50
286.00 13.15
287.00 12.82
288.00 12.48
289.00 12.16
290.00 11.84
291.00 11.52
292.00 11.22
293.00 10.91
294.00 10.62
295.00 10.33
296.00 10.05
297.00 9.77
298.00 9.50
299.00 9.23
300.00 8.97
301.00 8.71
302.00 8.46
303.00 8.21
304.00 7.97
305.00 7.72
306.00 7.49
307.00 7.26
308.00 7.03
309.00 6.81
310.00 6.58
311.00 6.37
312.00 6.16
313.00 5.95
314.00 5.74
315.00 5.54
316.00 5.34
317.00 5.14
318.00 4.94
319.00 4.75
320.00 4.55
321.00 4.36
322.00 4.18
323.00 3.99
324.00 3.80
325.00 3.62
326.00 3.44
327.00 3.26
328.00 3.09
329.00 2.92
330.00 2.74
331.00 2.58
332.00 2.41
333.00 2.25
334.00 2.09
335.00 1.94
336.00 1.78
337.00 1.64
338.00 1.49
339.00 1.35
340.00 1.22
341.00 1.09
342.00 0.96
343.00 0.85
344.00 0.74
345.00 0.63
346.00 0.53
347.00 0.44
348.00 0.36
349.00 0.29
350.00 0.22
351.00 0.17
352.00 0.12
353.00 0.08
354.00 0.05
355.00 0.03
356.00 0.01
357.00 0.00
358.00 0.00
359.00 0.00
VERTICAL 360
0.00 6.35
1.00 3.57
2.00 1.63
3.00 0.44
4.00 0.00
5.00 0.32
6.00 1.46
7.00 3.57
8.00 7.04
9.00 13.09
10.00 29.65
11.00 17.73
12.00 13.63
13.00 13.33
14.00 15.59
15.00 20.03
16.00 20.26
17.00 16.40
18.00 14.22
19.00 13.51
20.00 14.04
21.00 16.04
22.00 20.29
23.00 26.56
24.00 22.42
25.00 18.77
26.00 17.75
27.00 18.52
28.00 20.72
29.00 23.78
30.00 24.44
31.00 21.70
32.00 19.40
33.00 18.39
34.00 18.62
35.00 19.99
36.00 22.44
37.00 25.16
38.00 24.91
39.00 21.99
40.00 19.48
41.00 17.90
42.00 17.09
43.00 16.79
44.00 16.86
45.00 17.33
46.00 18.36
47.00 20.11
48.00 22.60
49.00 25.49
50.00 28.12
51.00 30.59
52.00 33.80
53.00 34.81
54.00 31.04
55.00 27.98
56.00 26.27
57.00 25.42
58.00 25.13
59.00 25.33
60.00 26.06
61.00 27.40
62.00 29.33
63.00 31.59
64.00 33.54
65.00 34.78
66.00 35.95
67.00 37.79
68.00 40.62
69.00 44.65
70.00 47.23
71.00 43.84
72.00 41.03
73.00 39.95
74.00 39.76
75.00 39.41
76.00 38.26
77.00 36.60
78.00 35.16
79.00 34.48
80.00 34.76
81.00 35.91
82.00 37.61
83.00 39.36
84.00 40.76
85.00 41.90
86.00 43.09
87.00 43.76
88.00 42.99
89.00 41.53
90.00 39.81
91.00 37.87
92.00 36.33
93.00 35.76
94.00 36.13
95.00 36.90
96.00 37.38
97.00 37.71
98.00 38.37
99.00 39.28
100.00 40.07
101.00 40.79
102.00 41.58
103.00 42.07
104.00 41.82
105.00 41.18
106.00 40.93
107.00 41.79
108.00 44.48
109.00 50.43
110.00 58.90
111.00 50.36
112.00 46.13
113.00 43.54
114.00 41.57
115.00 39.87
116.00 38.43
117.00 37.53
118.00 37.46
119.00 38.37
120.00 40.30
121.00 42.61
122.00 43.00
123.00 41.56
124.00 40.98
125.00 42.49
126.00 47.71
127.00 56.04
128.00 44.93
129.00 40.49
130.00 38.38
131.00 37.40
132.00 37.12
133.00 37.43
134.00 38.39
135.00 40.21
136.00 43.14
137.00 47.15
138.00 49.43
139.00 47.96
140.00 46.96
141.00 47.49
142.00 48.91
143.00 50.03
144.00 50.76
145.00 50.56
146.00 47.19
147.00 43.18
148.00 39.97
149.00 37.26
150.00 34.91
151.00 33.11
152.00 32.04
153.00 31.79
154.00 32.29
155.00 33.27
156.00 33.98
157.00 33.67
158.00 32.68
159.00 31.80
160.00 31.34
161.00 31.31
162.00 31.67
163.00 32.46
164.00 33.86
165.00 35.89
166.00 37.95
167.00 39.00
168.00 39.80
169.00 42.12
170.00 47.20
171.00 49.78
172.00 44.27
173.00 39.58
174.00 35.94
175.00 33.69
176.00 32.86
177.00 33.27
178.00 34.40
179.00 35.55
180.00 36.55
181.00 37.61
182.00 37.87
183.00 36.60
184.00 35.11
185.00 34.35
186.00 34.34
187.00 34.70
188.00 34.97
189.00 35.23
190.00 35.95
191.00 37.44
192.00 39.36
193.00 40.64
194.00 40.30
195.00 38.71
196.00 36.77
197.00 35.14
198.00 34.17
199.00 34.06
200.00 35.01
201.00 36.72
202.00 36.91
203.00 34.61
204.00 32.65
205.00 32.13
206.00 33.39
207.00 37.27
208.00 46.95
209.00 40.12
210.00 34.36
211.00 31.89
212.00 31.03
213.00 31.25
214.00 32.42
215.00 34.79
216.00 39.38
217.00 50.70
218.00 43.59
219.00 37.62
220.00 35.12
221.00 34.11
222.00 33.84
223.00 33.89
224.00 34.10
225.00 34.52
226.00 35.29
227.00 36.46
228.00 37.69
229.00 37.98
230.00 36.91
231.00 35.52
232.00 34.63
233.00 34.45
234.00 34.90
235.00 35.57
236.00 35.70
237.00 35.02
238.00 34.32
239.00 34.30
240.00 35.20
241.00 36.92
242.00 39.27
243.00 42.02
244.00 45.23
245.00 47.26
246.00 43.83
247.00 39.88
248.00 37.75
249.00 37.42
250.00 38.86
251.00 41.91
252.00 45.19
253.00 45.13
254.00 42.76
255.00 40.38
256.00 38.41
257.00 36.67
258.00 35.10
259.00 34.06
260.00 33.89
261.00 34.58
262.00 35.61
263.00 36.11
264.00 35.80
265.00 35.12
266.00 34.36
267.00 33.58
268.00 32.80
269.00 32.02
270.00 31.30
271.00 30.68
272.00 30.18
273.00 29.81
274.00 29.59
275.00 29.60
276.00 29.95
277.00 30.72
278.00 32.04
279.00 33.99
280.00 36.69
281.00 40.18
282.00 42.88
283.00 40.50
284.00 36.67
285.00 33.69
286.00 31.42
287.00 29.61
288.00 28.05
289.00 26.65
290.00 25.38
291.00 24.23
292.00 23.21
293.00 22.37
294.00 21.76
295.00 21.42
296.00 21.44
297.00 21.87
298.00 22.76
299.00 24.17
300.00 26.00
301.00 27.79
302.00 28.40
303.00 27.26
304.00 25.34
305.00 23.55
306.00 22.25
307.00 21.60
308.00 21.69
309.00 22.57
310.00 24.26
311.00 26.67
312.00 29.17
313.00 29.25
314.00 26.39
315.00 23.44
316.00 21.45
317.00 20.52
318.00 20.66
319.00 21.89
320.00 24.29
321.00 28.16
322.00 34.15
323.00 37.00
324.00 31.79
325.00 28.75
326.00 27.73
327.00 28.25
328.00 29.28
329.00 28.68
330.00 27.04
331.00 26.42
332.00 27.68
333.00 32.20
334.00 43.15
335.00 29.15
336.00 23.30
337.00 20.24
338.00 18.90
339.00 19.16
340.00 21.39
341.00 27.18
342.00 34.41
343.00 24.87
344.00 21.52
345.00 21.17
346.00 23.53
347.00 31.44
348.00 32.38
349.00 22.35
350.00 18.30
351.00 16.32
352.00 15.65
353.00 16.01
354.00 17.30
355.00 19.65
356.00 23.41
357.00 22.37
358.00 15.42
359.00 10.16
