NAME ATR4518R7_2655_X_CO_P45_02T_yL
FREQUENCY 2655
GAIN 15.90 dBd
TILT	ELECTRICAL
COMMENT DATE 05.08.2013 +45 degrees polarized system Lever position 02T deg
HORIZONTAL 360
0.00 0.05
1.00 0.08
2.00 0.13
3.00 0.18
4.00 0.23
5.00 0.27
6.00 0.32
7.00 0.37
8.00 0.41
9.00 0.46
10.00 0.50
11.00 0.54
12.00 0.59
13.00 0.64
14.00 0.70
15.00 0.77
16.00 0.85
17.00 0.95
18.00 1.06
19.00 1.19
20.00 1.33
21.00 1.49
22.00 1.67
23.00 1.85
24.00 2.05
25.00 2.26
26.00 2.48
27.00 2.70
28.00 2.93
29.00 3.15
30.00 3.37
31.00 3.60
32.00 3.82
33.00 4.02
34.00 4.23
35.00 4.42
36.00 4.63
37.00 4.82
38.00 5.01
39.00 5.20
40.00 5.41
41.00 5.60
42.00 5.80
43.00 6.01
44.00 6.23
45.00 6.45
46.00 6.67
47.00 6.90
48.00 7.12
49.00 7.35
50.00 7.58
51.00 7.80
52.00 8.03
53.00 8.25
54.00 8.46
55.00 8.67
56.00 8.88
57.00 9.08
58.00 9.28
59.00 9.48
60.00 9.68
61.00 9.87
62.00 10.07
63.00 10.27
64.00 10.48
65.00 10.68
66.00 10.90
67.00 11.14
68.00 11.38
69.00 11.64
70.00 11.91
71.00 12.19
72.00 12.49
73.00 12.81
74.00 13.13
75.00 13.48
76.00 13.84
77.00 14.21
78.00 14.62
79.00 15.02
80.00 15.46
81.00 15.91
82.00 16.39
83.00 16.90
84.00 17.42
85.00 17.98
86.00 18.55
87.00 19.17
88.00 19.82
89.00 20.50
90.00 21.22
91.00 21.97
92.00 22.75
93.00 23.56
94.00 24.39
95.00 25.23
96.00 26.08
97.00 26.93
98.00 27.77
99.00 28.59
100.00 29.40
101.00 30.18
102.00 30.97
103.00 31.77
104.00 32.62
105.00 33.53
106.00 34.51
107.00 35.59
108.00 36.77
109.00 37.99
110.00 39.08
111.00 39.81
112.00 39.90
113.00 39.34
114.00 38.37
115.00 37.28
116.00 36.23
117.00 35.30
118.00 34.50
119.00 33.84
120.00 33.31
121.00 32.89
122.00 32.58
123.00 32.37
124.00 32.25
125.00 32.22
126.00 32.27
127.00 32.40
128.00 32.61
129.00 32.89
130.00 33.26
131.00 33.69
132.00 34.18
133.00 34.73
134.00 35.29
135.00 35.83
136.00 36.28
137.00 36.60
138.00 36.72
139.00 36.67
140.00 36.46
141.00 36.18
142.00 35.89
143.00 35.66
144.00 35.52
145.00 35.52
146.00 35.67
147.00 35.97
148.00 36.44
149.00 37.02
150.00 37.63
151.00 38.12
152.00 38.22
153.00 37.79
154.00 36.88
155.00 35.71
156.00 34.49
157.00 33.37
158.00 32.38
159.00 31.56
160.00 30.91
161.00 30.43
162.00 30.11
163.00 29.95
164.00 29.96
165.00 30.14
166.00 30.50
167.00 31.05
168.00 31.81
169.00 32.80
170.00 34.07
171.00 35.65
172.00 37.55
173.00 39.61
174.00 41.17
175.00 41.13
176.00 39.64
177.00 37.85
178.00 36.29
179.00 35.05
180.00 34.14
181.00 33.51
182.00 33.15
183.00 33.02
184.00 33.13
185.00 33.48
186.00 34.10
187.00 35.01
188.00 36.29
189.00 38.04
190.00 40.46
191.00 43.92
192.00 48.61
193.00 49.34
194.00 44.76
195.00 41.23
196.00 38.82
197.00 37.15
198.00 35.98
199.00 35.23
200.00 34.81
201.00 34.71
202.00 34.93
203.00 35.50
204.00 36.46
205.00 37.93
206.00 40.12
207.00 43.43
208.00 47.91
209.00 47.31
210.00 42.32
211.00 38.57
212.00 35.88
213.00 33.87
214.00 32.33
215.00 31.12
216.00 30.19
217.00 29.49
218.00 28.98
219.00 28.65
220.00 28.47
221.00 28.46
222.00 28.58
223.00 28.86
224.00 29.28
225.00 29.85
226.00 30.58
227.00 31.47
228.00 32.55
229.00 33.82
230.00 35.30
231.00 36.99
232.00 38.81
233.00 40.47
234.00 41.37
235.00 41.03
236.00 39.76
237.00 38.21
238.00 36.70
239.00 35.33
240.00 34.10
241.00 32.99
242.00 31.99
243.00 31.07
244.00 30.23
245.00 29.47
246.00 28.76
247.00 28.13
248.00 27.56
249.00 27.05
250.00 26.60
251.00 26.20
252.00 25.87
253.00 25.59
254.00 25.35
255.00 25.17
256.00 25.03
257.00 24.94
258.00 24.88
259.00 24.84
260.00 24.84
261.00 24.85
262.00 24.87
263.00 24.89
264.00 24.91
265.00 24.91
266.00 24.88
267.00 24.82
268.00 24.71
269.00 24.56
270.00 24.37
271.00 24.14
272.00 23.86
273.00 23.56
274.00 23.22
275.00 22.86
276.00 22.49
277.00 22.11
278.00 21.72
279.00 21.33
280.00 20.93
281.00 20.54
282.00 20.16
283.00 19.77
284.00 19.38
285.00 19.00
286.00 18.63
287.00 18.27
288.00 17.91
289.00 17.55
290.00 17.20
291.00 16.87
292.00 16.54
293.00 16.22
294.00 15.91
295.00 15.62
296.00 15.32
297.00 15.04
298.00 14.77
299.00 14.49
300.00 14.21
301.00 13.95
302.00 13.67
303.00 13.37
304.00 13.08
305.00 12.76
306.00 12.41
307.00 12.05
308.00 11.68
309.00 11.27
310.00 10.85
311.00 10.40
312.00 9.95
313.00 9.51
314.00 9.07
315.00 8.63
316.00 8.20
317.00 7.78
318.00 7.36
319.00 6.98
320.00 6.59
321.00 6.23
322.00 5.88
323.00 5.55
324.00 5.25
325.00 4.95
326.00 4.68
327.00 4.42
328.00 4.18
329.00 3.95
330.00 3.73
331.00 3.51
332.00 3.31
333.00 3.12
334.00 2.92
335.00 2.74
336.00 2.56
337.00 2.38
338.00 2.20
339.00 2.04
340.00 1.87
341.00 1.70
342.00 1.54
343.00 1.37
344.00 1.22
345.00 1.06
346.00 0.91
347.00 0.77
348.00 0.63
349.00 0.51
350.00 0.40
351.00 0.29
352.00 0.21
353.00 0.14
354.00 0.08
355.00 0.04
356.00 0.01
357.00 0.00
358.00 0.00
359.00 0.02
VERTICAL 360
0.00 2.97
1.00 0.79
2.00 0.00
3.00 0.61
4.00 2.84
5.00 7.29
6.00 14.88
7.00 13.94
8.00 10.71
9.00 11.16
10.00 15.30
11.00 21.98
12.00 17.17
13.00 15.45
14.00 17.68
15.00 22.79
16.00 20.69
17.00 16.94
18.00 16.28
19.00 19.37
20.00 36.41
21.00 21.25
22.00 16.14
23.00 15.29
24.00 16.88
25.00 20.56
26.00 26.42
27.00 33.59
28.00 33.27
29.00 25.49
30.00 20.53
31.00 18.19
32.00 17.73
33.00 18.77
34.00 21.58
35.00 28.22
36.00 29.71
37.00 22.66
38.00 20.61
39.00 21.66
40.00 26.09
41.00 42.61
42.00 28.68
43.00 22.71
44.00 20.47
45.00 20.33
46.00 21.83
47.00 24.58
48.00 27.76
49.00 29.43
50.00 28.37
51.00 26.84
52.00 26.62
53.00 28.31
54.00 31.95
55.00 36.06
56.00 35.80
57.00 33.08
58.00 30.57
59.00 27.22
60.00 23.94
61.00 21.80
62.00 20.64
63.00 19.88
64.00 19.21
65.00 18.77
66.00 18.81
67.00 19.32
68.00 19.96
69.00 20.35
70.00 20.53
71.00 20.90
72.00 21.76
73.00 22.99
74.00 23.91
75.00 24.07
76.00 23.95
77.00 24.39
78.00 25.78
79.00 27.66
80.00 28.75
81.00 28.65
82.00 28.84
83.00 30.99
84.00 35.37
85.00 33.07
86.00 28.95
87.00 26.94
88.00 26.29
89.00 26.94
90.00 29.12
91.00 31.38
92.00 30.18
93.00 28.73
94.00 29.18
95.00 31.45
96.00 35.61
97.00 42.62
98.00 44.32
99.00 41.67
100.00 42.99
101.00 44.22
102.00 43.71
103.00 44.21
104.00 43.59
105.00 40.22
106.00 36.80
107.00 34.96
108.00 34.54
109.00 34.53
110.00 33.82
111.00 32.34
112.00 31.03
113.00 30.51
114.00 30.71
115.00 31.17
116.00 31.59
117.00 32.29
118.00 34.02
119.00 37.22
120.00 41.32
121.00 45.83
122.00 53.93
123.00 50.59
124.00 44.69
125.00 38.33
126.00 34.14
127.00 32.52
128.00 32.79
129.00 33.66
130.00 34.24
131.00 35.43
132.00 38.05
133.00 41.92
134.00 44.45
135.00 42.54
136.00 41.52
137.00 42.95
138.00 44.46
139.00 42.89
140.00 40.69
141.00 39.41
142.00 38.37
143.00 36.41
144.00 34.94
145.00 35.39
146.00 38.62
147.00 43.50
148.00 38.54
149.00 35.29
150.00 34.83
151.00 34.91
152.00 34.75
153.00 36.41
154.00 39.77
155.00 39.41
156.00 38.62
157.00 36.84
158.00 34.61
159.00 34.92
160.00 35.76
161.00 33.93
162.00 33.48
163.00 35.51
164.00 37.99
165.00 41.14
166.00 56.28
167.00 42.52
168.00 37.74
169.00 36.15
170.00 35.59
171.00 36.40
172.00 38.98
173.00 44.09
174.00 44.68
175.00 38.02
176.00 35.60
177.00 35.95
178.00 37.03
179.00 37.48
180.00 36.37
181.00 34.58
182.00 34.03
183.00 34.89
184.00 36.79
185.00 38.94
186.00 40.92
187.00 40.41
188.00 37.40
189.00 35.61
190.00 35.93
191.00 37.44
192.00 37.63
193.00 37.31
194.00 38.82
195.00 41.97
196.00 38.50
197.00 34.11
198.00 32.59
199.00 33.39
200.00 35.68
201.00 37.39
202.00 35.50
203.00 32.44
204.00 31.02
205.00 31.68
206.00 34.25
207.00 37.99
208.00 41.18
209.00 40.72
210.00 38.26
211.00 37.97
212.00 40.72
213.00 43.96
214.00 45.27
215.00 54.71
216.00 41.37
217.00 36.91
218.00 36.97
219.00 36.58
220.00 33.25
221.00 31.71
222.00 32.52
223.00 34.37
224.00 34.98
225.00 35.11
226.00 36.22
227.00 37.22
228.00 36.60
229.00 35.70
230.00 35.42
231.00 35.52
232.00 35.76
233.00 36.62
234.00 39.41
235.00 47.25
236.00 48.99
237.00 40.99
238.00 37.37
239.00 34.72
240.00 32.90
241.00 32.10
242.00 32.24
243.00 33.04
244.00 34.04
245.00 34.74
246.00 34.66
247.00 34.27
248.00 34.32
249.00 34.86
250.00 35.69
251.00 36.92
252.00 38.61
253.00 40.86
254.00 43.38
255.00 44.88
256.00 45.85
257.00 47.32
258.00 48.93
259.00 46.65
260.00 43.72
261.00 45.08
262.00 48.76
263.00 42.10
264.00 39.13
265.00 39.77
266.00 44.26
267.00 46.02
268.00 38.23
269.00 34.79
270.00 33.84
271.00 34.24
272.00 35.52
273.00 36.43
274.00 35.20
275.00 34.13
276.00 34.82
277.00 36.99
278.00 39.33
279.00 40.40
280.00 39.91
281.00 38.73
282.00 37.23
283.00 35.13
284.00 33.35
285.00 33.17
286.00 35.64
287.00 43.53
288.00 44.46
289.00 35.65
290.00 31.23
291.00 27.75
292.00 24.67
293.00 22.01
294.00 19.75
295.00 17.84
296.00 16.25
297.00 15.04
298.00 14.21
299.00 13.71
300.00 13.47
301.00 13.44
302.00 13.65
303.00 14.27
304.00 15.48
305.00 17.57
306.00 21.26
307.00 28.97
308.00 28.44
309.00 21.47
310.00 18.87
311.00 18.64
312.00 20.33
313.00 24.04
314.00 28.28
315.00 24.94
316.00 21.30
317.00 20.14
318.00 21.38
319.00 23.93
320.00 21.73
321.00 18.08
322.00 16.42
323.00 16.71
324.00 19.29
325.00 26.79
326.00 30.36
327.00 19.83
328.00 16.38
329.00 15.55
330.00 16.51
331.00 18.52
332.00 19.46
333.00 18.30
334.00 16.64
335.00 14.96
336.00 13.36
337.00 12.30
338.00 12.40
339.00 14.43
340.00 20.35
341.00 35.91
342.00 19.40
343.00 16.60
344.00 17.96
345.00 25.45
346.00 26.86
347.00 18.05
348.00 16.08
349.00 17.71
350.00 23.54
351.00 24.38
352.00 19.09
353.00 18.01
354.00 20.31
355.00 26.87
356.00 36.42
357.00 21.60
358.00 12.61
359.00 6.75
