NAME ATR4518R7_0894_X_CO_P45_00T
FREQUENCY 0894
GAIN 14.56 dBd
TILT	ELECTRICAL
COMMENT DATE 05.08.2013 +45 degrees polarized system Lever position 00T deg
HORIZONTAL 360
0.00 0.01
1.00 0.01
2.00 0.00
3.00 0.01
4.00 0.02
5.00 0.03
6.00 0.05
7.00 0.08
8.00 0.12
9.00 0.16
10.00 0.20
11.00 0.26
12.00 0.32
13.00 0.38
14.00 0.46
15.00 0.53
16.00 0.62
17.00 0.71
18.00 0.81
19.00 0.91
20.00 1.02
21.00 1.14
22.00 1.26
23.00 1.39
24.00 1.52
25.00 1.66
26.00 1.81
27.00 1.97
28.00 2.12
29.00 2.29
30.00 2.46
31.00 2.64
32.00 2.83
33.00 3.02
34.00 3.22
35.00 3.42
36.00 3.63
37.00 3.85
38.00 4.07
39.00 4.29
40.00 4.53
41.00 4.77
42.00 5.02
43.00 5.27
44.00 5.53
45.00 5.79
46.00 6.06
47.00 6.34
48.00 6.62
49.00 6.91
50.00 7.20
51.00 7.50
52.00 7.81
53.00 8.12
54.00 8.44
55.00 8.77
56.00 9.10
57.00 9.43
58.00 9.78
59.00 10.12
60.00 10.48
61.00 10.84
62.00 11.21
63.00 11.58
64.00 11.96
65.00 12.35
66.00 12.74
67.00 13.14
68.00 13.55
69.00 13.96
70.00 14.38
71.00 14.81
72.00 15.25
73.00 15.69
74.00 16.14
75.00 16.60
76.00 17.06
77.00 17.54
78.00 18.02
79.00 18.52
80.00 19.02
81.00 19.53
82.00 20.05
83.00 20.58
84.00 21.12
85.00 21.68
86.00 22.24
87.00 22.82
88.00 23.40
89.00 24.00
90.00 24.61
91.00 25.23
92.00 25.87
93.00 26.51
94.00 27.17
95.00 27.83
96.00 28.50
97.00 29.17
98.00 29.84
99.00 30.51
100.00 31.16
101.00 31.80
102.00 32.40
103.00 32.96
104.00 33.47
105.00 33.92
106.00 34.29
107.00 34.59
108.00 34.81
109.00 34.95
110.00 35.02
111.00 35.04
112.00 35.01
113.00 34.94
114.00 34.84
115.00 34.73
116.00 34.61
117.00 34.49
118.00 34.37
119.00 34.25
120.00 34.15
121.00 34.06
122.00 33.98
123.00 33.92
124.00 33.87
125.00 33.84
126.00 33.82
127.00 33.83
128.00 33.85
129.00 33.88
130.00 33.94
131.00 34.01
132.00 34.11
133.00 34.21
134.00 34.34
135.00 34.49
136.00 34.67
137.00 34.86
138.00 35.07
139.00 35.31
140.00 35.58
141.00 35.87
142.00 36.18
143.00 36.53
144.00 36.91
145.00 37.31
146.00 37.76
147.00 38.23
148.00 38.73
149.00 39.27
150.00 39.83
151.00 40.42
152.00 41.00
153.00 41.57
154.00 42.09
155.00 42.51
156.00 42.81
157.00 42.92
158.00 42.82
159.00 42.53
160.00 42.07
161.00 41.49
162.00 40.85
163.00 40.17
164.00 39.48
165.00 38.81
166.00 38.16
167.00 37.55
168.00 36.97
169.00 36.42
170.00 35.90
171.00 35.42
172.00 34.98
173.00 34.56
174.00 34.18
175.00 33.83
176.00 33.51
177.00 33.21
178.00 32.94
179.00 32.69
180.00 32.47
181.00 32.27
182.00 32.10
183.00 31.94
184.00 31.81
185.00 31.69
186.00 31.60
187.00 31.53
188.00 31.47
189.00 31.43
190.00 31.41
191.00 31.42
192.00 31.43
193.00 31.46
194.00 31.51
195.00 31.58
196.00 31.65
197.00 31.75
198.00 31.86
199.00 31.98
200.00 32.11
201.00 32.26
202.00 32.42
203.00 32.59
204.00 32.77
205.00 32.96
206.00 33.16
207.00 33.36
208.00 33.58
209.00 33.79
210.00 34.01
211.00 34.24
212.00 34.46
213.00 34.69
214.00 34.91
215.00 35.14
216.00 35.36
217.00 35.57
218.00 35.77
219.00 35.97
220.00 36.16
221.00 36.34
222.00 36.50
223.00 36.65
224.00 36.79
225.00 36.91
226.00 37.01
227.00 37.10
228.00 37.16
229.00 37.19
230.00 37.20
231.00 37.20
232.00 37.16
233.00 37.08
234.00 36.98
235.00 36.85
236.00 36.69
237.00 36.51
238.00 36.29
239.00 36.04
240.00 35.77
241.00 35.47
242.00 35.15
243.00 34.81
244.00 34.46
245.00 34.08
246.00 33.69
247.00 33.29
248.00 32.88
249.00 32.45
250.00 32.02
251.00 31.58
252.00 31.13
253.00 30.68
254.00 30.21
255.00 29.75
256.00 29.28
257.00 28.81
258.00 28.33
259.00 27.85
260.00 27.37
261.00 26.89
262.00 26.41
263.00 25.93
264.00 25.45
265.00 24.97
266.00 24.49
267.00 24.01
268.00 23.54
269.00 23.07
270.00 22.60
271.00 22.13
272.00 21.68
273.00 21.22
274.00 20.77
275.00 20.32
276.00 19.88
277.00 19.45
278.00 19.02
279.00 18.59
280.00 18.17
281.00 17.76
282.00 17.35
283.00 16.94
284.00 16.54
285.00 16.15
286.00 15.76
287.00 15.38
288.00 15.00
289.00 14.63
290.00 14.26
291.00 13.89
292.00 13.54
293.00 13.18
294.00 12.83
295.00 12.48
296.00 12.14
297.00 11.80
298.00 11.47
299.00 11.14
300.00 10.82
301.00 10.50
302.00 10.18
303.00 9.87
304.00 9.56
305.00 9.26
306.00 8.96
307.00 8.66
308.00 8.37
309.00 8.08
310.00 7.80
311.00 7.52
312.00 7.24
313.00 6.97
314.00 6.71
315.00 6.45
316.00 6.19
317.00 5.94
318.00 5.68
319.00 5.44
320.00 5.20
321.00 4.97
322.00 4.74
323.00 4.51
324.00 4.29
325.00 4.07
326.00 3.86
327.00 3.66
328.00 3.46
329.00 3.26
330.00 3.07
331.00 2.89
332.00 2.71
333.00 2.53
334.00 2.37
335.00 2.20
336.00 2.04
337.00 1.89
338.00 1.75
339.00 1.61
340.00 1.47
341.00 1.34
342.00 1.22
343.00 1.10
344.00 0.99
345.00 0.88
346.00 0.78
347.00 0.69
348.00 0.60
349.00 0.52
350.00 0.44
351.00 0.37
352.00 0.31
353.00 0.25
354.00 0.20
355.00 0.15
356.00 0.11
357.00 0.08
358.00 0.05
359.00 0.03
VERTICAL 360
0.00 0.00
1.00 0.17
2.00 0.70
3.00 1.62
4.00 3.00
5.00 4.90
6.00 7.45
7.00 10.90
8.00 15.78
9.00 23.80
10.00 43.60
11.00 27.03
12.00 24.97
13.00 26.70
14.00 32.87
15.00 33.48
16.00 25.75
17.00 22.09
18.00 20.34
19.00 19.81
20.00 20.33
21.00 22.00
22.00 25.39
23.00 32.84
24.00 39.95
25.00 28.73
26.00 25.41
27.00 24.82
28.00 26.54
29.00 31.99
30.00 37.68
31.00 26.62
32.00 21.31
33.00 17.93
34.00 15.50
35.00 13.72
36.00 12.48
37.00 11.72
38.00 11.41
39.00 11.52
40.00 12.00
41.00 12.80
42.00 13.89
43.00 15.30
44.00 17.09
45.00 19.38
46.00 22.31
47.00 26.02
48.00 30.63
49.00 36.50
50.00 47.01
51.00 43.10
52.00 35.95
53.00 33.06
54.00 32.20
55.00 32.55
56.00 33.53
57.00 34.57
58.00 35.13
59.00 35.42
60.00 36.64
61.00 40.32
62.00 50.91
63.00 47.85
64.00 41.53
65.00 38.58
66.00 36.16
67.00 34.71
68.00 34.81
69.00 36.50
70.00 39.01
71.00 39.84
72.00 38.80
73.00 37.88
74.00 37.35
75.00 36.63
76.00 35.17
77.00 33.21
78.00 31.37
79.00 30.05
80.00 29.47
81.00 29.73
82.00 30.51
83.00 30.58
84.00 29.18
85.00 27.50
86.00 26.45
87.00 26.25
88.00 27.00
89.00 28.77
90.00 31.68
91.00 35.62
92.00 39.64
93.00 40.85
94.00 38.81
95.00 36.66
96.00 35.34
97.00 34.51
98.00 33.94
99.00 33.94
100.00 34.96
101.00 37.22
102.00 40.45
103.00 42.65
104.00 41.25
105.00 38.90
106.00 37.49
107.00 37.23
108.00 37.83
109.00 38.77
110.00 39.53
111.00 40.08
112.00 40.87
113.00 42.46
114.00 44.84
115.00 45.52
116.00 43.65
117.00 42.35
118.00 42.32
119.00 43.14
120.00 44.29
121.00 45.20
122.00 44.60
123.00 42.36
124.00 40.17
125.00 38.74
126.00 38.00
127.00 37.61
128.00 37.22
129.00 36.72
130.00 36.14
131.00 35.57
132.00 35.19
133.00 35.19
134.00 35.71
135.00 36.78
136.00 38.44
137.00 40.34
138.00 40.73
139.00 38.98
140.00 37.22
141.00 36.32
142.00 36.17
143.00 36.45
144.00 36.77
145.00 36.90
146.00 36.76
147.00 36.53
148.00 36.37
149.00 36.36
150.00 36.57
151.00 37.10
152.00 38.06
153.00 39.09
154.00 38.95
155.00 37.44
156.00 35.95
157.00 35.04
158.00 34.55
159.00 34.32
160.00 34.51
161.00 35.36
162.00 36.78
163.00 38.15
164.00 38.81
165.00 38.63
166.00 37.93
167.00 37.51
168.00 38.15
169.00 40.41
170.00 44.55
171.00 46.13
172.00 41.81
173.00 38.09
174.00 35.31
175.00 33.24
176.00 31.83
177.00 31.09
178.00 30.97
179.00 31.37
180.00 32.10
181.00 32.80
182.00 33.53
183.00 34.46
184.00 35.99
185.00 38.50
186.00 42.08
187.00 44.77
188.00 44.44
189.00 44.03
190.00 44.67
191.00 45.67
192.00 44.60
193.00 41.43
194.00 38.99
195.00 38.04
196.00 38.39
197.00 39.38
198.00 39.99
199.00 39.98
200.00 39.99
201.00 40.70
202.00 43.03
203.00 49.77
204.00 55.96
205.00 44.30
206.00 40.96
207.00 40.35
208.00 41.25
209.00 41.53
210.00 38.84
211.00 35.45
212.00 32.92
213.00 31.33
214.00 30.53
215.00 30.42
216.00 30.92
217.00 32.01
218.00 33.64
219.00 35.55
220.00 36.79
221.00 36.07
222.00 34.09
223.00 32.21
224.00 30.92
225.00 30.21
226.00 29.97
227.00 29.93
228.00 29.79
229.00 29.35
230.00 28.73
231.00 28.29
232.00 28.40
233.00 29.28
234.00 30.92
235.00 32.97
236.00 34.49
237.00 34.53
238.00 33.60
239.00 32.90
240.00 33.12
241.00 34.59
242.00 37.57
243.00 42.38
244.00 47.61
245.00 46.79
246.00 44.62
247.00 41.71
248.00 38.15
249.00 35.72
250.00 34.96
251.00 35.90
252.00 38.54
253.00 42.87
254.00 47.21
255.00 45.22
256.00 42.78
257.00 43.61
258.00 51.56
259.00 48.89
260.00 39.97
261.00 36.41
262.00 34.58
263.00 33.51
264.00 33.06
265.00 33.08
266.00 32.91
267.00 31.95
268.00 30.70
269.00 29.72
270.00 29.00
271.00 28.39
272.00 27.86
273.00 27.50
274.00 27.33
275.00 27.33
276.00 27.41
277.00 27.44
278.00 27.28
279.00 26.94
280.00 26.61
281.00 26.57
282.00 27.05
283.00 28.12
284.00 29.68
285.00 31.33
286.00 32.40
287.00 32.57
288.00 32.48
289.00 32.80
290.00 33.45
291.00 33.46
292.00 32.19
293.00 30.56
294.00 29.38
295.00 28.92
296.00 29.16
297.00 29.85
298.00 30.63
299.00 31.32
300.00 32.18
301.00 33.60
302.00 35.82
303.00 37.75
304.00 35.37
305.00 31.01
306.00 27.39
307.00 24.55
308.00 22.25
309.00 20.38
310.00 18.86
311.00 17.67
312.00 16.77
313.00 16.11
314.00 15.60
315.00 15.20
316.00 14.92
317.00 14.82
318.00 15.00
319.00 15.52
320.00 16.43
321.00 17.65
322.00 19.06
323.00 20.44
324.00 21.70
325.00 22.99
326.00 24.59
327.00 26.77
328.00 29.75
329.00 33.73
330.00 39.21
331.00 49.68
332.00 48.11
333.00 38.89
334.00 33.55
335.00 29.32
336.00 26.01
337.00 23.63
338.00 22.18
339.00 21.63
340.00 21.99
341.00 23.40
342.00 26.32
343.00 32.54
344.00 47.18
345.00 29.89
346.00 25.06
347.00 23.02
348.00 23.00
349.00 25.47
350.00 28.54
351.00 20.83
352.00 14.56
353.00 10.26
354.00 7.11
355.00 4.74
356.00 2.95
357.00 1.64
358.00 0.73
359.00 0.19
