NAME ATR4518R7_0832_X_CO_M45_01T
FREQUENCY 0832
GAIN 14.33 dBd
TILT	ELECTRICAL
COMMENT DATE 05.08.2013 -45 degrees polarized system Lever position 01T deg
HORIZONTAL 360
0.00 0.00
1.00 0.01
2.00 0.03
3.00 0.05
4.00 0.07
5.00 0.11
6.00 0.14
7.00 0.19
8.00 0.24
9.00 0.29
10.00 0.36
11.00 0.42
12.00 0.49
13.00 0.57
14.00 0.66
15.00 0.75
16.00 0.85
17.00 0.95
18.00 1.06
19.00 1.17
20.00 1.29
21.00 1.42
22.00 1.55
23.00 1.69
24.00 1.83
25.00 1.98
26.00 2.14
27.00 2.30
28.00 2.47
29.00 2.64
30.00 2.82
31.00 3.00
32.00 3.19
33.00 3.39
34.00 3.59
35.00 3.79
36.00 4.01
37.00 4.22
38.00 4.45
39.00 4.68
40.00 4.91
41.00 5.15
42.00 5.39
43.00 5.64
44.00 5.90
45.00 6.16
46.00 6.43
47.00 6.70
48.00 6.98
49.00 7.26
50.00 7.55
51.00 7.84
52.00 8.14
53.00 8.44
54.00 8.75
55.00 9.06
56.00 9.38
57.00 9.71
58.00 10.04
59.00 10.37
60.00 10.71
61.00 11.06
62.00 11.40
63.00 11.76
64.00 12.12
65.00 12.49
66.00 12.86
67.00 13.24
68.00 13.62
69.00 14.01
70.00 14.41
71.00 14.81
72.00 15.22
73.00 15.63
74.00 16.05
75.00 16.47
76.00 16.90
77.00 17.33
78.00 17.77
79.00 18.22
80.00 18.67
81.00 19.12
82.00 19.57
83.00 20.03
84.00 20.48
85.00 20.94
86.00 21.39
87.00 21.84
88.00 22.27
89.00 22.71
90.00 23.12
91.00 23.53
92.00 23.91
93.00 24.28
94.00 24.63
95.00 24.95
96.00 25.25
97.00 25.52
98.00 25.78
99.00 26.00
100.00 26.21
101.00 26.39
102.00 26.56
103.00 26.71
104.00 26.85
105.00 26.98
106.00 27.11
107.00 27.23
108.00 27.36
109.00 27.49
110.00 27.63
111.00 27.77
112.00 27.93
113.00 28.10
114.00 28.28
115.00 28.48
116.00 28.69
117.00 28.93
118.00 29.18
119.00 29.46
120.00 29.76
121.00 30.08
122.00 30.43
123.00 30.81
124.00 31.21
125.00 31.65
126.00 32.12
127.00 32.62
128.00 33.16
129.00 33.73
130.00 34.34
131.00 34.99
132.00 35.68
133.00 36.39
134.00 37.14
135.00 37.92
136.00 38.69
137.00 39.43
138.00 40.10
139.00 40.65
140.00 41.03
141.00 41.19
142.00 41.14
143.00 40.89
144.00 40.51
145.00 40.02
146.00 39.49
147.00 38.95
148.00 38.42
149.00 37.91
150.00 37.43
151.00 36.98
152.00 36.57
153.00 36.20
154.00 35.85
155.00 35.54
156.00 35.26
157.00 35.01
158.00 34.78
159.00 34.57
160.00 34.39
161.00 34.23
162.00 34.08
163.00 33.95
164.00 33.84
165.00 33.73
166.00 33.64
167.00 33.56
168.00 33.49
169.00 33.43
170.00 33.37
171.00 33.32
172.00 33.28
173.00 33.24
174.00 33.21
175.00 33.18
176.00 33.15
177.00 33.13
178.00 33.11
179.00 33.10
180.00 33.09
181.00 33.08
182.00 33.08
183.00 33.09
184.00 33.10
185.00 33.12
186.00 33.15
187.00 33.18
188.00 33.23
189.00 33.28
190.00 33.34
191.00 33.42
192.00 33.51
193.00 33.61
194.00 33.72
195.00 33.84
196.00 33.99
197.00 34.14
198.00 34.31
199.00 34.50
200.00 34.71
201.00 34.93
202.00 35.17
203.00 35.43
204.00 35.71
205.00 36.01
206.00 36.32
207.00 36.66
208.00 37.02
209.00 37.39
210.00 37.79
211.00 38.20
212.00 38.62
213.00 39.07
214.00 39.52
215.00 39.98
216.00 40.45
217.00 40.92
218.00 41.40
219.00 41.84
220.00 42.27
221.00 42.68
222.00 43.06
223.00 43.39
224.00 43.67
225.00 43.88
226.00 44.04
227.00 44.13
228.00 44.15
229.00 44.06
230.00 43.88
231.00 43.64
232.00 43.27
233.00 42.84
234.00 42.30
235.00 41.71
236.00 41.02
237.00 40.30
238.00 39.52
239.00 38.72
240.00 37.90
241.00 37.08
242.00 36.25
243.00 35.43
244.00 34.62
245.00 33.82
246.00 33.04
247.00 32.27
248.00 31.53
249.00 30.80
250.00 30.09
251.00 29.41
252.00 28.74
253.00 28.09
254.00 27.46
255.00 26.85
256.00 26.26
257.00 25.68
258.00 25.12
259.00 24.58
260.00 24.05
261.00 23.54
262.00 23.03
263.00 22.55
264.00 22.07
265.00 21.61
266.00 21.16
267.00 20.72
268.00 20.29
269.00 19.87
270.00 19.46
271.00 19.06
272.00 18.67
273.00 18.29
274.00 17.91
275.00 17.54
276.00 17.18
277.00 16.82
278.00 16.47
279.00 16.12
280.00 15.78
281.00 15.44
282.00 15.11
283.00 14.78
284.00 14.45
285.00 14.13
286.00 13.81
287.00 13.50
288.00 13.18
289.00 12.87
290.00 12.56
291.00 12.25
292.00 11.95
293.00 11.64
294.00 11.34
295.00 11.04
296.00 10.75
297.00 10.45
298.00 10.16
299.00 9.86
300.00 9.58
301.00 9.29
302.00 9.00
303.00 8.72
304.00 8.44
305.00 8.16
306.00 7.89
307.00 7.62
308.00 7.35
309.00 7.08
310.00 6.82
311.00 6.56
312.00 6.31
313.00 6.05
314.00 5.81
315.00 5.56
316.00 5.32
317.00 5.09
318.00 4.86
319.00 4.63
320.00 4.41
321.00 4.19
322.00 3.98
323.00 3.78
324.00 3.57
325.00 3.38
326.00 3.19
327.00 3.00
328.00 2.82
329.00 2.64
330.00 2.47
331.00 2.31
332.00 2.15
333.00 1.99
334.00 1.84
335.00 1.70
336.00 1.56
337.00 1.43
338.00 1.31
339.00 1.19
340.00 1.07
341.00 0.96
342.00 0.86
343.00 0.76
344.00 0.67
345.00 0.59
346.00 0.51
347.00 0.43
348.00 0.36
349.00 0.30
350.00 0.25
351.00 0.20
352.00 0.15
353.00 0.11
354.00 0.08
355.00 0.05
356.00 0.03
357.00 0.02
358.00 0.01
359.00 0.00
VERTICAL 360
0.00 0.12
1.00 0.00
2.00 0.20
3.00 0.73
4.00 1.60
5.00 2.86
6.00 4.55
7.00 6.77
8.00 9.69
9.00 13.59
10.00 19.03
11.00 25.93
12.00 25.81
13.00 23.34
14.00 23.17
15.00 25.21
16.00 30.73
17.00 51.03
18.00 29.13
19.00 23.96
20.00 21.46
21.00 20.35
22.00 20.27
23.00 21.15
24.00 23.08
25.00 26.35
26.00 31.12
27.00 33.40
28.00 30.51
29.00 28.70
30.00 28.69
31.00 30.61
32.00 35.47
33.00 36.23
34.00 28.33
35.00 23.32
36.00 19.89
37.00 17.38
38.00 15.51
39.00 14.15
40.00 13.22
41.00 12.67
42.00 12.46
43.00 12.53
44.00 12.84
45.00 13.35
46.00 14.04
47.00 14.93
48.00 16.03
49.00 17.44
50.00 19.24
51.00 21.55
52.00 24.47
53.00 28.11
54.00 32.41
55.00 36.88
56.00 40.04
57.00 40.57
58.00 39.55
59.00 38.42
60.00 37.58
61.00 37.05
62.00 37.06
63.00 38.00
64.00 39.53
65.00 38.52
66.00 35.02
67.00 32.24
68.00 30.65
69.00 30.03
70.00 30.10
71.00 30.51
72.00 30.84
73.00 30.67
74.00 29.82
75.00 28.55
76.00 27.33
77.00 26.45
78.00 26.01
79.00 26.01
80.00 26.34
81.00 26.80
82.00 27.13
83.00 27.11
84.00 26.83
85.00 26.54
86.00 26.45
87.00 26.62
88.00 27.01
89.00 27.54
90.00 28.17
91.00 28.94
92.00 29.86
93.00 30.83
94.00 31.66
95.00 32.17
96.00 32.30
97.00 32.23
98.00 32.25
99.00 32.69
100.00 33.76
101.00 35.58
102.00 38.08
103.00 40.79
104.00 42.72
105.00 43.12
106.00 42.38
107.00 41.45
108.00 41.06
109.00 41.47
110.00 42.46
111.00 43.28
112.00 43.39
113.00 43.29
114.00 43.49
115.00 43.83
116.00 43.91
117.00 43.74
118.00 43.57
119.00 43.31
120.00 42.52
121.00 40.94
122.00 38.84
123.00 36.72
124.00 34.91
125.00 33.55
126.00 32.63
127.00 32.08
128.00 31.78
129.00 31.59
130.00 31.45
131.00 31.39
132.00 31.49
133.00 31.86
134.00 32.60
135.00 33.75
136.00 35.27
137.00 36.95
138.00 38.46
139.00 39.45
140.00 39.88
141.00 40.07
142.00 40.46
143.00 41.38
144.00 42.94
145.00 44.91
146.00 46.30
147.00 45.46
148.00 42.60
149.00 39.53
150.00 37.15
151.00 35.61
152.00 34.85
153.00 34.77
154.00 35.20
155.00 35.98
156.00 37.00
157.00 38.22
158.00 39.83
159.00 42.26
160.00 45.95
161.00 47.85
162.00 43.92
163.00 40.63
164.00 38.95
165.00 38.53
166.00 39.07
167.00 40.38
168.00 42.38
169.00 45.01
170.00 46.51
171.00 43.72
172.00 40.19
173.00 37.73
174.00 36.25
175.00 35.43
176.00 34.94
177.00 34.45
178.00 33.80
179.00 33.09
180.00 32.62
181.00 32.48
182.00 32.67
183.00 33.14
184.00 33.75
185.00 34.48
186.00 35.45
187.00 36.84
188.00 38.56
189.00 39.74
190.00 39.30
191.00 38.01
192.00 36.90
193.00 36.21
194.00 35.77
195.00 35.41
196.00 35.02
197.00 34.67
198.00 34.45
199.00 34.41
200.00 34.60
201.00 35.00
202.00 35.63
203.00 36.47
204.00 37.54
205.00 38.88
206.00 40.57
207.00 42.64
208.00 44.96
209.00 46.91
210.00 47.34
211.00 46.06
212.00 44.15
213.00 42.31
214.00 40.72
215.00 39.37
216.00 38.27
217.00 37.55
218.00 37.41
219.00 37.94
220.00 38.94
221.00 39.78
222.00 39.90
223.00 39.80
224.00 40.39
225.00 42.11
226.00 45.02
227.00 48.37
228.00 49.70
229.00 48.06
230.00 45.36
231.00 43.13
232.00 41.92
233.00 41.56
234.00 41.31
235.00 40.55
236.00 39.79
237.00 39.85
238.00 41.21
239.00 43.97
240.00 47.08
241.00 48.03
242.00 48.54
243.00 50.04
244.00 48.01
245.00 43.83
246.00 41.11
247.00 39.76
248.00 39.28
249.00 39.12
250.00 38.84
251.00 38.36
252.00 37.89
253.00 37.66
254.00 37.69
255.00 37.85
256.00 37.96
257.00 38.05
258.00 38.38
259.00 39.21
260.00 40.63
261.00 42.69
262.00 45.71
263.00 50.52
264.00 50.82
265.00 45.06
266.00 41.75
267.00 40.38
268.00 40.42
269.00 41.47
270.00 43.20
271.00 45.52
272.00 46.81
273.00 43.05
274.00 38.56
275.00 35.45
276.00 33.53
277.00 32.49
278.00 32.05
279.00 31.95
280.00 31.94
281.00 31.85
282.00 31.62
283.00 31.31
284.00 31.08
285.00 31.04
286.00 31.25
287.00 31.66
288.00 32.21
289.00 32.75
290.00 33.06
291.00 33.00
292.00 32.75
293.00 32.62
294.00 32.90
295.00 33.75
296.00 35.34
297.00 37.91
298.00 40.51
299.00 38.11
300.00 33.54
301.00 29.91
302.00 27.10
303.00 24.81
304.00 22.86
305.00 21.20
306.00 19.79
307.00 18.63
308.00 17.71
309.00 17.04
310.00 16.60
311.00 16.38
312.00 16.34
313.00 16.47
314.00 16.76
315.00 17.23
316.00 17.93
317.00 18.92
318.00 20.30
319.00 22.16
320.00 24.55
321.00 27.41
322.00 30.25
323.00 32.31
324.00 33.77
325.00 35.82
326.00 39.20
327.00 41.60
328.00 38.74
329.00 35.69
330.00 33.76
331.00 32.52
332.00 31.69
333.00 31.29
334.00 31.47
335.00 32.26
336.00 32.73
337.00 31.06
338.00 28.21
339.00 25.92
340.00 24.65
341.00 24.48
342.00 25.49
343.00 27.82
344.00 30.67
345.00 29.80
346.00 26.74
347.00 24.93
348.00 24.91
349.00 27.50
350.00 33.77
351.00 24.38
352.00 17.14
353.00 12.39
354.00 8.90
355.00 6.22
356.00 4.14
357.00 2.55
358.00 1.38
359.00 0.58
