NAME ATR4518R7_1950_X_CO_P45_07T_yL
FREQUENCY 1950
GAIN 15.21 dBd
TILT	ELECTRICAL
COMMENT DATE 05.08.2013 +45 degrees polarized system Lever position 07T deg
HORIZONTAL 360
0.00 0.09
1.00 0.06
2.00 0.04
3.00 0.03
4.00 0.01
5.00 0.01
6.00 0.00
7.00 0.00
8.00 0.01
9.00 0.02
10.00 0.03
11.00 0.06
12.00 0.09
13.00 0.13
14.00 0.17
15.00 0.23
16.00 0.29
17.00 0.36
18.00 0.44
19.00 0.53
20.00 0.62
21.00 0.72
22.00 0.84
23.00 0.96
24.00 1.08
25.00 1.22
26.00 1.37
27.00 1.52
28.00 1.68
29.00 1.84
30.00 2.02
31.00 2.20
32.00 2.38
33.00 2.57
34.00 2.77
35.00 2.97
36.00 3.18
37.00 3.39
38.00 3.60
39.00 3.82
40.00 4.04
41.00 4.26
42.00 4.48
43.00 4.70
44.00 4.93
45.00 5.15
46.00 5.37
47.00 5.59
48.00 5.81
49.00 6.02
50.00 6.24
51.00 6.45
52.00 6.66
53.00 6.87
54.00 7.08
55.00 7.29
56.00 7.50
57.00 7.71
58.00 7.92
59.00 8.13
60.00 8.35
61.00 8.57
62.00 8.79
63.00 9.01
64.00 9.24
65.00 9.48
66.00 9.72
67.00 9.97
68.00 10.23
69.00 10.49
70.00 10.76
71.00 11.04
72.00 11.33
73.00 11.62
74.00 11.92
75.00 12.22
76.00 12.54
77.00 12.85
78.00 13.17
79.00 13.50
80.00 13.83
81.00 14.16
82.00 14.49
83.00 14.83
84.00 15.16
85.00 15.50
86.00 15.83
87.00 16.17
88.00 16.50
89.00 16.83
90.00 17.17
91.00 17.50
92.00 17.83
93.00 18.17
94.00 18.51
95.00 18.85
96.00 19.19
97.00 19.54
98.00 19.89
99.00 20.25
100.00 20.62
101.00 20.98
102.00 21.36
103.00 21.74
104.00 22.12
105.00 22.50
106.00 22.89
107.00 23.27
108.00 23.65
109.00 24.03
110.00 24.40
111.00 24.77
112.00 25.13
113.00 25.48
114.00 25.83
115.00 26.18
116.00 26.52
117.00 26.86
118.00 27.21
119.00 27.55
120.00 27.90
121.00 28.25
122.00 28.60
123.00 28.96
124.00 29.32
125.00 29.68
126.00 30.04
127.00 30.39
128.00 30.73
129.00 31.05
130.00 31.35
131.00 31.63
132.00 31.88
133.00 32.09
134.00 32.26
135.00 32.40
136.00 32.51
137.00 32.58
138.00 32.63
139.00 32.66
140.00 32.67
141.00 32.68
142.00 32.69
143.00 32.71
144.00 32.75
145.00 32.81
146.00 32.90
147.00 33.04
148.00 33.21
149.00 33.43
150.00 33.70
151.00 34.02
152.00 34.39
153.00 34.81
154.00 35.27
155.00 35.76
156.00 36.25
157.00 36.72
158.00 37.14
159.00 37.46
160.00 37.65
161.00 37.71
162.00 37.64
163.00 37.46
164.00 37.23
165.00 36.97
166.00 36.72
167.00 36.50
168.00 36.34
169.00 36.23
170.00 36.20
171.00 36.24
172.00 36.35
173.00 36.54
174.00 36.78
175.00 37.08
176.00 37.42
177.00 37.79
178.00 38.16
179.00 38.52
180.00 38.85
181.00 39.14
182.00 39.38
183.00 39.58
184.00 39.77
185.00 39.97
186.00 40.21
187.00 40.53
188.00 40.97
189.00 41.59
190.00 42.43
191.00 43.59
192.00 45.19
193.00 47.51
194.00 51.19
195.00 58.77
196.00 62.82
197.00 51.80
198.00 46.83
199.00 43.57
200.00 41.15
201.00 39.24
202.00 37.68
203.00 36.37
204.00 35.26
205.00 34.31
206.00 33.49
207.00 32.79
208.00 32.19
209.00 31.68
210.00 31.25
211.00 30.90
212.00 30.62
213.00 30.40
214.00 30.25
215.00 30.15
216.00 30.12
217.00 30.14
218.00 30.22
219.00 30.37
220.00 30.57
221.00 30.83
222.00 31.16
223.00 31.56
224.00 32.03
225.00 32.58
226.00 33.22
227.00 33.96
228.00 34.80
229.00 35.76
230.00 36.83
231.00 38.01
232.00 39.26
233.00 40.42
234.00 41.26
235.00 41.47
236.00 40.97
237.00 39.96
238.00 38.76
239.00 37.54
240.00 36.42
241.00 35.40
242.00 34.50
243.00 33.70
244.00 33.00
245.00 32.38
246.00 31.82
247.00 31.33
248.00 30.88
249.00 30.48
250.00 30.10
251.00 29.75
252.00 29.40
253.00 29.05
254.00 28.69
255.00 28.32
256.00 27.93
257.00 27.52
258.00 27.08
259.00 26.62
260.00 26.15
261.00 25.66
262.00 25.17
263.00 24.68
264.00 24.19
265.00 23.71
266.00 23.25
267.00 22.80
268.00 22.37
269.00 21.97
270.00 21.58
271.00 21.22
272.00 20.87
273.00 20.55
274.00 20.25
275.00 19.96
276.00 19.68
277.00 19.42
278.00 19.16
279.00 18.91
280.00 18.67
281.00 18.42
282.00 18.16
283.00 17.90
284.00 17.64
285.00 17.36
286.00 17.08
287.00 16.78
288.00 16.48
289.00 16.17
290.00 15.85
291.00 15.52
292.00 15.19
293.00 14.86
294.00 14.53
295.00 14.19
296.00 13.86
297.00 13.53
298.00 13.21
299.00 12.89
300.00 12.56
301.00 12.25
302.00 11.93
303.00 11.62
304.00 11.30
305.00 10.98
306.00 10.66
307.00 10.34
308.00 10.02
309.00 9.69
310.00 9.36
311.00 9.02
312.00 8.68
313.00 8.34
314.00 8.00
315.00 7.66
316.00 7.32
317.00 6.99
318.00 6.65
319.00 6.32
320.00 6.00
321.00 5.69
322.00 5.38
323.00 5.08
324.00 4.79
325.00 4.51
326.00 4.23
327.00 3.97
328.00 3.72
329.00 3.48
330.00 3.25
331.00 3.03
332.00 2.82
333.00 2.61
334.00 2.42
335.00 2.24
336.00 2.06
337.00 1.90
338.00 1.74
339.00 1.59
340.00 1.45
341.00 1.32
342.00 1.20
343.00 1.09
344.00 0.98
345.00 0.88
346.00 0.79
347.00 0.71
348.00 0.63
349.00 0.56
350.00 0.49
351.00 0.43
352.00 0.38
353.00 0.33
354.00 0.29
355.00 0.24
356.00 0.21
357.00 0.17
358.00 0.14
359.00 0.11
VERTICAL 360
0.00 21.41
1.00 14.58
2.00 9.39
3.00 5.69
4.00 3.07
5.00 1.31
6.00 0.30
7.00 0.00
8.00 0.43
9.00 1.69
10.00 4.02
11.00 7.97
12.00 15.34
13.00 23.60
14.00 14.44
15.00 11.64
16.00 11.38
17.00 12.95
18.00 16.60
19.00 22.66
20.00 20.80
21.00 16.38
22.00 14.54
23.00 14.49
24.00 15.97
25.00 19.15
26.00 24.75
27.00 28.59
28.00 23.41
29.00 20.59
30.00 20.05
31.00 21.52
32.00 25.68
33.00 34.71
34.00 29.42
35.00 24.38
36.00 22.30
37.00 21.45
38.00 21.12
39.00 21.04
40.00 21.13
41.00 21.23
42.00 21.21
43.00 21.32
44.00 21.89
45.00 22.95
46.00 24.05
47.00 24.61
48.00 24.82
49.00 25.14
50.00 25.50
51.00 25.55
52.00 25.30
53.00 25.11
54.00 25.29
55.00 25.94
56.00 26.96
57.00 28.24
58.00 29.95
59.00 32.52
60.00 36.05
61.00 37.51
62.00 35.11
63.00 32.89
64.00 31.53
65.00 30.74
66.00 30.29
67.00 30.04
68.00 30.00
69.00 30.16
70.00 30.47
71.00 30.97
72.00 31.74
73.00 32.78
74.00 33.83
75.00 34.50
76.00 34.65
77.00 34.58
78.00 34.80
79.00 35.65
80.00 37.01
81.00 38.22
82.00 38.48
83.00 37.42
84.00 35.83
85.00 34.87
86.00 35.10
87.00 36.47
88.00 38.38
89.00 39.79
90.00 39.94
91.00 38.33
92.00 36.01
93.00 34.43
94.00 34.02
95.00 34.70
96.00 36.12
97.00 37.60
98.00 38.30
99.00 38.01
100.00 37.34
101.00 37.02
102.00 37.51
103.00 38.92
104.00 41.02
105.00 43.13
106.00 44.37
107.00 44.60
108.00 44.93
109.00 46.44
110.00 48.84
111.00 48.77
112.00 47.17
113.00 47.13
114.00 49.02
115.00 52.23
116.00 52.50
117.00 47.53
118.00 43.05
119.00 39.87
120.00 37.71
121.00 36.37
122.00 35.83
123.00 35.96
124.00 36.37
125.00 36.47
126.00 36.11
127.00 35.76
128.00 35.73
129.00 35.97
130.00 36.17
131.00 36.06
132.00 35.54
133.00 34.63
134.00 33.41
135.00 32.10
136.00 31.04
137.00 30.49
138.00 30.51
139.00 30.89
140.00 31.20
141.00 31.40
142.00 32.04
143.00 33.77
144.00 37.10
145.00 42.44
146.00 47.49
147.00 43.98
148.00 39.89
149.00 37.50
150.00 36.51
151.00 36.32
152.00 36.49
153.00 37.40
154.00 40.39
155.00 47.85
156.00 43.31
157.00 37.32
158.00 34.53
159.00 33.20
160.00 32.76
161.00 33.15
162.00 34.66
163.00 37.63
164.00 40.98
165.00 39.58
166.00 36.87
167.00 35.73
168.00 35.63
169.00 36.28
170.00 37.54
171.00 38.99
172.00 40.44
173.00 40.35
174.00 37.70
175.00 34.27
176.00 31.86
177.00 30.67
178.00 30.75
179.00 31.23
180.00 32.77
181.00 34.83
182.00 36.16
183.00 36.56
184.00 37.23
185.00 38.10
186.00 37.22
187.00 35.06
188.00 33.78
189.00 34.15
190.00 36.27
191.00 38.78
192.00 38.59
193.00 38.29
194.00 40.57
195.00 46.35
196.00 50.37
197.00 44.83
198.00 37.75
199.00 32.84
200.00 30.23
201.00 29.49
202.00 30.31
203.00 32.32
204.00 35.06
205.00 38.74
206.00 44.99
207.00 41.60
208.00 35.43
209.00 32.14
210.00 30.47
211.00 29.90
212.00 30.31
213.00 31.67
214.00 34.02
215.00 37.31
216.00 40.97
217.00 42.99
218.00 42.33
219.00 40.77
220.00 38.93
221.00 36.99
222.00 35.44
223.00 34.67
224.00 34.81
225.00 35.77
226.00 37.38
227.00 39.60
228.00 41.69
229.00 39.45
230.00 35.50
231.00 33.07
232.00 32.28
233.00 32.99
234.00 35.15
235.00 38.90
236.00 44.88
237.00 54.51
238.00 50.14
239.00 46.60
240.00 47.11
241.00 50.77
242.00 45.51
243.00 39.33
244.00 35.89
245.00 34.25
246.00 33.95
247.00 34.69
248.00 36.21
249.00 38.39
250.00 41.45
251.00 43.96
252.00 40.64
253.00 36.42
254.00 33.64
255.00 32.01
256.00 31.23
257.00 31.09
258.00 31.33
259.00 31.82
260.00 32.56
261.00 33.71
262.00 35.44
263.00 37.71
264.00 39.85
265.00 40.57
266.00 39.78
267.00 38.32
268.00 36.47
269.00 34.35
270.00 32.30
271.00 30.74
272.00 29.94
273.00 29.99
274.00 30.77
275.00 31.82
276.00 32.32
277.00 31.71
278.00 30.30
279.00 28.77
280.00 27.48
281.00 26.45
282.00 25.52
283.00 24.59
284.00 23.68
285.00 22.89
286.00 22.32
287.00 22.09
288.00 22.27
289.00 22.91
290.00 24.04
291.00 25.67
292.00 27.88
293.00 30.76
294.00 34.37
295.00 37.41
296.00 36.13
297.00 32.70
298.00 29.72
299.00 27.51
300.00 26.06
301.00 25.34
302.00 25.30
303.00 25.89
304.00 27.27
305.00 30.11
306.00 37.04
307.00 41.21
308.00 29.94
309.00 25.42
310.00 23.11
311.00 22.11
312.00 22.12
313.00 23.11
314.00 25.27
315.00 29.18
316.00 33.47
317.00 29.43
318.00 25.24
319.00 22.92
320.00 21.87
321.00 21.88
322.00 23.10
323.00 26.30
324.00 34.49
325.00 33.27
326.00 25.36
327.00 22.06
328.00 20.74
329.00 20.72
330.00 21.65
331.00 23.20
332.00 24.65
333.00 24.73
334.00 23.53
335.00 22.49
336.00 22.61
337.00 24.55
338.00 28.82
339.00 29.18
340.00 24.37
341.00 21.88
342.00 21.59
343.00 23.59
344.00 29.68
345.00 34.11
346.00 24.36
347.00 20.74
348.00 19.89
349.00 21.48
350.00 27.10
351.00 38.49
352.00 23.50
353.00 19.05
354.00 17.31
355.00 17.13
356.00 18.06
357.00 19.64
358.00 21.64
359.00 24.14
