NAME ATR4518R7_1850_X_CO_P45_07T_yyR
FREQUENCY 1850
GAIN 15.32 dBd
TILT	ELECTRICAL
COMMENT DATE 05.08.2013 +45 degrees polarized system Lever position 07T deg
HORIZONTAL 360
0.00 0.01
1.00 0.00
2.00 0.00
3.00 0.00
4.00 0.00
5.00 0.02
6.00 0.04
7.00 0.07
8.00 0.11
9.00 0.16
10.00 0.21
11.00 0.27
12.00 0.34
13.00 0.42
14.00 0.51
15.00 0.61
16.00 0.71
17.00 0.83
18.00 0.95
19.00 1.08
20.00 1.22
21.00 1.37
22.00 1.53
23.00 1.70
24.00 1.88
25.00 2.06
26.00 2.25
27.00 2.45
28.00 2.66
29.00 2.87
30.00 3.10
31.00 3.32
32.00 3.56
33.00 3.80
34.00 4.04
35.00 4.29
36.00 4.54
37.00 4.79
38.00 5.05
39.00 5.31
40.00 5.57
41.00 5.83
42.00 6.10
43.00 6.36
44.00 6.63
45.00 6.89
46.00 7.15
47.00 7.42
48.00 7.68
49.00 7.94
50.00 8.21
51.00 8.47
52.00 8.73
53.00 9.00
54.00 9.26
55.00 9.53
56.00 9.80
57.00 10.07
58.00 10.34
59.00 10.62
60.00 10.90
61.00 11.19
62.00 11.47
63.00 11.77
64.00 12.07
65.00 12.37
66.00 12.68
67.00 13.00
68.00 13.32
69.00 13.66
70.00 13.99
71.00 14.34
72.00 14.69
73.00 15.05
74.00 15.42
75.00 15.80
76.00 16.18
77.00 16.57
78.00 16.96
79.00 17.37
80.00 17.77
81.00 18.19
82.00 18.61
83.00 19.03
84.00 19.46
85.00 19.89
86.00 20.33
87.00 20.77
88.00 21.21
89.00 21.65
90.00 22.10
91.00 22.55
92.00 23.00
93.00 23.46
94.00 23.91
95.00 24.38
96.00 24.84
97.00 25.32
98.00 25.79
99.00 26.27
100.00 26.76
101.00 27.24
102.00 27.73
103.00 28.21
104.00 28.67
105.00 29.12
106.00 29.54
107.00 29.93
108.00 30.27
109.00 30.56
110.00 30.79
111.00 30.97
112.00 31.09
113.00 31.16
114.00 31.20
115.00 31.21
116.00 31.21
117.00 31.20
118.00 31.21
119.00 31.24
120.00 31.29
121.00 31.38
122.00 31.51
123.00 31.70
124.00 31.93
125.00 32.23
126.00 32.59
127.00 33.02
128.00 33.52
129.00 34.11
130.00 34.80
131.00 35.58
132.00 36.48
133.00 37.50
134.00 38.66
135.00 39.97
136.00 41.43
137.00 42.99
138.00 44.51
139.00 45.70
140.00 46.14
141.00 45.77
142.00 44.87
143.00 43.82
144.00 42.82
145.00 41.95
146.00 41.24
147.00 40.65
148.00 40.19
149.00 39.84
150.00 39.56
151.00 39.35
152.00 39.15
153.00 38.98
154.00 38.78
155.00 38.55
156.00 38.25
157.00 37.89
158.00 37.47
159.00 36.99
160.00 36.48
161.00 35.95
162.00 35.42
163.00 34.90
164.00 34.41
165.00 33.96
166.00 33.54
167.00 33.18
168.00 32.87
169.00 32.61
170.00 32.40
171.00 32.25
172.00 32.16
173.00 32.12
174.00 32.14
175.00 32.22
176.00 32.34
177.00 32.53
178.00 32.75
179.00 33.03
180.00 33.34
181.00 33.67
182.00 34.00
183.00 34.33
184.00 34.61
185.00 34.82
186.00 34.93
187.00 34.94
188.00 34.82
189.00 34.61
190.00 34.32
191.00 33.97
192.00 33.60
193.00 33.23
194.00 32.88
195.00 32.56
196.00 32.29
197.00 32.07
198.00 31.91
199.00 31.82
200.00 31.79
201.00 31.83
202.00 31.94
203.00 32.13
204.00 32.39
205.00 32.74
206.00 33.16
207.00 33.65
208.00 34.22
209.00 34.83
210.00 35.46
211.00 36.05
212.00 36.51
213.00 36.76
214.00 36.70
215.00 36.33
216.00 35.72
217.00 34.96
218.00 34.13
219.00 33.30
220.00 32.51
221.00 31.78
222.00 31.11
223.00 30.52
224.00 30.00
225.00 29.54
226.00 29.15
227.00 28.81
228.00 28.54
229.00 28.32
230.00 28.15
231.00 28.02
232.00 27.94
233.00 27.90
234.00 27.89
235.00 27.91
236.00 27.96
237.00 28.03
238.00 28.11
239.00 28.21
240.00 28.30
241.00 28.39
242.00 28.46
243.00 28.52
244.00 28.55
245.00 28.55
246.00 28.52
247.00 28.46
248.00 28.37
249.00 28.25
250.00 28.11
251.00 27.94
252.00 27.76
253.00 27.57
254.00 27.36
255.00 27.15
256.00 26.93
257.00 26.71
258.00 26.49
259.00 26.27
260.00 26.05
261.00 25.82
262.00 25.59
263.00 25.35
264.00 25.11
265.00 24.87
266.00 24.62
267.00 24.36
268.00 24.10
269.00 23.83
270.00 23.55
271.00 23.27
272.00 22.98
273.00 22.68
274.00 22.38
275.00 22.07
276.00 21.75
277.00 21.43
278.00 21.10
279.00 20.77
280.00 20.42
281.00 20.08
282.00 19.73
283.00 19.37
284.00 19.01
285.00 18.65
286.00 18.28
287.00 17.90
288.00 17.53
289.00 17.15
290.00 16.77
291.00 16.39
292.00 16.00
293.00 15.62
294.00 15.23
295.00 14.84
296.00 14.46
297.00 14.07
298.00 13.69
299.00 13.30
300.00 12.92
301.00 12.54
302.00 12.16
303.00 11.78
304.00 11.41
305.00 11.04
306.00 10.67
307.00 10.30
308.00 9.94
309.00 9.58
310.00 9.22
311.00 8.87
312.00 8.52
313.00 8.18
314.00 7.85
315.00 7.52
316.00 7.19
317.00 6.87
318.00 6.56
319.00 6.26
320.00 5.96
321.00 5.66
322.00 5.38
323.00 5.10
324.00 4.83
325.00 4.57
326.00 4.31
327.00 4.07
328.00 3.83
329.00 3.60
330.00 3.38
331.00 3.16
332.00 2.95
333.00 2.75
334.00 2.56
335.00 2.38
336.00 2.20
337.00 2.04
338.00 1.87
339.00 1.72
340.00 1.58
341.00 1.44
342.00 1.30
343.00 1.18
344.00 1.06
345.00 0.95
346.00 0.84
347.00 0.75
348.00 0.65
349.00 0.57
350.00 0.49
351.00 0.41
352.00 0.34
353.00 0.28
354.00 0.22
355.00 0.17
356.00 0.13
357.00 0.09
358.00 0.06
359.00 0.03
VERTICAL 360
0.00 21.07
1.00 13.42
2.00 8.29
3.00 4.81
4.00 2.44
5.00 0.92
6.00 0.13
7.00 0.03
8.00 0.64
9.00 2.03
10.00 4.35
11.00 8.01
12.00 14.24
13.00 28.27
14.00 20.13
15.00 15.37
16.00 14.58
17.00 16.02
18.00 19.71
19.00 24.61
20.00 22.08
21.00 18.14
22.00 16.36
23.00 16.21
24.00 17.57
25.00 20.77
26.00 26.06
27.00 26.42
28.00 22.07
29.00 19.96
30.00 19.66
31.00 20.92
32.00 24.26
33.00 33.75
34.00 34.36
35.00 24.25
36.00 20.60
37.00 19.19
38.00 19.31
39.00 20.89
40.00 24.28
41.00 31.20
42.00 45.10
43.00 31.22
44.00 26.97
45.00 25.01
46.00 24.00
47.00 23.54
48.00 23.62
49.00 24.35
50.00 25.83
51.00 27.74
52.00 28.60
53.00 27.46
54.00 25.99
55.00 25.35
56.00 25.74
57.00 27.11
58.00 29.31
59.00 31.97
60.00 33.94
61.00 33.82
62.00 32.16
63.00 30.42
64.00 29.27
65.00 28.87
66.00 29.18
67.00 29.96
68.00 30.75
69.00 31.08
70.00 30.83
71.00 30.29
72.00 29.84
73.00 29.65
74.00 29.60
75.00 29.48
76.00 29.13
77.00 28.55
78.00 27.91
79.00 27.43
80.00 27.24
81.00 27.33
82.00 27.57
83.00 27.77
84.00 27.77
85.00 27.62
86.00 27.49
87.00 27.49
88.00 27.73
89.00 28.21
90.00 28.77
91.00 29.00
92.00 28.75
93.00 28.30
94.00 28.08
95.00 28.27
96.00 28.86
97.00 29.68
98.00 30.54
99.00 31.38
100.00 32.39
101.00 33.89
102.00 36.19
103.00 39.43
104.00 42.79
105.00 43.76
106.00 42.37
107.00 40.71
108.00 39.59
109.00 39.34
110.00 40.03
111.00 41.49
112.00 43.32
113.00 45.12
114.00 46.76
115.00 48.50
116.00 50.07
117.00 49.85
118.00 47.87
119.00 46.08
120.00 45.22
121.00 45.36
122.00 46.16
123.00 46.36
124.00 45.12
125.00 43.84
126.00 43.75
127.00 45.28
128.00 47.63
129.00 47.02
130.00 44.42
131.00 42.60
132.00 41.07
133.00 39.41
134.00 38.16
135.00 37.76
136.00 38.08
137.00 38.55
138.00 38.50
139.00 37.81
140.00 36.68
141.00 35.46
142.00 34.55
143.00 34.34
144.00 35.11
145.00 37.08
146.00 40.55
147.00 45.14
148.00 44.25
149.00 39.80
150.00 37.13
151.00 35.83
152.00 35.10
153.00 34.40
154.00 33.93
155.00 34.06
156.00 34.54
157.00 34.38
158.00 33.49
159.00 33.06
160.00 33.96
161.00 36.60
162.00 41.14
163.00 46.74
164.00 51.67
165.00 46.96
166.00 40.62
167.00 37.48
168.00 35.87
169.00 34.40
170.00 32.97
171.00 32.26
172.00 32.56
173.00 33.59
174.00 34.61
175.00 34.64
176.00 33.73
177.00 33.15
178.00 34.01
179.00 37.08
180.00 43.64
181.00 49.75
182.00 45.34
183.00 43.72
184.00 43.80
185.00 46.22
186.00 52.51
187.00 49.74
188.00 45.04
189.00 40.78
190.00 35.82
191.00 32.43
192.00 30.95
193.00 31.13
194.00 32.62
195.00 34.65
196.00 35.79
197.00 35.24
198.00 33.96
199.00 33.12
200.00 33.27
201.00 34.47
202.00 36.21
203.00 37.56
204.00 38.44
205.00 39.63
206.00 41.64
207.00 46.59
208.00 57.18
209.00 39.79
210.00 33.84
211.00 30.79
212.00 29.35
213.00 28.89
214.00 28.96
215.00 29.26
216.00 29.78
217.00 30.66
218.00 31.96
219.00 33.42
220.00 34.40
221.00 34.84
222.00 35.67
223.00 37.82
224.00 42.06
225.00 47.17
226.00 45.32
227.00 42.94
228.00 43.23
229.00 45.53
230.00 44.65
231.00 39.75
232.00 36.35
233.00 34.72
234.00 34.62
235.00 35.91
236.00 38.30
237.00 40.57
238.00 40.86
239.00 39.83
240.00 39.08
241.00 39.30
242.00 40.73
243.00 42.95
244.00 43.76
245.00 41.86
246.00 39.64
247.00 38.53
248.00 38.92
249.00 40.93
250.00 44.13
251.00 45.90
252.00 43.51
253.00 40.32
254.00 38.50
255.00 38.50
256.00 40.52
257.00 44.73
258.00 47.93
259.00 43.43
260.00 38.90
261.00 36.11
262.00 34.77
263.00 34.55
264.00 34.96
265.00 35.35
266.00 35.21
267.00 34.38
268.00 33.09
269.00 31.68
270.00 30.45
271.00 29.57
272.00 29.12
273.00 29.09
274.00 29.46
275.00 30.15
276.00 31.08
277.00 32.09
278.00 32.87
279.00 33.13
280.00 33.17
281.00 33.44
282.00 33.94
283.00 34.12
284.00 33.33
285.00 31.65
286.00 29.78
287.00 28.19
288.00 26.98
289.00 26.00
290.00 25.01
291.00 23.93
292.00 22.85
293.00 21.97
294.00 21.42
295.00 21.28
296.00 21.56
297.00 22.28
298.00 23.52
299.00 25.44
300.00 28.03
301.00 30.26
302.00 30.06
303.00 28.64
304.00 27.87
305.00 27.86
306.00 27.94
307.00 27.74
308.00 27.78
309.00 28.69
310.00 30.63
311.00 32.47
312.00 31.35
313.00 28.03
314.00 24.78
315.00 22.12
316.00 20.11
317.00 18.85
318.00 18.38
319.00 18.68
320.00 19.69
321.00 21.22
322.00 22.74
323.00 23.06
324.00 21.66
325.00 19.80
326.00 18.52
327.00 18.08
328.00 18.37
329.00 19.03
330.00 19.57
331.00 19.92
332.00 20.69
333.00 22.64
334.00 26.68
335.00 31.97
336.00 28.09
337.00 23.54
338.00 21.06
339.00 19.85
340.00 19.67
341.00 20.59
342.00 22.93
343.00 26.85
344.00 28.27
345.00 24.76
346.00 22.57
347.00 22.53
348.00 24.88
349.00 29.42
350.00 26.75
351.00 21.48
352.00 18.90
353.00 18.43
354.00 20.22
355.00 26.08
356.00 40.82
357.00 25.15
358.00 22.56
359.00 24.28
