NAME ATR4518R7_2655_X_CO_P45_09T_yL
FREQUENCY 2655
GAIN 15.11 dBd
TILT	ELECTRICAL
COMMENT DATE 05.08.2013 +45 degrees polarized system Lever position 09T deg
HORIZONTAL 360
0.00 0.08
1.00 0.12
2.00 0.17
3.00 0.24
4.00 0.31
5.00 0.39
6.00 0.46
7.00 0.55
8.00 0.63
9.00 0.72
10.00 0.80
11.00 0.90
12.00 0.99
13.00 1.08
14.00 1.18
15.00 1.27
16.00 1.38
17.00 1.48
18.00 1.59
19.00 1.71
20.00 1.83
21.00 1.96
22.00 2.09
23.00 2.24
24.00 2.38
25.00 2.54
26.00 2.70
27.00 2.87
28.00 3.04
29.00 3.22
30.00 3.40
31.00 3.57
32.00 3.75
33.00 3.94
34.00 4.12
35.00 4.30
36.00 4.49
37.00 4.68
38.00 4.86
39.00 5.04
40.00 5.23
41.00 5.43
42.00 5.61
43.00 5.81
44.00 6.01
45.00 6.21
46.00 6.42
47.00 6.63
48.00 6.85
49.00 7.06
50.00 7.29
51.00 7.52
52.00 7.75
53.00 7.99
54.00 8.21
55.00 8.45
56.00 8.69
57.00 8.96
58.00 9.21
59.00 9.48
60.00 9.74
61.00 10.00
62.00 10.27
63.00 10.52
64.00 10.78
65.00 11.05
66.00 11.32
67.00 11.58
68.00 11.86
69.00 12.14
70.00 12.42
71.00 12.71
72.00 13.00
73.00 13.30
74.00 13.61
75.00 13.93
76.00 14.26
77.00 14.60
78.00 14.95
79.00 15.31
80.00 15.68
81.00 16.06
82.00 16.45
83.00 16.84
84.00 17.26
85.00 17.68
86.00 18.11
87.00 18.54
88.00 18.97
89.00 19.41
90.00 19.85
91.00 20.29
92.00 20.72
93.00 21.14
94.00 21.56
95.00 21.98
96.00 22.39
97.00 22.80
98.00 23.21
99.00 23.63
100.00 24.05
101.00 24.50
102.00 24.95
103.00 25.43
104.00 25.92
105.00 26.43
106.00 26.97
107.00 27.51
108.00 28.05
109.00 28.59
110.00 29.12
111.00 29.60
112.00 30.03
113.00 30.36
114.00 30.61
115.00 30.74
116.00 30.77
117.00 30.71
118.00 30.58
119.00 30.40
120.00 30.20
121.00 30.00
122.00 29.83
123.00 29.70
124.00 29.62
125.00 29.62
126.00 29.70
127.00 29.88
128.00 30.15
129.00 30.54
130.00 31.04
131.00 31.67
132.00 32.43
133.00 33.30
134.00 34.28
135.00 35.29
136.00 36.25
137.00 37.02
138.00 37.47
139.00 37.54
140.00 37.35
141.00 37.04
142.00 36.77
143.00 36.63
144.00 36.69
145.00 36.99
146.00 37.58
147.00 38.50
148.00 39.81
149.00 41.55
150.00 43.62
151.00 45.15
152.00 44.52
153.00 42.25
154.00 39.87
155.00 37.89
156.00 36.31
157.00 35.09
158.00 34.16
159.00 33.47
160.00 32.99
161.00 32.69
162.00 32.54
163.00 32.53
164.00 32.62
165.00 32.76
166.00 32.91
167.00 33.02
168.00 33.03
169.00 32.91
170.00 32.65
171.00 32.28
172.00 31.85
173.00 31.41
174.00 31.00
175.00 30.66
176.00 30.42
177.00 30.28
178.00 30.26
179.00 30.37
180.00 30.62
181.00 31.01
182.00 31.55
183.00 32.26
184.00 33.13
185.00 34.18
186.00 35.37
187.00 36.63
188.00 37.79
189.00 38.57
190.00 38.72
191.00 38.29
192.00 37.55
193.00 36.77
194.00 36.10
195.00 35.62
196.00 35.35
197.00 35.28
198.00 35.43
199.00 35.79
200.00 36.33
201.00 37.00
202.00 37.72
203.00 38.29
204.00 38.50
205.00 38.18
206.00 37.43
207.00 36.45
208.00 35.47
209.00 34.59
210.00 33.87
211.00 33.33
212.00 32.98
213.00 32.83
214.00 32.87
215.00 33.13
216.00 33.61
217.00 34.34
218.00 35.37
219.00 36.76
220.00 38.64
221.00 41.20
222.00 44.73
223.00 48.56
224.00 47.37
225.00 43.35
226.00 40.18
227.00 37.87
228.00 36.12
229.00 34.73
230.00 33.62
231.00 32.71
232.00 31.94
233.00 31.26
234.00 30.67
235.00 30.13
236.00 29.64
237.00 29.17
238.00 28.74
239.00 28.34
240.00 27.98
241.00 27.65
242.00 27.37
243.00 27.13
244.00 26.94
245.00 26.80
246.00 26.70
247.00 26.65
248.00 26.63
249.00 26.64
250.00 26.66
251.00 26.68
252.00 26.68
253.00 26.64
254.00 26.54
255.00 26.38
256.00 26.16
257.00 25.88
258.00 25.55
259.00 25.19
260.00 24.81
261.00 24.43
262.00 24.07
263.00 23.73
264.00 23.41
265.00 23.13
266.00 22.88
267.00 22.66
268.00 22.46
269.00 22.28
270.00 22.12
271.00 21.96
272.00 21.80
273.00 21.63
274.00 21.46
275.00 21.27
276.00 21.07
277.00 20.87
278.00 20.66
279.00 20.46
280.00 20.27
281.00 20.09
282.00 19.94
283.00 19.82
284.00 19.72
285.00 19.65
286.00 19.62
287.00 19.60
288.00 19.61
289.00 19.63
290.00 19.65
291.00 19.65
292.00 19.63
293.00 19.56
294.00 19.43
295.00 19.23
296.00 18.95
297.00 18.59
298.00 18.17
299.00 17.68
300.00 17.15
301.00 16.58
302.00 15.99
303.00 15.38
304.00 14.75
305.00 14.13
306.00 13.50
307.00 12.89
308.00 12.27
309.00 11.67
310.00 11.09
311.00 10.50
312.00 9.95
313.00 9.40
314.00 8.88
315.00 8.38
316.00 7.89
317.00 7.42
318.00 7.00
319.00 6.58
320.00 6.19
321.00 5.82
322.00 5.49
323.00 5.17
324.00 4.88
325.00 4.64
326.00 4.42
327.00 4.20
328.00 3.99
329.00 3.80
330.00 3.61
331.00 3.42
332.00 3.24
333.00 3.06
334.00 2.88
335.00 2.70
336.00 2.51
337.00 2.33
338.00 2.15
339.00 1.97
340.00 1.79
341.00 1.62
342.00 1.44
343.00 1.27
344.00 1.10
345.00 0.95
346.00 0.81
347.00 0.66
348.00 0.54
349.00 0.43
350.00 0.32
351.00 0.24
352.00 0.16
353.00 0.10
354.00 0.06
355.00 0.02
356.00 0.01
357.00 0.00
358.00 0.02
359.00 0.04
VERTICAL 360
0.00 18.59
1.00 17.35
2.00 17.03
3.00 15.39
4.00 11.31
5.00 7.03
6.00 3.68
7.00 1.40
8.00 0.20
9.00 0.09
10.00 1.23
11.00 3.96
12.00 9.59
13.00 30.27
14.00 13.18
15.00 9.03
16.00 8.78
17.00 11.33
18.00 17.96
19.00 30.48
20.00 18.80
21.00 17.26
22.00 20.36
23.00 31.58
24.00 24.81
25.00 20.48
26.00 21.06
27.00 26.81
28.00 36.10
29.00 22.83
30.00 19.66
31.00 20.07
32.00 24.63
33.00 31.98
34.00 20.52
35.00 15.93
36.00 14.03
37.00 13.80
38.00 14.88
39.00 17.26
40.00 21.64
41.00 31.66
42.00 29.01
43.00 22.76
44.00 20.92
45.00 20.92
46.00 21.78
47.00 23.15
48.00 25.56
49.00 29.96
50.00 34.80
51.00 34.33
52.00 33.85
53.00 33.21
54.00 33.12
55.00 34.60
56.00 34.18
57.00 32.50
58.00 31.79
59.00 31.19
60.00 31.25
61.00 32.93
62.00 36.45
63.00 42.68
64.00 58.69
65.00 49.43
66.00 43.09
67.00 38.62
68.00 37.46
69.00 39.15
70.00 41.75
71.00 42.98
72.00 40.53
73.00 38.41
74.00 39.42
75.00 42.73
76.00 44.96
77.00 43.71
78.00 40.38
79.00 39.67
80.00 41.74
81.00 45.33
82.00 59.70
83.00 45.72
84.00 40.76
85.00 41.60
86.00 45.66
87.00 45.45
88.00 39.42
89.00 35.83
90.00 35.68
91.00 38.50
92.00 41.72
93.00 41.56
94.00 37.27
95.00 34.05
96.00 33.81
97.00 36.39
98.00 40.50
99.00 42.64
100.00 43.77
101.00 44.63
102.00 42.41
103.00 41.05
104.00 42.77
105.00 44.20
106.00 42.54
107.00 42.36
108.00 41.45
109.00 40.12
110.00 40.08
111.00 39.82
112.00 39.54
113.00 40.46
114.00 41.55
115.00 41.01
116.00 39.17
117.00 37.77
118.00 38.03
119.00 40.55
120.00 46.45
121.00 50.22
122.00 44.97
123.00 42.71
124.00 41.58
125.00 41.68
126.00 43.23
127.00 43.88
128.00 44.63
129.00 46.15
130.00 40.00
131.00 36.21
132.00 35.48
133.00 35.42
134.00 33.79
135.00 32.79
136.00 33.69
137.00 35.53
138.00 35.76
139.00 34.11
140.00 32.10
141.00 30.69
142.00 30.28
143.00 31.00
144.00 32.93
145.00 35.95
146.00 38.23
147.00 36.40
148.00 34.34
149.00 34.55
150.00 36.40
151.00 37.43
152.00 38.47
153.00 39.71
154.00 37.17
155.00 35.26
156.00 34.93
157.00 34.93
158.00 34.72
159.00 33.38
160.00 31.44
161.00 30.73
162.00 31.80
163.00 34.03
164.00 35.82
165.00 37.94
166.00 45.14
167.00 45.10
168.00 34.45
169.00 30.17
170.00 28.69
171.00 29.33
172.00 31.58
173.00 35.01
174.00 38.35
175.00 36.39
176.00 34.61
177.00 35.99
178.00 40.24
179.00 44.31
180.00 44.33
181.00 43.19
182.00 42.88
183.00 42.83
184.00 44.71
185.00 48.87
186.00 42.01
187.00 40.37
188.00 44.24
189.00 40.75
190.00 35.25
191.00 32.58
192.00 31.65
193.00 32.07
194.00 32.23
195.00 31.08
196.00 30.59
197.00 31.46
198.00 33.23
199.00 35.48
200.00 36.57
201.00 35.73
202.00 36.06
203.00 38.30
204.00 40.86
205.00 42.44
206.00 42.11
207.00 41.12
208.00 41.40
209.00 38.60
210.00 35.01
211.00 33.73
212.00 34.45
213.00 35.93
214.00 36.75
215.00 37.31
216.00 38.33
217.00 39.54
218.00 40.14
219.00 40.14
220.00 40.99
221.00 43.36
222.00 45.00
223.00 41.75
224.00 37.49
225.00 34.78
226.00 33.97
227.00 34.96
228.00 37.25
229.00 38.93
230.00 39.24
231.00 40.44
232.00 43.98
233.00 47.84
234.00 45.97
235.00 46.07
236.00 52.22
237.00 55.81
238.00 46.71
239.00 44.56
240.00 45.74
241.00 50.79
242.00 54.57
243.00 50.93
244.00 50.39
245.00 45.07
246.00 41.15
247.00 40.04
248.00 40.51
249.00 42.28
250.00 49.46
251.00 49.83
252.00 41.65
253.00 41.50
254.00 46.66
255.00 50.33
256.00 52.64
257.00 49.33
258.00 44.18
259.00 48.57
260.00 48.79
261.00 39.95
262.00 39.11
263.00 42.15
264.00 43.95
265.00 44.50
266.00 47.60
267.00 50.34
268.00 67.81
269.00 47.37
270.00 43.00
271.00 42.82
272.00 39.70
273.00 36.40
274.00 35.94
275.00 38.15
276.00 41.16
277.00 42.32
278.00 45.19
279.00 47.87
280.00 46.45
281.00 49.74
282.00 44.47
283.00 40.23
284.00 40.68
285.00 45.26
286.00 54.07
287.00 68.95
288.00 47.00
289.00 38.33
290.00 33.30
291.00 30.65
292.00 29.71
293.00 29.53
294.00 29.31
295.00 29.07
296.00 29.19
297.00 29.58
298.00 29.56
299.00 28.95
300.00 28.28
301.00 27.82
302.00 27.42
303.00 26.41
304.00 24.04
305.00 21.09
306.00 18.35
307.00 15.91
308.00 13.78
309.00 11.92
310.00 10.46
311.00 9.50
312.00 9.11
313.00 9.42
314.00 10.69
315.00 13.35
316.00 18.70
317.00 30.91
318.00 17.12
319.00 12.54
320.00 10.97
321.00 11.35
322.00 13.79
323.00 19.56
324.00 27.01
325.00 18.96
326.00 16.12
327.00 16.50
328.00 20.29
329.00 36.05
330.00 23.36
331.00 18.31
332.00 17.99
333.00 21.88
334.00 33.78
335.00 21.12
336.00 16.64
337.00 15.63
338.00 17.28
339.00 22.47
340.00 23.87
341.00 15.76
342.00 13.23
343.00 13.72
344.00 17.49
345.00 27.21
346.00 23.40
347.00 19.39
348.00 18.87
349.00 20.78
350.00 24.52
351.00 28.98
352.00 34.28
353.00 38.59
354.00 29.98
355.00 26.23
356.00 26.48
357.00 33.02
358.00 30.36
359.00 21.99
