NAME ATR4518R7_1850_X_CO_M45_01T_yyR
FREQUENCY 1850
GAIN 15.59 dBd
TILT	ELECTRICAL
COMMENT DATE 05.08.2013 -45 degrees polarized system Lever position 01T deg
HORIZONTAL 360
0.00 0.18
1.00 0.13
2.00 0.09
3.00 0.06
4.00 0.03
5.00 0.02
6.00 0.01
7.00 0.00
8.00 0.01
9.00 0.02
10.00 0.04
11.00 0.07
12.00 0.11
13.00 0.16
14.00 0.21
15.00 0.28
16.00 0.36
17.00 0.44
18.00 0.53
19.00 0.63
20.00 0.75
21.00 0.87
22.00 1.00
23.00 1.13
24.00 1.28
25.00 1.44
26.00 1.60
27.00 1.77
28.00 1.95
29.00 2.14
30.00 2.33
31.00 2.54
32.00 2.75
33.00 2.96
34.00 3.19
35.00 3.41
36.00 3.65
37.00 3.89
38.00 4.14
39.00 4.40
40.00 4.66
41.00 4.93
42.00 5.20
43.00 5.48
44.00 5.77
45.00 6.07
46.00 6.37
47.00 6.68
48.00 7.00
49.00 7.32
50.00 7.66
51.00 8.00
52.00 8.35
53.00 8.71
54.00 9.08
55.00 9.46
56.00 9.85
57.00 10.25
58.00 10.65
59.00 11.06
60.00 11.48
61.00 11.91
62.00 12.34
63.00 12.78
64.00 13.23
65.00 13.68
66.00 14.14
67.00 14.59
68.00 15.05
69.00 15.51
70.00 15.97
71.00 16.43
72.00 16.89
73.00 17.34
74.00 17.79
75.00 18.24
76.00 18.69
77.00 19.15
78.00 19.60
79.00 20.05
80.00 20.51
81.00 20.98
82.00 21.46
83.00 21.95
84.00 22.45
85.00 22.96
86.00 23.49
87.00 24.04
88.00 24.62
89.00 25.21
90.00 25.82
91.00 26.45
92.00 27.10
93.00 27.76
94.00 28.42
95.00 29.08
96.00 29.73
97.00 30.34
98.00 30.91
99.00 31.42
100.00 31.86
101.00 32.21
102.00 32.47
103.00 32.66
104.00 32.77
105.00 32.84
106.00 32.87
107.00 32.88
108.00 32.88
109.00 32.89
110.00 32.90
111.00 32.93
112.00 32.98
113.00 33.03
114.00 33.10
115.00 33.19
116.00 33.27
117.00 33.35
118.00 33.42
119.00 33.48
120.00 33.52
121.00 33.55
122.00 33.56
123.00 33.55
124.00 33.53
125.00 33.49
126.00 33.46
127.00 33.42
128.00 33.40
129.00 33.39
130.00 33.40
131.00 33.43
132.00 33.49
133.00 33.59
134.00 33.72
135.00 33.89
136.00 34.10
137.00 34.36
138.00 34.67
139.00 35.03
140.00 35.44
141.00 35.91
142.00 36.45
143.00 37.07
144.00 37.76
145.00 38.55
146.00 39.45
147.00 40.47
148.00 41.63
149.00 42.93
150.00 44.35
151.00 45.78
152.00 46.89
153.00 47.21
154.00 46.50
155.00 45.13
156.00 43.58
157.00 42.08
158.00 40.71
159.00 39.51
160.00 38.46
161.00 37.53
162.00 36.72
163.00 36.02
164.00 35.42
165.00 34.91
166.00 34.48
167.00 34.13
168.00 33.86
169.00 33.67
170.00 33.55
171.00 33.50
172.00 33.52
173.00 33.63
174.00 33.80
175.00 34.05
176.00 34.37
177.00 34.77
178.00 35.23
179.00 35.75
180.00 36.31
181.00 36.86
182.00 37.36
183.00 37.73
184.00 37.89
185.00 37.81
186.00 37.48
187.00 36.95
188.00 36.31
189.00 35.61
190.00 34.91
191.00 34.24
192.00 33.63
193.00 33.08
194.00 32.61
195.00 32.21
196.00 31.88
197.00 31.62
198.00 31.43
199.00 31.31
200.00 31.26
201.00 31.27
202.00 31.34
203.00 31.48
204.00 31.68
205.00 31.93
206.00 32.24
207.00 32.60
208.00 33.00
209.00 33.43
210.00 33.88
211.00 34.32
212.00 34.74
213.00 35.10
214.00 35.38
215.00 35.54
216.00 35.59
217.00 35.51
218.00 35.33
219.00 35.09
220.00 34.79
221.00 34.48
222.00 34.18
223.00 33.89
224.00 33.64
225.00 33.42
226.00 33.24
227.00 33.11
228.00 33.02
229.00 32.99
230.00 33.00
231.00 33.04
232.00 33.14
233.00 33.27
234.00 33.44
235.00 33.64
236.00 33.87
237.00 34.12
238.00 34.37
239.00 34.62
240.00 34.84
241.00 35.03
242.00 35.17
243.00 35.22
244.00 35.18
245.00 35.03
246.00 34.79
247.00 34.45
248.00 34.04
249.00 33.56
250.00 33.05
251.00 32.51
252.00 31.95
253.00 31.40
254.00 30.86
255.00 30.32
256.00 29.80
257.00 29.30
258.00 28.82
259.00 28.35
260.00 27.89
261.00 27.46
262.00 27.03
263.00 26.62
264.00 26.21
265.00 25.81
266.00 25.41
267.00 25.01
268.00 24.61
269.00 24.21
270.00 23.81
271.00 23.40
272.00 22.99
273.00 22.58
274.00 22.15
275.00 21.73
276.00 21.30
277.00 20.87
278.00 20.44
279.00 20.00
280.00 19.57
281.00 19.14
282.00 18.71
283.00 18.29
284.00 17.87
285.00 17.45
286.00 17.04
287.00 16.64
288.00 16.24
289.00 15.85
290.00 15.46
291.00 15.08
292.00 14.70
293.00 14.33
294.00 13.96
295.00 13.61
296.00 13.25
297.00 12.90
298.00 12.56
299.00 12.22
300.00 11.88
301.00 11.55
302.00 11.22
303.00 10.89
304.00 10.57
305.00 10.25
306.00 9.94
307.00 9.63
308.00 9.32
309.00 9.02
310.00 8.72
311.00 8.42
312.00 8.13
313.00 7.84
314.00 7.56
315.00 7.28
316.00 7.01
317.00 6.74
318.00 6.48
319.00 6.22
320.00 5.96
321.00 5.72
322.00 5.48
323.00 5.24
324.00 5.01
325.00 4.79
326.00 4.57
327.00 4.36
328.00 4.15
329.00 3.95
330.00 3.76
331.00 3.57
332.00 3.39
333.00 3.21
334.00 3.04
335.00 2.87
336.00 2.71
337.00 2.56
338.00 2.40
339.00 2.26
340.00 2.12
341.00 1.98
342.00 1.85
343.00 1.72
344.00 1.59
345.00 1.47
346.00 1.36
347.00 1.24
348.00 1.14
349.00 1.03
350.00 0.93
351.00 0.83
352.00 0.74
353.00 0.65
354.00 0.57
355.00 0.49
356.00 0.42
357.00 0.35
358.00 0.29
359.00 0.23
VERTICAL 360
0.00 0.50
1.00 0.00
2.00 0.22
3.00 1.20
4.00 3.01
5.00 5.90
6.00 10.57
7.00 20.01
8.00 24.86
9.00 15.61
10.00 13.25
11.00 13.49
12.00 15.99
13.00 22.05
14.00 26.87
15.00 19.52
16.00 15.96
17.00 14.88
18.00 15.53
19.00 18.03
20.00 23.73
21.00 32.41
22.00 23.99
23.00 19.73
24.00 18.67
25.00 19.78
26.00 23.39
27.00 30.17
28.00 27.64
29.00 22.27
30.00 19.68
31.00 18.54
32.00 18.33
33.00 18.89
34.00 20.30
35.00 22.77
36.00 26.52
37.00 31.23
38.00 33.82
39.00 31.75
40.00 27.69
41.00 23.89
42.00 21.10
43.00 19.33
44.00 18.41
45.00 18.11
46.00 18.27
47.00 18.82
48.00 19.78
49.00 21.29
50.00 23.59
51.00 27.04
52.00 32.35
53.00 37.93
54.00 34.27
55.00 29.74
56.00 26.91
57.00 25.25
58.00 24.63
59.00 24.98
60.00 26.25
61.00 28.31
62.00 30.85
63.00 33.17
64.00 34.17
65.00 33.55
66.00 32.16
67.00 30.87
68.00 30.09
69.00 29.96
70.00 30.41
71.00 31.19
72.00 31.85
73.00 32.12
74.00 32.20
75.00 32.47
76.00 32.99
77.00 33.28
78.00 32.56
79.00 30.92
80.00 29.18
81.00 27.83
82.00 26.99
83.00 26.63
84.00 26.65
85.00 26.88
86.00 27.20
87.00 27.57
88.00 28.09
89.00 29.04
90.00 30.74
91.00 33.16
92.00 34.46
93.00 32.96
94.00 31.19
95.00 30.65
96.00 31.51
97.00 33.80
98.00 37.61
99.00 43.05
100.00 49.68
101.00 53.67
102.00 53.80
103.00 53.53
104.00 50.83
105.00 46.95
106.00 44.54
107.00 43.81
108.00 44.30
109.00 45.21
110.00 45.50
111.00 44.72
112.00 43.48
113.00 42.68
114.00 42.95
115.00 44.79
116.00 49.33
117.00 60.83
118.00 52.38
119.00 45.50
120.00 42.02
121.00 40.28
122.00 40.08
123.00 41.59
124.00 45.03
125.00 50.26
126.00 55.09
127.00 54.85
128.00 49.96
129.00 46.37
130.00 44.59
131.00 43.36
132.00 41.99
133.00 41.03
134.00 40.97
135.00 41.78
136.00 43.50
137.00 47.16
138.00 52.23
139.00 46.86
140.00 41.94
141.00 39.46
142.00 37.95
143.00 36.68
144.00 35.67
145.00 35.32
146.00 36.01
147.00 38.06
148.00 41.57
149.00 44.61
150.00 44.73
151.00 45.42
152.00 48.48
153.00 50.59
154.00 49.53
155.00 49.86
156.00 50.91
157.00 51.88
158.00 57.52
159.00 50.43
160.00 42.15
161.00 38.01
162.00 35.79
163.00 34.72
164.00 34.58
165.00 35.44
166.00 37.46
167.00 40.47
168.00 43.14
169.00 42.91
170.00 40.01
171.00 37.03
172.00 35.22
173.00 34.75
174.00 35.44
175.00 36.69
176.00 37.40
177.00 37.11
178.00 36.72
179.00 36.95
180.00 37.74
181.00 38.35
182.00 38.35
183.00 38.35
184.00 39.02
185.00 39.87
186.00 39.03
187.00 36.77
188.00 34.93
189.00 34.29
190.00 35.16
191.00 37.76
192.00 40.27
193.00 38.45
194.00 36.42
195.00 36.78
196.00 39.75
197.00 42.40
198.00 39.99
199.00 37.91
200.00 37.26
201.00 36.90
202.00 36.60
203.00 36.35
204.00 35.09
205.00 33.02
206.00 31.73
207.00 31.99
208.00 34.25
209.00 39.55
210.00 45.41
211.00 39.42
212.00 35.33
213.00 33.58
214.00 33.23
215.00 33.96
216.00 35.57
217.00 37.72
218.00 39.84
219.00 41.09
220.00 41.60
221.00 42.90
222.00 46.84
223.00 50.24
224.00 45.01
225.00 42.47
226.00 44.08
227.00 50.19
228.00 44.41
229.00 38.40
230.00 35.84
231.00 35.14
232.00 35.60
233.00 36.71
234.00 38.14
235.00 39.90
236.00 42.36
237.00 45.75
238.00 46.89
239.00 43.37
240.00 39.89
241.00 37.51
242.00 36.11
243.00 35.72
244.00 36.39
245.00 38.10
246.00 40.54
247.00 43.43
248.00 47.31
249.00 53.46
250.00 53.10
251.00 47.25
252.00 43.81
253.00 42.42
254.00 43.36
255.00 48.22
256.00 54.40
257.00 45.87
258.00 41.80
259.00 40.22
260.00 39.33
261.00 38.10
262.00 36.37
263.00 34.68
264.00 33.53
265.00 33.13
266.00 33.39
267.00 34.03
268.00 34.76
269.00 35.18
270.00 34.88
271.00 34.11
272.00 33.46
273.00 32.99
274.00 32.40
275.00 31.63
276.00 30.98
277.00 30.54
278.00 30.19
279.00 29.81
280.00 29.36
281.00 28.94
282.00 28.70
283.00 28.77
284.00 29.12
285.00 29.58
286.00 29.92
287.00 30.00
288.00 29.92
289.00 29.79
290.00 29.59
291.00 29.10
292.00 28.20
293.00 27.03
294.00 25.83
295.00 24.68
296.00 23.56
297.00 22.50
298.00 21.57
299.00 20.91
300.00 20.61
301.00 20.69
302.00 21.10
303.00 21.76
304.00 22.58
305.00 23.52
306.00 24.58
307.00 25.64
308.00 26.38
309.00 26.35
310.00 25.60
311.00 24.57
312.00 23.66
313.00 23.01
314.00 22.65
315.00 22.51
316.00 22.49
317.00 22.46
318.00 22.29
319.00 21.89
320.00 21.28
321.00 20.60
322.00 20.00
323.00 19.60
324.00 19.47
325.00 19.75
326.00 20.62
327.00 22.47
328.00 26.17
329.00 35.30
330.00 34.64
331.00 25.85
332.00 22.35
333.00 20.94
334.00 21.02
335.00 22.64
336.00 26.49
337.00 33.74
338.00 30.83
339.00 25.43
340.00 23.49
341.00 23.94
342.00 26.81
343.00 29.03
344.00 24.51
345.00 20.57
346.00 18.81
347.00 18.95
348.00 21.29
349.00 27.89
350.00 34.20
351.00 24.53
352.00 21.71
353.00 23.37
354.00 32.94
355.00 20.15
356.00 11.89
357.00 7.09
358.00 3.89
359.00 1.76
