NAME ATR4518R7_1750_X_CO_M45_00T_yL
FREQUENCY 1750
GAIN 14.95 dBd
TILT	ELECTRICAL
COMMENT DATE 05.08.2013 -45 degrees polarized system Lever position 00T deg
HORIZONTAL 360
0.00 0.00
1.00 0.00
2.00 0.01
3.00 0.02
4.00 0.03
5.00 0.05
6.00 0.07
7.00 0.10
8.00 0.13
9.00 0.16
10.00 0.20
11.00 0.25
12.00 0.30
13.00 0.35
14.00 0.41
15.00 0.47
16.00 0.54
17.00 0.62
18.00 0.69
19.00 0.78
20.00 0.86
21.00 0.96
22.00 1.05
23.00 1.16
24.00 1.27
25.00 1.38
26.00 1.50
27.00 1.62
28.00 1.75
29.00 1.89
30.00 2.03
31.00 2.18
32.00 2.34
33.00 2.50
34.00 2.66
35.00 2.83
36.00 3.01
37.00 3.20
38.00 3.38
39.00 3.58
40.00 3.78
41.00 3.99
42.00 4.20
43.00 4.41
44.00 4.63
45.00 4.86
46.00 5.08
47.00 5.32
48.00 5.55
49.00 5.79
50.00 6.04
51.00 6.29
52.00 6.54
53.00 6.79
54.00 7.05
55.00 7.31
56.00 7.58
57.00 7.85
58.00 8.12
59.00 8.40
60.00 8.68
61.00 8.97
62.00 9.26
63.00 9.56
64.00 9.86
65.00 10.17
66.00 10.50
67.00 10.82
68.00 11.16
69.00 11.51
70.00 11.86
71.00 12.22
72.00 12.59
73.00 12.97
74.00 13.37
75.00 13.76
76.00 14.17
77.00 14.58
78.00 15.00
79.00 15.43
80.00 15.86
81.00 16.29
82.00 16.73
83.00 17.17
84.00 17.59
85.00 18.01
86.00 18.43
87.00 18.84
88.00 19.24
89.00 19.62
90.00 19.99
91.00 20.35
92.00 20.69
93.00 21.02
94.00 21.34
95.00 21.65
96.00 21.95
97.00 22.24
98.00 22.53
99.00 22.81
100.00 23.08
101.00 23.36
102.00 23.62
103.00 23.88
104.00 24.13
105.00 24.38
106.00 24.61
107.00 24.82
108.00 25.02
109.00 25.21
110.00 25.37
111.00 25.53
112.00 25.67
113.00 25.81
114.00 25.95
115.00 26.08
116.00 26.23
117.00 26.39
118.00 26.57
119.00 26.77
120.00 26.98
121.00 27.22
122.00 27.47
123.00 27.71
124.00 27.95
125.00 28.16
126.00 28.31
127.00 28.41
128.00 28.41
129.00 28.33
130.00 28.16
131.00 27.92
132.00 27.62
133.00 27.29
134.00 26.95
135.00 26.61
136.00 26.31
137.00 26.04
138.00 25.82
139.00 25.64
140.00 25.53
141.00 25.47
142.00 25.48
143.00 25.54
144.00 25.66
145.00 25.84
146.00 26.07
147.00 26.33
148.00 26.63
149.00 26.95
150.00 27.26
151.00 27.55
152.00 27.79
153.00 27.97
154.00 28.06
155.00 28.07
156.00 28.01
157.00 27.89
158.00 27.74
159.00 27.59
160.00 27.46
161.00 27.36
162.00 27.31
163.00 27.34
164.00 27.44
165.00 27.62
166.00 27.91
167.00 28.29
168.00 28.78
169.00 29.39
170.00 30.11
171.00 30.94
172.00 31.83
173.00 32.73
174.00 33.50
175.00 33.95
176.00 33.95
177.00 33.47
178.00 32.68
179.00 31.76
180.00 30.84
181.00 30.00
182.00 29.26
183.00 28.65
184.00 28.15
185.00 27.78
186.00 27.52
187.00 27.37
188.00 27.34
189.00 27.43
190.00 27.63
191.00 27.95
192.00 28.41
193.00 29.01
194.00 29.78
195.00 30.75
196.00 31.95
197.00 33.48
198.00 35.44
199.00 38.09
200.00 41.98
201.00 48.75
202.00 52.21
203.00 43.99
204.00 39.53
205.00 36.68
206.00 34.64
207.00 33.11
208.00 31.93
209.00 31.01
210.00 30.30
211.00 29.76
212.00 29.37
213.00 29.12
214.00 29.00
215.00 29.01
216.00 29.14
217.00 29.41
218.00 29.81
219.00 30.37
220.00 31.11
221.00 32.07
222.00 33.30
223.00 34.88
224.00 36.96
225.00 39.75
226.00 43.14
227.00 44.45
228.00 41.29
229.00 37.76
230.00 34.97
231.00 32.80
232.00 31.04
233.00 29.59
234.00 28.38
235.00 27.35
236.00 26.48
237.00 25.73
238.00 25.09
239.00 24.55
240.00 24.09
241.00 23.70
242.00 23.39
243.00 23.13
244.00 22.93
245.00 22.77
246.00 22.65
247.00 22.56
248.00 22.50
249.00 22.45
250.00 22.40
251.00 22.34
252.00 22.27
253.00 22.17
254.00 22.04
255.00 21.87
256.00 21.66
257.00 21.42
258.00 21.13
259.00 20.82
260.00 20.48
261.00 20.13
262.00 19.77
263.00 19.41
264.00 19.05
265.00 18.69
266.00 18.34
267.00 17.99
268.00 17.66
269.00 17.33
270.00 17.02
271.00 16.71
272.00 16.40
273.00 16.10
274.00 15.81
275.00 15.51
276.00 15.21
277.00 14.91
278.00 14.61
279.00 14.31
280.00 14.00
281.00 13.68
282.00 13.37
283.00 13.05
284.00 12.73
285.00 12.41
286.00 12.08
287.00 11.76
288.00 11.44
289.00 11.12
290.00 10.81
291.00 10.50
292.00 10.19
293.00 9.90
294.00 9.61
295.00 9.32
296.00 9.05
297.00 8.78
298.00 8.52
299.00 8.26
300.00 8.02
301.00 7.78
302.00 7.55
303.00 7.33
304.00 7.11
305.00 6.90
306.00 6.69
307.00 6.49
308.00 6.30
309.00 6.11
310.00 5.92
311.00 5.74
312.00 5.56
313.00 5.38
314.00 5.21
315.00 5.04
316.00 4.87
317.00 4.70
318.00 4.54
319.00 4.37
320.00 4.21
321.00 4.04
322.00 3.88
323.00 3.72
324.00 3.55
325.00 3.39
326.00 3.23
327.00 3.07
328.00 2.91
329.00 2.75
330.00 2.59
331.00 2.43
332.00 2.28
333.00 2.12
334.00 1.97
335.00 1.82
336.00 1.68
337.00 1.54
338.00 1.40
339.00 1.27
340.00 1.15
341.00 1.03
342.00 0.92
343.00 0.81
344.00 0.71
345.00 0.62
346.00 0.54
347.00 0.46
348.00 0.39
349.00 0.32
350.00 0.27
351.00 0.21
352.00 0.17
353.00 0.13
354.00 0.09
355.00 0.07
356.00 0.04
357.00 0.03
358.00 0.01
359.00 0.00
VERTICAL 360
0.00 0.00
1.00 0.23
2.00 1.15
3.00 2.84
4.00 5.52
5.00 9.70
6.00 17.14
7.00 29.53
8.00 17.46
9.00 14.45
10.00 14.41
11.00 16.78
12.00 22.47
13.00 24.12
14.00 17.92
15.00 15.00
16.00 14.08
17.00 14.45
18.00 15.66
19.00 17.12
20.00 17.77
21.00 17.00
22.00 15.67
23.00 14.78
24.00 14.80
25.00 16.03
26.00 18.90
27.00 23.96
28.00 25.12
29.00 20.36
30.00 17.53
31.00 16.26
32.00 16.04
33.00 16.65
34.00 18.04
35.00 20.31
36.00 23.68
37.00 28.22
38.00 31.26
39.00 28.51
40.00 25.03
41.00 22.29
42.00 20.19
43.00 18.60
44.00 17.46
45.00 16.70
46.00 16.29
47.00 16.23
48.00 16.49
49.00 17.07
50.00 18.02
51.00 19.40
52.00 21.40
53.00 24.35
54.00 28.75
55.00 33.45
56.00 31.38
57.00 28.09
58.00 26.15
59.00 24.98
60.00 24.19
61.00 23.66
62.00 23.45
63.00 23.65
64.00 24.35
65.00 25.53
66.00 27.12
67.00 28.89
68.00 30.59
69.00 32.12
70.00 33.62
71.00 35.21
72.00 36.53
73.00 36.60
74.00 35.48
75.00 34.37
76.00 33.98
77.00 34.52
78.00 36.01
79.00 38.23
80.00 40.39
81.00 41.25
82.00 40.97
83.00 40.69
84.00 41.24
85.00 43.13
86.00 46.22
87.00 46.86
88.00 43.39
89.00 39.93
90.00 37.31
91.00 35.60
92.00 34.75
93.00 34.57
94.00 34.73
95.00 35.01
96.00 35.46
97.00 36.20
98.00 37.33
99.00 38.89
100.00 40.89
101.00 43.19
102.00 45.71
103.00 48.55
104.00 49.36
105.00 46.99
106.00 45.97
107.00 48.04
108.00 56.43
109.00 54.92
110.00 47.56
111.00 44.91
112.00 43.65
113.00 42.74
114.00 41.97
115.00 41.17
116.00 40.38
117.00 40.09
118.00 40.76
119.00 42.50
120.00 44.83
121.00 46.26
122.00 46.31
123.00 46.29
124.00 45.96
125.00 43.88
126.00 41.37
127.00 40.06
128.00 40.31
129.00 41.98
130.00 44.47
131.00 46.53
132.00 46.52
133.00 44.21
134.00 42.07
135.00 41.19
136.00 40.97
137.00 40.19
138.00 39.11
139.00 38.85
140.00 39.93
141.00 42.20
142.00 44.41
143.00 45.03
144.00 45.93
145.00 50.84
146.00 54.53
147.00 43.18
148.00 38.78
149.00 37.09
150.00 36.82
151.00 36.73
152.00 36.18
153.00 35.91
154.00 36.25
155.00 36.06
156.00 34.73
157.00 33.84
158.00 34.42
159.00 36.24
160.00 36.65
161.00 34.49
162.00 32.73
163.00 32.07
164.00 32.19
165.00 32.86
166.00 34.18
167.00 36.64
168.00 41.13
169.00 50.56
170.00 58.17
171.00 51.61
172.00 60.67
173.00 49.67
174.00 41.19
175.00 37.06
176.00 34.68
177.00 33.09
178.00 31.73
179.00 30.41
180.00 29.26
181.00 28.57
182.00 28.68
183.00 29.84
184.00 32.26
185.00 35.80
186.00 38.06
187.00 36.65
188.00 34.81
189.00 33.93
190.00 34.07
191.00 34.79
192.00 34.81
193.00 33.70
194.00 32.71
195.00 32.58
196.00 33.49
197.00 35.87
198.00 41.03
199.00 45.21
200.00 38.43
201.00 35.56
202.00 35.73
203.00 38.84
204.00 46.83
205.00 49.83
206.00 44.12
207.00 43.59
208.00 45.01
209.00 45.65
210.00 44.08
211.00 41.99
212.00 41.02
213.00 41.73
214.00 42.82
215.00 40.50
216.00 36.91
217.00 33.87
218.00 31.18
219.00 28.92
220.00 27.37
221.00 26.69
222.00 26.85
223.00 27.60
224.00 28.50
225.00 29.13
226.00 29.68
227.00 30.69
228.00 32.66
229.00 35.99
230.00 41.32
231.00 49.15
232.00 48.74
233.00 45.51
234.00 44.36
235.00 44.25
236.00 44.81
237.00 45.73
238.00 46.27
239.00 45.80
240.00 44.58
241.00 43.17
242.00 42.25
243.00 42.64
244.00 45.24
245.00 52.87
246.00 57.28
247.00 47.35
248.00 44.61
249.00 44.38
250.00 45.00
251.00 43.78
252.00 41.38
253.00 40.11
254.00 40.61
255.00 43.18
256.00 48.83
257.00 49.24
258.00 41.30
259.00 36.76
260.00 34.40
261.00 33.69
262.00 34.34
263.00 35.89
264.00 37.34
265.00 37.50
266.00 36.18
267.00 34.20
268.00 32.44
269.00 31.24
270.00 30.70
271.00 30.80
272.00 31.55
273.00 32.84
274.00 34.27
275.00 35.00
276.00 34.24
277.00 32.32
278.00 30.35
279.00 28.91
280.00 28.10
281.00 27.70
282.00 27.44
283.00 27.13
284.00 26.81
285.00 26.58
286.00 26.53
287.00 26.58
288.00 26.59
289.00 26.53
290.00 26.55
291.00 26.87
292.00 27.57
293.00 28.31
294.00 28.31
295.00 27.18
296.00 25.57
297.00 24.01
298.00 22.62
299.00 21.43
300.00 20.49
301.00 19.87
302.00 19.58
303.00 19.53
304.00 19.62
305.00 19.81
306.00 20.14
307.00 20.63
308.00 21.13
309.00 21.25
310.00 20.73
311.00 19.90
312.00 19.18
313.00 18.79
314.00 18.76
315.00 19.02
316.00 19.49
317.00 20.01
318.00 20.30
319.00 20.14
320.00 19.68
321.00 19.27
322.00 19.26
323.00 19.91
324.00 21.54
325.00 24.74
326.00 30.59
327.00 30.82
328.00 24.86
329.00 21.68
330.00 20.29
331.00 20.25
332.00 21.55
333.00 24.51
334.00 29.17
335.00 28.26
336.00 23.65
337.00 20.96
338.00 19.85
339.00 20.09
340.00 21.68
341.00 24.22
342.00 24.48
343.00 21.61
344.00 19.45
345.00 18.85
346.00 20.01
347.00 23.74
348.00 35.39
349.00 29.13
350.00 22.70
351.00 21.43
352.00 24.70
353.00 28.22
354.00 16.23
355.00 9.99
356.00 6.01
357.00 3.30
358.00 1.49
359.00 0.41
