NAME ATR4518R7_1880_X_CO_M45_01T_yL
FREQUENCY 1880
GAIN 14.99 dBd
TILT	ELECTRICAL
COMMENT DATE 05.08.2013 -45 degrees polarized system Lever position 01T deg
HORIZONTAL 360
0.00 0.02
1.00 0.01
2.00 0.00
3.00 0.00
4.00 0.01
5.00 0.02
6.00 0.04
7.00 0.06
8.00 0.09
9.00 0.13
10.00 0.17
11.00 0.22
12.00 0.27
13.00 0.33
14.00 0.39
15.00 0.46
16.00 0.53
17.00 0.61
18.00 0.69
19.00 0.78
20.00 0.88
21.00 0.98
22.00 1.08
23.00 1.19
24.00 1.31
25.00 1.43
26.00 1.56
27.00 1.69
28.00 1.84
29.00 1.99
30.00 2.14
31.00 2.31
32.00 2.48
33.00 2.66
34.00 2.85
35.00 3.04
36.00 3.25
37.00 3.46
38.00 3.69
39.00 3.92
40.00 4.16
41.00 4.41
42.00 4.67
43.00 4.93
44.00 5.21
45.00 5.49
46.00 5.79
47.00 6.08
48.00 6.39
49.00 6.70
50.00 7.02
51.00 7.35
52.00 7.68
53.00 8.01
54.00 8.36
55.00 8.70
56.00 9.06
57.00 9.41
58.00 9.77
59.00 10.14
60.00 10.51
61.00 10.88
62.00 11.26
63.00 11.65
64.00 12.03
65.00 12.43
66.00 12.83
67.00 13.23
68.00 13.64
69.00 14.06
70.00 14.48
71.00 14.91
72.00 15.35
73.00 15.79
74.00 16.23
75.00 16.68
76.00 17.14
77.00 17.60
78.00 18.06
79.00 18.53
80.00 19.01
81.00 19.48
82.00 19.96
83.00 20.45
84.00 20.94
85.00 21.44
86.00 21.95
87.00 22.47
88.00 23.01
89.00 23.56
90.00 24.13
91.00 24.73
92.00 25.36
93.00 26.02
94.00 26.71
95.00 27.44
96.00 28.21
97.00 29.01
98.00 29.83
99.00 30.67
100.00 31.49
101.00 32.24
102.00 32.87
103.00 33.32
104.00 33.55
105.00 33.57
106.00 33.40
107.00 33.11
108.00 32.75
109.00 32.37
110.00 32.02
111.00 31.70
112.00 31.43
113.00 31.22
114.00 31.06
115.00 30.95
116.00 30.87
117.00 30.81
118.00 30.76
119.00 30.70
120.00 30.60
121.00 30.46
122.00 30.26
123.00 30.00
124.00 29.69
125.00 29.32
126.00 28.94
127.00 28.53
128.00 28.14
129.00 27.76
130.00 27.41
131.00 27.10
132.00 26.83
133.00 26.62
134.00 26.45
135.00 26.34
136.00 26.29
137.00 26.30
138.00 26.37
139.00 26.49
140.00 26.67
141.00 26.92
142.00 27.22
143.00 27.59
144.00 28.02
145.00 28.51
146.00 29.07
147.00 29.69
148.00 30.37
149.00 31.11
150.00 31.89
151.00 32.69
152.00 33.44
153.00 34.09
154.00 34.54
155.00 34.71
156.00 34.56
157.00 34.14
158.00 33.55
159.00 32.86
160.00 32.17
161.00 31.52
162.00 30.94
163.00 30.43
164.00 30.03
165.00 29.71
166.00 29.51
167.00 29.40
168.00 29.41
169.00 29.53
170.00 29.76
171.00 30.12
172.00 30.61
173.00 31.23
174.00 31.97
175.00 32.82
176.00 33.71
177.00 34.51
178.00 35.04
179.00 35.09
180.00 34.60
181.00 33.73
182.00 32.71
183.00 31.68
184.00 30.75
185.00 29.94
186.00 29.28
187.00 28.75
188.00 28.36
189.00 28.12
190.00 28.01
191.00 28.04
192.00 28.22
193.00 28.56
194.00 29.06
195.00 29.76
196.00 30.68
197.00 31.88
198.00 33.43
199.00 35.45
200.00 38.11
201.00 41.44
202.00 43.53
203.00 41.28
204.00 37.94
205.00 35.27
206.00 33.23
207.00 31.66
208.00 30.44
209.00 29.49
210.00 28.76
211.00 28.23
212.00 27.86
213.00 27.64
214.00 27.57
215.00 27.65
216.00 27.86
217.00 28.23
218.00 28.76
219.00 29.45
220.00 30.34
221.00 31.43
222.00 32.77
223.00 34.33
224.00 35.99
225.00 37.29
226.00 37.47
227.00 36.34
228.00 34.59
229.00 32.83
230.00 31.27
231.00 29.93
232.00 28.79
233.00 27.82
234.00 27.00
235.00 26.31
236.00 25.73
237.00 25.24
238.00 24.83
239.00 24.50
240.00 24.22
241.00 24.00
242.00 23.82
243.00 23.68
244.00 23.56
245.00 23.47
246.00 23.39
247.00 23.32
248.00 23.24
249.00 23.16
250.00 23.06
251.00 22.95
252.00 22.81
253.00 22.66
254.00 22.48
255.00 22.29
256.00 22.08
257.00 21.86
258.00 21.62
259.00 21.38
260.00 21.12
261.00 20.87
262.00 20.60
263.00 20.33
264.00 20.06
265.00 19.78
266.00 19.49
267.00 19.20
268.00 18.89
269.00 18.58
270.00 18.27
271.00 17.94
272.00 17.61
273.00 17.27
274.00 16.93
275.00 16.58
276.00 16.24
277.00 15.89
278.00 15.55
279.00 15.21
280.00 14.87
281.00 14.54
282.00 14.21
283.00 13.89
284.00 13.58
285.00 13.27
286.00 12.96
287.00 12.66
288.00 12.37
289.00 12.08
290.00 11.79
291.00 11.51
292.00 11.23
293.00 10.95
294.00 10.68
295.00 10.40
296.00 10.13
297.00 9.87
298.00 9.61
299.00 9.35
300.00 9.09
301.00 8.84
302.00 8.59
303.00 8.35
304.00 8.11
305.00 7.88
306.00 7.65
307.00 7.43
308.00 7.21
309.00 7.00
310.00 6.79
311.00 6.58
312.00 6.38
313.00 6.18
314.00 5.98
315.00 5.78
316.00 5.59
317.00 5.39
318.00 5.20
319.00 5.00
320.00 4.81
321.00 4.61
322.00 4.42
323.00 4.22
324.00 4.03
325.00 3.84
326.00 3.65
327.00 3.47
328.00 3.29
329.00 3.11
330.00 2.94
331.00 2.77
332.00 2.61
333.00 2.45
334.00 2.30
335.00 2.15
336.00 2.01
337.00 1.87
338.00 1.74
339.00 1.62
340.00 1.50
341.00 1.38
342.00 1.27
343.00 1.16
344.00 1.05
345.00 0.95
346.00 0.86
347.00 0.76
348.00 0.68
349.00 0.59
350.00 0.51
351.00 0.44
352.00 0.37
353.00 0.30
354.00 0.25
355.00 0.19
356.00 0.15
357.00 0.11
358.00 0.07
359.00 0.04
VERTICAL 360
0.00 0.76
1.00 0.08
2.00 0.09
3.00 0.78
4.00 2.28
5.00 4.84
6.00 9.11
7.00 17.46
8.00 24.44
9.00 14.77
10.00 12.34
11.00 12.52
12.00 14.61
13.00 18.37
14.00 20.31
15.00 17.59
16.00 15.54
17.00 15.14
18.00 16.23
19.00 18.51
20.00 20.22
21.00 19.07
22.00 17.34
23.00 16.59
24.00 16.93
25.00 18.38
26.00 21.24
27.00 26.71
28.00 33.11
29.00 25.63
30.00 21.65
31.00 19.96
32.00 19.58
33.00 19.99
34.00 20.84
35.00 21.78
36.00 22.40
37.00 22.22
38.00 21.31
39.00 20.23
40.00 19.37
41.00 18.75
42.00 18.23
43.00 17.78
44.00 17.51
45.00 17.61
46.00 18.20
47.00 19.36
48.00 21.14
49.00 23.65
50.00 27.14
51.00 32.32
52.00 40.85
53.00 37.12
54.00 31.18
55.00 27.86
56.00 25.88
57.00 24.82
58.00 24.46
59.00 24.60
60.00 25.05
61.00 25.62
62.00 26.21
63.00 26.86
64.00 27.70
65.00 28.83
66.00 30.26
67.00 31.90
68.00 33.61
69.00 35.25
70.00 36.74
71.00 38.14
72.00 39.62
73.00 40.92
74.00 41.22
75.00 40.65
76.00 40.05
77.00 39.80
78.00 40.02
79.00 40.72
80.00 41.67
81.00 42.19
82.00 41.44
83.00 40.10
84.00 39.69
85.00 41.34
86.00 46.25
87.00 46.72
88.00 41.52
89.00 39.94
90.00 41.09
91.00 42.67
92.00 40.88
93.00 39.09
94.00 39.36
95.00 41.90
96.00 46.24
97.00 47.53
98.00 45.60
99.00 44.69
100.00 44.65
101.00 45.19
102.00 46.43
103.00 48.40
104.00 50.56
105.00 52.61
106.00 55.63
107.00 59.23
108.00 54.43
109.00 49.36
110.00 46.19
111.00 44.14
112.00 42.85
113.00 42.23
114.00 42.43
115.00 43.54
116.00 45.16
117.00 45.33
118.00 43.17
119.00 40.88
120.00 39.44
121.00 38.88
122.00 38.93
123.00 39.08
124.00 39.10
125.00 39.59
126.00 41.55
127.00 46.43
128.00 54.62
129.00 47.29
130.00 43.84
131.00 42.99
132.00 42.96
133.00 42.62
134.00 41.82
135.00 41.02
136.00 40.62
137.00 40.83
138.00 41.52
139.00 41.93
140.00 41.01
141.00 38.67
142.00 36.22
143.00 34.60
144.00 34.05
145.00 34.39
146.00 35.08
147.00 35.75
148.00 36.96
149.00 39.88
150.00 45.44
151.00 45.54
152.00 41.51
153.00 39.78
154.00 38.88
155.00 38.18
156.00 38.34
157.00 39.77
158.00 40.49
159.00 38.19
160.00 35.90
161.00 34.82
162.00 34.50
163.00 34.34
164.00 34.19
165.00 34.41
166.00 35.33
167.00 37.03
168.00 39.25
169.00 41.10
170.00 41.45
171.00 40.25
172.00 38.36
173.00 36.54
174.00 35.12
175.00 34.13
176.00 33.38
177.00 32.76
178.00 32.30
179.00 32.15
180.00 32.62
181.00 34.11
182.00 36.94
183.00 41.51
184.00 48.92
185.00 53.10
186.00 44.61
187.00 41.08
188.00 40.76
189.00 41.76
190.00 38.40
191.00 34.32
192.00 32.29
193.00 32.18
194.00 33.76
195.00 36.83
196.00 40.81
197.00 45.07
198.00 51.99
199.00 54.82
200.00 45.64
201.00 42.18
202.00 41.64
203.00 44.41
204.00 49.97
205.00 41.70
206.00 36.86
207.00 35.08
208.00 35.41
209.00 37.22
210.00 38.76
211.00 38.39
212.00 37.82
213.00 37.50
214.00 36.02
215.00 33.64
216.00 31.73
217.00 30.73
218.00 30.64
219.00 31.39
220.00 32.78
221.00 34.22
222.00 34.80
223.00 34.68
224.00 34.98
225.00 36.48
226.00 39.51
227.00 42.14
228.00 39.26
229.00 35.99
230.00 34.31
231.00 34.02
232.00 34.97
233.00 37.14
234.00 40.56
235.00 44.76
236.00 46.31
237.00 44.66
238.00 43.31
239.00 42.75
240.00 42.94
241.00 44.26
242.00 47.38
243.00 53.36
244.00 59.99
245.00 55.90
246.00 50.68
247.00 46.05
248.00 43.06
249.00 41.62
250.00 41.41
251.00 42.08
252.00 43.18
253.00 44.24
254.00 45.27
255.00 46.96
256.00 49.96
257.00 52.23
258.00 49.56
259.00 46.87
260.00 45.86
261.00 46.40
262.00 47.80
263.00 46.93
264.00 43.41
265.00 40.36
266.00 38.34
267.00 37.09
268.00 36.18
269.00 35.16
270.00 33.96
271.00 32.88
272.00 32.20
273.00 31.98
274.00 32.03
275.00 31.99
276.00 31.59
277.00 30.82
278.00 29.92
279.00 29.16
280.00 28.70
281.00 28.56
282.00 28.71
283.00 29.14
284.00 29.88
285.00 31.09
286.00 33.00
287.00 35.84
288.00 37.88
289.00 34.97
290.00 31.07
291.00 28.18
292.00 26.17
293.00 24.83
294.00 23.98
295.00 23.44
296.00 23.01
297.00 22.56
298.00 22.12
299.00 21.89
300.00 22.09
301.00 22.90
302.00 24.37
303.00 26.35
304.00 28.26
305.00 29.12
306.00 28.45
307.00 26.72
308.00 24.69
309.00 22.97
310.00 21.82
311.00 21.26
312.00 21.14
313.00 21.25
314.00 21.41
315.00 21.61
316.00 21.95
317.00 22.44
318.00 22.89
319.00 22.87
320.00 22.21
321.00 21.24
322.00 20.33
323.00 19.70
324.00 19.44
325.00 19.63
326.00 20.36
327.00 21.81
328.00 24.05
329.00 26.31
330.00 25.78
331.00 23.23
332.00 21.26
333.00 20.45
334.00 20.95
335.00 23.23
336.00 28.24
337.00 28.44
338.00 22.13
339.00 18.64
340.00 17.08
341.00 17.02
342.00 18.49
343.00 22.11
344.00 30.26
345.00 28.25
346.00 21.91
347.00 19.56
348.00 19.48
349.00 21.51
350.00 26.46
351.00 34.33
352.00 30.45
353.00 31.85
354.00 33.65
355.00 18.97
356.00 12.02
357.00 7.48
358.00 4.31
359.00 2.13
