NAME ATR4518R7_2535_X_CO_M45_03T_yyR
FREQUENCY 2535
GAIN 15.86 dBd
TILT	ELECTRICAL
COMMENT DATE 05.08.2013 -45 degrees polarized system Lever position 03T deg
HORIZONTAL 360
0.00 0.00
1.00 0.00
2.00 0.01
3.00 0.04
4.00 0.07
5.00 0.11
6.00 0.17
7.00 0.24
8.00 0.31
9.00 0.41
10.00 0.51
11.00 0.62
12.00 0.74
13.00 0.87
14.00 1.01
15.00 1.16
16.00 1.31
17.00 1.47
18.00 1.64
19.00 1.81
20.00 1.98
21.00 2.16
22.00 2.33
23.00 2.52
24.00 2.70
25.00 2.89
26.00 3.08
27.00 3.28
28.00 3.48
29.00 3.69
30.00 3.91
31.00 4.14
32.00 4.38
33.00 4.62
34.00 4.88
35.00 5.15
36.00 5.44
37.00 5.74
38.00 6.06
39.00 6.39
40.00 6.74
41.00 7.11
42.00 7.49
43.00 7.89
44.00 8.31
45.00 8.75
46.00 9.21
47.00 9.69
48.00 10.18
49.00 10.70
50.00 11.24
51.00 11.80
52.00 12.38
53.00 12.99
54.00 13.62
55.00 14.28
56.00 14.96
57.00 15.67
58.00 16.41
59.00 17.17
60.00 17.95
61.00 18.76
62.00 19.58
63.00 20.42
64.00 21.25
65.00 22.07
66.00 22.87
67.00 23.62
68.00 24.32
69.00 24.96
70.00 25.53
71.00 26.03
72.00 26.47
73.00 26.87
74.00 27.25
75.00 27.62
76.00 28.00
77.00 28.40
78.00 28.84
79.00 29.33
80.00 29.86
81.00 30.44
82.00 31.05
83.00 31.67
84.00 32.28
85.00 32.82
86.00 33.24
87.00 33.50
88.00 33.58
89.00 33.49
90.00 33.27
91.00 32.98
92.00 32.69
93.00 32.41
94.00 32.20
95.00 32.06
96.00 32.01
97.00 32.06
98.00 32.21
99.00 32.46
100.00 32.82
101.00 33.26
102.00 33.77
103.00 34.32
104.00 34.86
105.00 35.33
106.00 35.63
107.00 35.73
108.00 35.60
109.00 35.30
110.00 34.89
111.00 34.45
112.00 34.04
113.00 33.71
114.00 33.48
115.00 33.38
116.00 33.42
117.00 33.60
118.00 33.95
119.00 34.48
120.00 35.22
121.00 36.18
122.00 37.42
123.00 38.94
124.00 40.72
125.00 42.47
126.00 43.39
127.00 42.70
128.00 40.99
129.00 39.15
130.00 37.57
131.00 36.27
132.00 35.26
133.00 34.49
134.00 33.95
135.00 33.62
136.00 33.48
137.00 33.54
138.00 33.78
139.00 34.24
140.00 34.93
141.00 35.87
142.00 37.11
143.00 38.70
144.00 40.61
145.00 42.62
146.00 43.77
147.00 42.97
148.00 41.00
149.00 38.99
150.00 37.28
151.00 35.93
152.00 34.88
153.00 34.09
154.00 33.53
155.00 33.17
156.00 33.00
157.00 32.99
158.00 33.14
159.00 33.43
160.00 33.84
161.00 34.32
162.00 34.83
163.00 35.26
164.00 35.52
165.00 35.52
166.00 35.25
167.00 34.78
168.00 34.19
169.00 33.60
170.00 33.06
171.00 32.61
172.00 32.29
173.00 32.11
174.00 32.08
175.00 32.21
176.00 32.51
177.00 32.99
178.00 33.67
179.00 34.58
180.00 35.78
181.00 37.31
182.00 39.33
183.00 42.03
184.00 45.96
185.00 52.29
186.00 55.83
187.00 49.03
188.00 45.04
189.00 42.66
190.00 41.17
191.00 40.28
192.00 39.85
193.00 39.84
194.00 40.22
195.00 41.03
196.00 42.35
197.00 44.31
198.00 47.14
199.00 50.59
200.00 50.86
201.00 47.11
202.00 43.70
203.00 41.16
204.00 39.27
205.00 37.84
206.00 36.76
207.00 35.97
208.00 35.42
209.00 35.07
210.00 34.91
211.00 34.89
212.00 35.00
213.00 35.19
214.00 35.40
215.00 35.56
216.00 35.56
217.00 35.34
218.00 34.88
219.00 34.22
220.00 33.44
221.00 32.62
222.00 31.82
223.00 31.08
224.00 30.42
225.00 29.85
226.00 29.37
227.00 28.98
228.00 28.69
229.00 28.47
230.00 28.34
231.00 28.28
232.00 28.30
233.00 28.38
234.00 28.51
235.00 28.70
236.00 28.93
237.00 29.20
238.00 29.51
239.00 29.84
240.00 30.19
241.00 30.55
242.00 30.94
243.00 31.33
244.00 31.74
245.00 32.18
246.00 32.65
247.00 33.15
248.00 33.71
249.00 34.33
250.00 35.01
251.00 35.78
252.00 36.63
253.00 37.56
254.00 38.53
255.00 39.50
256.00 40.33
257.00 40.83
258.00 40.86
259.00 40.39
260.00 39.55
261.00 38.54
262.00 37.47
263.00 36.43
264.00 35.44
265.00 34.52
266.00 33.66
267.00 32.86
268.00 32.11
269.00 31.40
270.00 30.72
271.00 30.07
272.00 29.44
273.00 28.84
274.00 28.24
275.00 27.66
276.00 27.08
277.00 26.51
278.00 25.94
279.00 25.37
280.00 24.79
281.00 24.22
282.00 23.64
283.00 23.05
284.00 22.47
285.00 21.87
286.00 21.28
287.00 20.69
288.00 20.09
289.00 19.50
290.00 18.92
291.00 18.34
292.00 17.76
293.00 17.20
294.00 16.64
295.00 16.09
296.00 15.56
297.00 15.03
298.00 14.52
299.00 14.01
300.00 13.52
301.00 13.04
302.00 12.56
303.00 12.10
304.00 11.65
305.00 11.20
306.00 10.76
307.00 10.33
308.00 9.91
309.00 9.49
310.00 9.08
311.00 8.68
312.00 8.28
313.00 7.89
314.00 7.50
315.00 7.13
316.00 6.76
317.00 6.40
318.00 6.04
319.00 5.69
320.00 5.36
321.00 5.03
322.00 4.71
323.00 4.41
324.00 4.11
325.00 3.83
326.00 3.55
327.00 3.30
328.00 3.05
329.00 2.82
330.00 2.60
331.00 2.39
332.00 2.20
333.00 2.01
334.00 1.85
335.00 1.69
336.00 1.54
337.00 1.41
338.00 1.29
339.00 1.17
340.00 1.07
341.00 0.97
342.00 0.88
343.00 0.80
344.00 0.72
345.00 0.65
346.00 0.58
347.00 0.52
348.00 0.46
349.00 0.40
350.00 0.34
351.00 0.29
352.00 0.24
353.00 0.19
354.00 0.15
355.00 0.11
356.00 0.07
357.00 0.04
358.00 0.02
359.00 0.01
VERTICAL 360
0.00 5.78
1.00 2.68
2.00 0.77
3.00 0.00
4.00 0.41
5.00 2.19
6.00 5.91
7.00 13.66
8.00 21.59
9.00 12.92
10.00 11.06
11.00 12.58
12.00 16.16
13.00 16.56
14.00 14.17
15.00 13.98
16.00 16.92
17.00 26.04
18.00 24.54
19.00 17.53
20.00 16.17
21.00 18.60
22.00 26.76
23.00 22.86
24.00 16.59
25.00 14.58
26.00 14.64
27.00 16.01
28.00 18.18
29.00 20.69
30.00 22.79
31.00 23.00
32.00 21.01
33.00 18.67
34.00 17.16
35.00 16.86
36.00 18.05
37.00 21.38
38.00 30.31
39.00 35.28
40.00 24.16
41.00 21.47
42.00 21.54
43.00 23.89
44.00 30.10
45.00 44.89
46.00 27.89
47.00 23.57
48.00 22.76
49.00 24.58
50.00 29.79
51.00 38.49
52.00 31.43
53.00 26.58
54.00 24.66
55.00 24.74
56.00 27.21
57.00 33.44
58.00 37.38
59.00 32.44
60.00 31.23
61.00 32.52
62.00 35.60
63.00 39.13
64.00 38.67
65.00 35.52
66.00 32.61
67.00 30.31
68.00 28.58
69.00 27.51
70.00 27.17
71.00 27.36
72.00 27.71
73.00 27.97
74.00 28.10
75.00 28.50
76.00 29.54
77.00 31.35
78.00 34.32
79.00 39.48
80.00 46.23
81.00 47.02
82.00 39.89
83.00 34.19
84.00 30.70
85.00 28.16
86.00 26.92
87.00 28.06
88.00 32.55
89.00 36.46
90.00 33.58
91.00 30.49
92.00 27.44
93.00 26.48
94.00 28.80
95.00 36.00
96.00 48.22
97.00 44.21
98.00 39.81
99.00 36.76
100.00 37.83
101.00 41.33
102.00 42.74
103.00 40.00
104.00 36.59
105.00 36.45
106.00 40.63
107.00 50.51
108.00 54.72
109.00 46.23
110.00 41.67
111.00 41.56
112.00 42.82
113.00 42.67
114.00 43.15
115.00 44.28
116.00 47.34
117.00 46.38
118.00 39.89
119.00 37.77
120.00 38.62
121.00 40.41
122.00 41.59
123.00 43.70
124.00 50.81
125.00 56.62
126.00 45.14
127.00 43.65
128.00 45.10
129.00 45.06
130.00 46.45
131.00 50.75
132.00 43.72
133.00 40.10
134.00 40.49
135.00 43.41
136.00 46.55
137.00 46.76
138.00 45.35
139.00 45.35
140.00 47.42
141.00 48.35
142.00 46.93
143.00 46.31
144.00 46.32
145.00 47.37
146.00 45.91
147.00 40.08
148.00 36.25
149.00 34.76
150.00 35.31
151.00 37.87
152.00 40.86
153.00 40.38
154.00 40.18
155.00 43.89
156.00 50.75
157.00 49.22
158.00 51.95
159.00 52.39
160.00 44.56
161.00 42.25
162.00 43.29
163.00 46.23
164.00 45.08
165.00 42.12
166.00 40.89
167.00 39.98
168.00 39.39
169.00 39.97
170.00 40.75
171.00 41.20
172.00 43.48
173.00 44.59
174.00 40.29
175.00 37.89
176.00 36.83
177.00 35.25
178.00 34.17
179.00 35.22
180.00 39.49
181.00 48.74
182.00 58.20
183.00 50.16
184.00 43.85
185.00 41.20
186.00 38.81
187.00 37.01
188.00 37.89
189.00 39.52
190.00 36.56
191.00 34.68
192.00 36.24
193.00 41.81
194.00 50.46
195.00 47.46
196.00 41.82
197.00 37.65
198.00 35.88
199.00 36.65
200.00 39.30
201.00 39.88
202.00 37.99
203.00 36.69
204.00 35.05
205.00 33.05
206.00 31.99
207.00 32.49
208.00 34.46
209.00 36.61
210.00 36.25
211.00 34.12
212.00 32.68
213.00 32.28
214.00 32.38
215.00 33.00
216.00 34.44
217.00 35.64
218.00 35.97
219.00 36.74
220.00 37.58
221.00 37.08
222.00 35.74
223.00 35.16
224.00 36.68
225.00 40.09
226.00 40.83
227.00 40.06
228.00 41.40
229.00 42.29
230.00 41.65
231.00 43.16
232.00 50.92
233.00 56.85
234.00 52.17
235.00 50.10
236.00 40.28
237.00 36.18
238.00 35.01
239.00 35.41
240.00 36.58
241.00 37.85
242.00 38.04
243.00 36.47
244.00 34.64
245.00 34.15
246.00 35.31
247.00 37.11
248.00 37.91
249.00 37.25
250.00 35.83
251.00 34.95
252.00 34.91
253.00 34.97
254.00 34.40
255.00 33.52
256.00 33.09
257.00 33.12
258.00 33.04
259.00 32.86
260.00 32.87
261.00 32.86
262.00 32.59
263.00 32.71
264.00 34.69
265.00 41.91
266.00 45.03
267.00 34.31
268.00 30.81
269.00 30.23
270.00 31.82
271.00 35.03
272.00 38.79
273.00 36.21
274.00 30.89
275.00 28.29
276.00 27.66
277.00 28.04
278.00 28.91
279.00 29.84
280.00 29.98
281.00 29.44
282.00 28.86
283.00 28.53
284.00 28.94
285.00 30.43
286.00 33.05
287.00 37.00
288.00 41.08
289.00 36.45
290.00 30.62
291.00 26.93
292.00 24.48
293.00 22.59
294.00 20.88
295.00 19.29
296.00 18.03
297.00 17.29
298.00 17.16
299.00 17.63
300.00 18.58
301.00 19.98
302.00 21.96
303.00 25.06
304.00 30.14
305.00 32.02
306.00 26.66
307.00 23.07
308.00 21.10
309.00 20.08
310.00 19.88
311.00 20.74
312.00 23.09
313.00 25.97
314.00 25.11
315.00 22.98
316.00 23.13
317.00 26.70
318.00 33.90
319.00 27.20
320.00 21.89
321.00 19.81
322.00 19.62
323.00 21.19
324.00 25.32
325.00 32.16
326.00 25.92
327.00 20.55
328.00 18.58
329.00 19.00
330.00 21.87
331.00 28.32
332.00 33.69
333.00 27.75
334.00 25.44
335.00 26.55
336.00 31.97
337.00 30.16
338.00 23.62
339.00 21.55
340.00 22.80
341.00 27.34
342.00 27.33
343.00 22.20
344.00 20.10
345.00 20.84
346.00 25.37
347.00 33.73
348.00 25.62
349.00 21.88
350.00 22.09
351.00 26.26
352.00 37.55
353.00 26.39
354.00 20.54
355.00 18.32
356.00 18.06
357.00 18.44
358.00 15.57
359.00 10.21
