NAME ATR4518R7_2350_X_CO_M45_02T_yyR
FREQUENCY 2350
GAIN 15.54 dBd
TILT	ELECTRICAL
COMMENT DATE 05.08.2013 -45 degrees polarized system Lever position 02T deg
HORIZONTAL 360
0.00 0.02
1.00 0.00
2.00 0.00
3.00 0.01
4.00 0.02
5.00 0.05
6.00 0.08
7.00 0.12
8.00 0.16
9.00 0.22
10.00 0.28
11.00 0.34
12.00 0.42
13.00 0.50
14.00 0.58
15.00 0.67
16.00 0.77
17.00 0.87
18.00 0.98
19.00 1.09
20.00 1.20
21.00 1.33
22.00 1.46
23.00 1.59
24.00 1.73
25.00 1.89
26.00 2.05
27.00 2.21
28.00 2.39
29.00 2.59
30.00 2.79
31.00 3.00
32.00 3.23
33.00 3.47
34.00 3.73
35.00 4.00
36.00 4.28
37.00 4.58
38.00 4.90
39.00 5.23
40.00 5.57
41.00 5.93
42.00 6.30
43.00 6.69
44.00 7.09
45.00 7.50
46.00 7.92
47.00 8.35
48.00 8.79
49.00 9.24
50.00 9.69
51.00 10.15
52.00 10.62
53.00 11.09
54.00 11.55
55.00 12.02
56.00 12.50
57.00 12.97
58.00 13.44
59.00 13.91
60.00 14.39
61.00 14.87
62.00 15.35
63.00 15.85
64.00 16.34
65.00 16.85
66.00 17.37
67.00 17.90
68.00 18.44
69.00 18.99
70.00 19.56
71.00 20.14
72.00 20.73
73.00 21.34
74.00 21.95
75.00 22.57
76.00 23.19
77.00 23.81
78.00 24.42
79.00 25.01
80.00 25.57
81.00 26.11
82.00 26.60
83.00 27.05
84.00 27.46
85.00 27.81
86.00 28.13
87.00 28.41
88.00 28.66
89.00 28.88
90.00 29.08
91.00 29.28
92.00 29.46
93.00 29.63
94.00 29.80
95.00 29.95
96.00 30.09
97.00 30.21
98.00 30.29
99.00 30.33
100.00 30.32
101.00 30.27
102.00 30.17
103.00 30.04
104.00 29.87
105.00 29.68
106.00 29.49
107.00 29.30
108.00 29.12
109.00 28.97
110.00 28.85
111.00 28.77
112.00 28.74
113.00 28.75
114.00 28.82
115.00 28.94
116.00 29.12
117.00 29.36
118.00 29.65
119.00 30.01
120.00 30.42
121.00 30.90
122.00 31.43
123.00 32.01
124.00 32.65
125.00 33.34
126.00 34.06
127.00 34.82
128.00 35.61
129.00 36.43
130.00 37.28
131.00 38.17
132.00 39.12
133.00 40.15
134.00 41.33
135.00 42.71
136.00 44.42
137.00 46.61
138.00 49.47
139.00 52.70
140.00 53.03
141.00 49.59
142.00 46.18
143.00 43.50
144.00 41.39
145.00 39.70
146.00 38.32
147.00 37.19
148.00 36.26
149.00 35.50
150.00 34.90
151.00 34.43
152.00 34.10
153.00 33.90
154.00 33.82
155.00 33.88
156.00 34.05
157.00 34.36
158.00 34.83
159.00 35.45
160.00 36.27
161.00 37.31
162.00 38.63
163.00 40.32
164.00 42.49
165.00 45.31
166.00 48.52
167.00 49.48
168.00 46.74
169.00 43.63
170.00 41.17
171.00 39.26
172.00 37.77
173.00 36.58
174.00 35.64
175.00 34.89
176.00 34.30
177.00 33.86
178.00 33.54
179.00 33.34
180.00 33.25
181.00 33.25
182.00 33.35
183.00 33.53
184.00 33.80
185.00 34.13
186.00 34.54
187.00 34.99
188.00 35.49
189.00 36.00
190.00 36.49
191.00 36.95
192.00 37.32
193.00 37.59
194.00 37.75
195.00 37.81
196.00 37.80
197.00 37.75
198.00 37.70
199.00 37.67
200.00 37.70
201.00 37.82
202.00 38.04
203.00 38.38
204.00 38.86
205.00 39.51
206.00 40.36
207.00 41.45
208.00 42.86
209.00 44.70
210.00 47.16
211.00 50.55
212.00 54.75
213.00 54.95
214.00 50.79
215.00 47.36
216.00 44.89
217.00 43.05
218.00 41.66
219.00 40.60
220.00 39.80
221.00 39.22
222.00 38.83
223.00 38.62
224.00 38.58
225.00 38.70
226.00 38.99
227.00 39.45
228.00 40.09
229.00 40.89
230.00 41.87
231.00 42.91
232.00 43.82
233.00 44.20
234.00 43.74
235.00 42.53
236.00 41.00
237.00 39.44
238.00 37.97
239.00 36.65
240.00 35.49
241.00 34.46
242.00 33.54
243.00 32.74
244.00 32.04
245.00 31.42
246.00 30.88
247.00 30.41
248.00 30.01
249.00 29.66
250.00 29.37
251.00 29.13
252.00 28.93
253.00 28.77
254.00 28.65
255.00 28.55
256.00 28.47
257.00 28.40
258.00 28.32
259.00 28.24
260.00 28.13
261.00 27.99
262.00 27.80
263.00 27.56
264.00 27.25
265.00 26.89
266.00 26.47
267.00 26.01
268.00 25.51
269.00 24.99
270.00 24.45
271.00 23.90
272.00 23.35
273.00 22.81
274.00 22.28
275.00 21.75
276.00 21.25
277.00 20.76
278.00 20.28
279.00 19.82
280.00 19.37
281.00 18.93
282.00 18.50
283.00 18.09
284.00 17.68
285.00 17.28
286.00 16.89
287.00 16.50
288.00 16.11
289.00 15.72
290.00 15.34
291.00 14.95
292.00 14.56
293.00 14.17
294.00 13.77
295.00 13.38
296.00 12.98
297.00 12.58
298.00 12.18
299.00 11.78
300.00 11.38
301.00 10.97
302.00 10.57
303.00 10.17
304.00 9.78
305.00 9.38
306.00 8.99
307.00 8.61
308.00 8.23
309.00 7.86
310.00 7.49
311.00 7.14
312.00 6.79
313.00 6.45
314.00 6.13
315.00 5.81
316.00 5.51
317.00 5.21
318.00 4.93
319.00 4.66
320.00 4.40
321.00 4.15
322.00 3.92
323.00 3.69
324.00 3.48
325.00 3.28
326.00 3.09
327.00 2.92
328.00 2.75
329.00 2.59
330.00 2.44
331.00 2.31
332.00 2.18
333.00 2.05
334.00 1.94
335.00 1.83
336.00 1.72
337.00 1.62
338.00 1.53
339.00 1.43
340.00 1.34
341.00 1.25
342.00 1.17
343.00 1.08
344.00 1.00
345.00 0.91
346.00 0.83
347.00 0.75
348.00 0.67
349.00 0.59
350.00 0.51
351.00 0.44
352.00 0.37
353.00 0.30
354.00 0.24
355.00 0.19
356.00 0.14
357.00 0.10
358.00 0.06
359.00 0.03
VERTICAL 360
0.00 2.02
1.00 0.50
2.00 0.00
3.00 0.56
4.00 2.33
5.00 5.83
6.00 12.87
7.00 24.87
8.00 13.82
9.00 10.69
10.00 11.17
11.00 15.01
12.00 24.09
13.00 19.39
14.00 14.31
15.00 13.32
16.00 14.74
17.00 18.09
18.00 21.34
19.00 21.06
20.00 20.58
21.00 22.30
22.00 26.05
23.00 26.54
24.00 21.93
25.00 18.22
26.00 16.18
27.00 15.81
28.00 17.10
29.00 19.83
30.00 22.77
31.00 23.25
32.00 21.20
33.00 19.05
34.00 17.87
35.00 17.70
36.00 18.29
37.00 19.36
38.00 21.11
39.00 24.56
40.00 32.49
41.00 34.35
42.00 27.43
43.00 25.76
44.00 26.62
45.00 29.26
46.00 33.27
47.00 35.57
48.00 32.13
49.00 28.45
50.00 26.31
51.00 25.55
52.00 26.15
53.00 28.34
54.00 32.78
55.00 39.18
56.00 37.34
57.00 33.27
58.00 31.31
59.00 30.50
60.00 30.45
61.00 31.06
62.00 32.07
63.00 33.09
64.00 34.11
65.00 34.75
66.00 34.19
67.00 33.03
68.00 32.12
69.00 31.58
70.00 31.23
71.00 31.01
72.00 31.09
73.00 31.46
74.00 31.60
75.00 31.22
76.00 30.45
77.00 29.48
78.00 28.54
79.00 27.82
80.00 27.47
81.00 27.44
82.00 27.57
83.00 27.95
84.00 28.44
85.00 28.52
86.00 28.34
87.00 28.18
88.00 27.99
89.00 28.37
90.00 29.86
91.00 31.49
92.00 32.06
93.00 32.47
94.00 32.55
95.00 32.18
96.00 32.69
97.00 34.16
98.00 35.53
99.00 36.22
100.00 36.02
101.00 35.66
102.00 36.36
103.00 37.68
104.00 38.40
105.00 39.13
106.00 41.03
107.00 44.05
108.00 46.70
109.00 46.39
110.00 44.67
111.00 44.02
112.00 44.81
113.00 46.60
114.00 47.99
115.00 47.30
116.00 45.74
117.00 45.67
118.00 48.09
119.00 49.16
120.00 45.16
121.00 42.47
122.00 41.11
123.00 39.75
124.00 38.77
125.00 39.35
126.00 42.43
127.00 49.01
128.00 52.96
129.00 47.70
130.00 43.08
131.00 40.13
132.00 38.95
133.00 39.13
134.00 40.15
135.00 41.50
136.00 42.58
137.00 42.61
138.00 42.55
139.00 44.68
140.00 46.69
141.00 41.45
142.00 38.01
143.00 37.41
144.00 38.58
145.00 40.06
146.00 40.79
147.00 42.02
148.00 47.37
149.00 52.98
150.00 42.13
151.00 39.49
152.00 40.54
153.00 43.64
154.00 47.84
155.00 58.96
156.00 53.77
157.00 45.69
158.00 40.53
159.00 37.29
160.00 36.62
161.00 38.36
162.00 41.21
163.00 42.31
164.00 41.37
165.00 40.16
166.00 40.08
167.00 41.28
168.00 42.22
169.00 41.37
170.00 39.48
171.00 38.24
172.00 38.72
173.00 41.29
174.00 43.41
175.00 40.01
176.00 36.31
177.00 34.23
178.00 33.35
179.00 33.26
180.00 33.61
181.00 34.17
182.00 35.32
183.00 37.86
184.00 41.36
185.00 42.89
186.00 43.70
187.00 46.27
188.00 49.55
189.00 49.41
190.00 43.39
191.00 38.98
192.00 37.17
193.00 37.38
194.00 38.80
195.00 39.63
196.00 38.19
197.00 36.34
198.00 36.44
199.00 40.46
200.00 49.96
201.00 41.61
202.00 37.73
203.00 36.95
204.00 36.46
205.00 34.76
206.00 32.70
207.00 32.11
208.00 34.14
209.00 40.31
210.00 45.29
211.00 38.90
212.00 35.83
213.00 34.68
214.00 34.80
215.00 35.31
216.00 35.47
217.00 36.18
218.00 38.34
219.00 41.79
220.00 43.60
221.00 41.95
222.00 40.81
223.00 41.33
224.00 43.14
225.00 46.24
226.00 48.51
227.00 45.30
228.00 42.44
229.00 40.89
230.00 39.22
231.00 37.80
232.00 37.66
233.00 39.17
234.00 42.16
235.00 45.02
236.00 45.44
237.00 44.27
238.00 42.25
239.00 39.21
240.00 36.11
241.00 34.04
242.00 33.65
243.00 35.48
244.00 40.54
245.00 46.26
246.00 42.27
247.00 39.81
248.00 38.86
249.00 38.00
250.00 37.23
251.00 36.98
252.00 36.93
253.00 35.89
254.00 34.35
255.00 33.68
256.00 34.04
257.00 34.63
258.00 34.55
259.00 33.81
260.00 32.84
261.00 31.64
262.00 30.18
263.00 28.76
264.00 27.54
265.00 26.41
266.00 25.24
267.00 24.10
268.00 23.13
269.00 22.45
270.00 22.10
271.00 22.06
272.00 22.12
273.00 22.06
274.00 21.84
275.00 21.58
276.00 21.44
277.00 21.57
278.00 22.00
279.00 22.63
280.00 23.25
281.00 23.66
282.00 23.80
283.00 23.77
284.00 23.71
285.00 23.75
286.00 24.01
287.00 24.53
288.00 25.20
289.00 25.88
290.00 26.61
291.00 27.72
292.00 29.75
293.00 33.72
294.00 41.97
295.00 38.38
296.00 31.28
297.00 27.98
298.00 26.47
299.00 26.02
300.00 25.98
301.00 25.84
302.00 25.84
303.00 26.64
304.00 28.34
305.00 29.64
306.00 29.52
307.00 29.47
308.00 29.82
309.00 28.82
310.00 27.10
311.00 27.00
312.00 29.77
313.00 32.57
314.00 28.10
315.00 24.77
316.00 23.70
317.00 23.92
318.00 25.11
319.00 28.14
320.00 36.57
321.00 32.92
322.00 25.13
323.00 21.78
324.00 20.21
325.00 19.61
326.00 19.51
327.00 19.36
328.00 19.00
329.00 19.03
330.00 19.86
331.00 21.14
332.00 21.94
333.00 22.01
334.00 21.89
335.00 21.91
336.00 22.40
337.00 24.20
338.00 29.72
339.00 41.22
340.00 27.44
341.00 23.72
342.00 23.80
343.00 27.01
344.00 31.53
345.00 29.25
346.00 27.09
347.00 28.18
348.00 30.19
349.00 27.97
350.00 25.50
351.00 25.40
352.00 26.59
353.00 25.59
354.00 23.84
355.00 25.99
356.00 26.48
357.00 15.31
358.00 8.78
359.00 4.67
