NAME ATR4518R7_0832_X_CO_M45_07T
FREQUENCY 0832
GAIN 14.76 dBd
TILT	ELECTRICAL
COMMENT DATE 05.08.2013 -45 degrees polarized system Lever position 07T deg
HORIZONTAL 360
0.00 0.00
1.00 0.00
2.00 0.02
3.00 0.04
4.00 0.06
5.00 0.09
6.00 0.13
7.00 0.17
8.00 0.22
9.00 0.28
10.00 0.34
11.00 0.41
12.00 0.48
13.00 0.56
14.00 0.65
15.00 0.74
16.00 0.84
17.00 0.94
18.00 1.05
19.00 1.17
20.00 1.29
21.00 1.42
22.00 1.55
23.00 1.69
24.00 1.84
25.00 1.99
26.00 2.15
27.00 2.31
28.00 2.48
29.00 2.66
30.00 2.84
31.00 3.03
32.00 3.23
33.00 3.43
34.00 3.64
35.00 3.85
36.00 4.07
37.00 4.30
38.00 4.53
39.00 4.77
40.00 5.01
41.00 5.26
42.00 5.51
43.00 5.77
44.00 6.04
45.00 6.31
46.00 6.59
47.00 6.87
48.00 7.16
49.00 7.46
50.00 7.76
51.00 8.07
52.00 8.38
53.00 8.70
54.00 9.02
55.00 9.35
56.00 9.69
57.00 10.03
58.00 10.37
59.00 10.73
60.00 11.09
61.00 11.45
62.00 11.81
63.00 12.18
64.00 12.56
65.00 12.95
66.00 13.33
67.00 13.73
68.00 14.12
69.00 14.53
70.00 14.94
71.00 15.35
72.00 15.76
73.00 16.19
74.00 16.61
75.00 17.04
76.00 17.47
77.00 17.91
78.00 18.35
79.00 18.79
80.00 19.23
81.00 19.68
82.00 20.12
83.00 20.56
84.00 21.00
85.00 21.44
86.00 21.88
87.00 22.30
88.00 22.73
89.00 23.14
90.00 23.55
91.00 23.94
92.00 24.33
93.00 24.69
94.00 25.05
95.00 25.39
96.00 25.72
97.00 26.04
98.00 26.34
99.00 26.63
100.00 26.90
101.00 27.17
102.00 27.42
103.00 27.68
104.00 27.92
105.00 28.17
106.00 28.41
107.00 28.66
108.00 28.91
109.00 29.18
110.00 29.45
111.00 29.73
112.00 30.03
113.00 30.34
114.00 30.67
115.00 31.02
116.00 31.40
117.00 31.80
118.00 32.22
119.00 32.68
120.00 33.18
121.00 33.71
122.00 34.27
123.00 34.88
124.00 35.55
125.00 36.27
126.00 37.03
127.00 37.88
128.00 38.80
129.00 39.79
130.00 40.88
131.00 42.05
132.00 43.28
133.00 44.57
134.00 45.79
135.00 46.78
136.00 47.33
137.00 47.29
138.00 46.74
139.00 45.90
140.00 44.95
141.00 44.01
142.00 43.14
143.00 42.36
144.00 41.66
145.00 41.04
146.00 40.50
147.00 40.02
148.00 39.61
149.00 39.24
150.00 38.92
151.00 38.64
152.00 38.39
153.00 38.18
154.00 37.99
155.00 37.82
156.00 37.66
157.00 37.52
158.00 37.38
159.00 37.24
160.00 37.10
161.00 36.95
162.00 36.80
163.00 36.64
164.00 36.47
165.00 36.28
166.00 36.08
167.00 35.87
168.00 35.64
169.00 35.41
170.00 35.17
171.00 34.93
172.00 34.68
173.00 34.44
174.00 34.19
175.00 33.95
176.00 33.72
177.00 33.49
178.00 33.28
179.00 33.07
180.00 32.88
181.00 32.70
182.00 32.53
183.00 32.38
184.00 32.25
185.00 32.13
186.00 32.03
187.00 31.95
188.00 31.88
189.00 31.84
190.00 31.81
191.00 31.80
192.00 31.81
193.00 31.84
194.00 31.89
195.00 31.96
196.00 32.05
197.00 32.16
198.00 32.29
199.00 32.45
200.00 32.63
201.00 32.83
202.00 33.06
203.00 33.31
204.00 33.59
205.00 33.89
206.00 34.23
207.00 34.60
208.00 34.99
209.00 35.42
210.00 35.89
211.00 36.40
212.00 36.95
213.00 37.55
214.00 38.20
215.00 38.91
216.00 39.68
217.00 40.51
218.00 41.44
219.00 42.44
220.00 43.53
221.00 44.73
222.00 46.02
223.00 47.34
224.00 48.55
225.00 49.43
226.00 49.67
227.00 49.16
228.00 48.16
229.00 46.90
230.00 45.63
231.00 44.39
232.00 43.23
233.00 42.16
234.00 41.15
235.00 40.20
236.00 39.31
237.00 38.45
238.00 37.64
239.00 36.86
240.00 36.10
241.00 35.36
242.00 34.64
243.00 33.94
244.00 33.25
245.00 32.57
246.00 31.92
247.00 31.27
248.00 30.64
249.00 30.01
250.00 29.40
251.00 28.80
252.00 28.22
253.00 27.65
254.00 27.09
255.00 26.54
256.00 26.00
257.00 25.48
258.00 24.96
259.00 24.46
260.00 23.97
261.00 23.49
262.00 23.02
263.00 22.57
264.00 22.12
265.00 21.68
266.00 21.25
267.00 20.83
268.00 20.41
269.00 20.01
270.00 19.61
271.00 19.22
272.00 18.84
273.00 18.47
274.00 18.10
275.00 17.73
276.00 17.38
277.00 17.02
278.00 16.68
279.00 16.33
280.00 15.99
281.00 15.66
282.00 15.33
283.00 15.00
284.00 14.67
285.00 14.35
286.00 14.03
287.00 13.71
288.00 13.39
289.00 13.08
290.00 12.77
291.00 12.46
292.00 12.15
293.00 11.85
294.00 11.54
295.00 11.24
296.00 10.94
297.00 10.64
298.00 10.34
299.00 10.05
300.00 9.75
301.00 9.46
302.00 9.17
303.00 8.89
304.00 8.60
305.00 8.32
306.00 8.04
307.00 7.76
308.00 7.49
309.00 7.22
310.00 6.96
311.00 6.69
312.00 6.44
313.00 6.18
314.00 5.93
315.00 5.68
316.00 5.44
317.00 5.20
318.00 4.97
319.00 4.74
320.00 4.51
321.00 4.29
322.00 4.08
323.00 3.87
324.00 3.66
325.00 3.46
326.00 3.27
327.00 3.07
328.00 2.89
329.00 2.71
330.00 2.54
331.00 2.37
332.00 2.21
333.00 2.05
334.00 1.90
335.00 1.75
336.00 1.61
337.00 1.48
338.00 1.35
339.00 1.23
340.00 1.11
341.00 1.00
342.00 0.89
343.00 0.79
344.00 0.70
345.00 0.61
346.00 0.53
347.00 0.45
348.00 0.38
349.00 0.32
350.00 0.26
351.00 0.20
352.00 0.16
353.00 0.12
354.00 0.08
355.00 0.05
356.00 0.03
357.00 0.01
358.00 0.00
359.00 0.00
VERTICAL 360
0.00 10.33
1.00 7.19
2.00 4.82
3.00 3.03
4.00 1.71
5.00 0.78
6.00 0.22
7.00 0.00
8.00 0.10
9.00 0.54
10.00 1.32
11.00 2.47
12.00 4.04
13.00 6.12
14.00 8.84
15.00 12.49
16.00 17.74
17.00 27.06
18.00 32.47
19.00 24.51
20.00 22.52
21.00 22.87
22.00 25.10
23.00 29.59
24.00 32.67
25.00 27.42
26.00 23.60
27.00 21.46
28.00 20.44
29.00 20.29
30.00 20.95
31.00 22.52
32.00 25.25
33.00 29.99
34.00 40.87
35.00 39.64
36.00 32.21
37.00 29.86
38.00 29.59
39.00 31.00
40.00 34.59
41.00 41.52
42.00 36.14
43.00 29.88
44.00 26.15
45.00 23.70
46.00 22.05
47.00 21.00
48.00 20.41
49.00 20.23
50.00 20.40
51.00 20.90
52.00 21.69
53.00 22.75
54.00 24.10
55.00 25.81
56.00 28.01
57.00 31.06
58.00 35.69
59.00 42.58
60.00 39.34
61.00 34.32
62.00 31.63
63.00 30.25
64.00 29.72
65.00 29.80
66.00 30.32
67.00 31.11
68.00 31.95
69.00 32.62
70.00 33.08
71.00 33.54
72.00 34.29
73.00 35.52
74.00 37.43
75.00 40.40
76.00 45.82
77.00 57.44
78.00 44.80
79.00 39.25
80.00 36.29
81.00 34.51
82.00 33.21
83.00 32.00
84.00 30.77
85.00 29.68
86.00 28.88
87.00 28.41
88.00 28.24
89.00 28.29
90.00 28.51
91.00 28.87
92.00 29.30
93.00 29.76
94.00 30.22
95.00 30.65
96.00 31.07
97.00 31.50
98.00 31.99
99.00 32.66
100.00 33.67
101.00 35.14
102.00 37.02
103.00 39.00
104.00 40.52
105.00 41.16
106.00 40.98
107.00 40.30
108.00 39.52
109.00 38.95
110.00 38.64
111.00 38.42
112.00 38.10
113.00 37.67
114.00 37.27
115.00 37.02
116.00 36.97
117.00 37.15
118.00 37.60
119.00 38.34
120.00 39.33
121.00 40.45
122.00 41.43
123.00 41.89
124.00 41.62
125.00 40.84
126.00 39.93
127.00 39.14
128.00 38.53
129.00 38.04
130.00 37.63
131.00 37.33
132.00 37.20
133.00 37.33
134.00 37.83
135.00 38.81
136.00 40.42
137.00 42.86
138.00 46.55
139.00 52.05
140.00 52.26
141.00 46.76
142.00 43.18
143.00 41.04
144.00 39.88
145.00 39.36
146.00 39.09
147.00 38.52
148.00 37.31
149.00 35.66
150.00 34.05
151.00 32.76
152.00 31.99
153.00 31.81
154.00 32.30
155.00 33.54
156.00 35.67
157.00 38.97
158.00 44.07
159.00 51.86
160.00 51.79
161.00 48.03
162.00 46.76
163.00 46.31
164.00 44.95
165.00 42.31
166.00 39.52
167.00 37.20
168.00 35.44
169.00 34.22
170.00 33.44
171.00 33.03
172.00 32.90
173.00 32.97
174.00 33.09
175.00 33.36
176.00 33.75
177.00 34.25
178.00 34.78
179.00 35.27
180.00 35.65
181.00 35.95
182.00 36.36
183.00 37.09
184.00 38.32
185.00 40.14
186.00 42.58
187.00 45.35
188.00 47.16
189.00 45.85
190.00 42.79
191.00 40.12
192.00 38.29
193.00 37.25
194.00 36.77
195.00 36.60
196.00 36.48
197.00 36.25
198.00 35.87
199.00 35.45
200.00 35.09
201.00 34.96
202.00 35.23
203.00 35.97
204.00 37.18
205.00 38.80
206.00 40.80
207.00 42.92
208.00 43.52
209.00 41.41
210.00 38.92
211.00 37.35
212.00 36.86
213.00 37.37
214.00 38.81
215.00 41.03
216.00 43.58
217.00 45.54
218.00 45.86
219.00 44.56
220.00 42.69
221.00 41.03
222.00 39.86
223.00 39.11
224.00 38.54
225.00 37.80
226.00 36.71
227.00 35.37
228.00 34.08
229.00 33.06
230.00 32.39
231.00 32.10
232.00 32.11
233.00 32.36
234.00 32.69
235.00 32.95
236.00 33.04
237.00 32.99
238.00 32.99
239.00 33.24
240.00 33.89
241.00 35.07
242.00 36.91
243.00 39.70
244.00 43.89
245.00 48.40
246.00 46.20
247.00 42.93
248.00 41.41
249.00 41.26
250.00 42.13
251.00 43.59
252.00 44.99
253.00 45.52
254.00 44.82
255.00 43.32
256.00 41.79
257.00 40.83
258.00 40.75
259.00 41.75
260.00 44.11
261.00 48.48
262.00 57.56
263.00 60.09
264.00 51.11
265.00 46.90
266.00 44.26
267.00 42.81
268.00 42.57
269.00 43.51
270.00 44.83
271.00 43.98
272.00 41.31
273.00 39.14
274.00 37.96
275.00 37.62
276.00 37.88
277.00 38.35
278.00 38.56
279.00 38.24
280.00 37.56
281.00 36.95
282.00 36.71
283.00 37.01
284.00 37.93
285.00 39.40
286.00 41.16
287.00 42.48
288.00 42.69
289.00 42.32
290.00 42.35
291.00 43.52
292.00 46.35
293.00 48.30
294.00 43.93
295.00 39.82
296.00 37.27
297.00 35.81
298.00 35.08
299.00 34.69
300.00 34.30
301.00 33.69
302.00 32.91
303.00 32.26
304.00 32.08
305.00 32.69
306.00 34.52
307.00 38.47
308.00 44.31
309.00 37.63
310.00 32.00
311.00 28.45
312.00 25.99
313.00 24.16
314.00 22.79
315.00 21.77
316.00 21.10
317.00 20.79
318.00 20.90
319.00 21.49
320.00 22.70
321.00 24.72
322.00 27.99
323.00 33.63
324.00 40.81
325.00 33.28
326.00 28.69
327.00 26.18
328.00 24.74
329.00 24.05
330.00 23.99
331.00 24.64
332.00 26.19
333.00 29.14
334.00 34.41
335.00 36.43
336.00 30.60
337.00 27.21
338.00 25.74
339.00 25.78
340.00 27.44
341.00 31.35
342.00 34.80
343.00 28.89
344.00 24.41
345.00 21.86
346.00 20.61
347.00 20.43
348.00 21.33
349.00 23.60
350.00 28.25
351.00 37.64
352.00 30.26
353.00 25.13
354.00 23.20
355.00 23.63
356.00 27.76
357.00 38.72
358.00 21.37
359.00 14.66
