NAME ATR4518R7_1850_X_CO_P45_03T_yyR
FREQUENCY 1850
GAIN 15.61 dBd
TILT	ELECTRICAL
COMMENT DATE 05.08.2013 +45 degrees polarized system Lever position 03T deg
HORIZONTAL 360
0.00 0.12
1.00 0.08
2.00 0.05
3.00 0.03
4.00 0.01
5.00 0.00
6.00 0.00
7.00 0.00
8.00 0.02
9.00 0.04
10.00 0.06
11.00 0.10
12.00 0.14
13.00 0.20
14.00 0.26
15.00 0.34
16.00 0.42
17.00 0.51
18.00 0.61
19.00 0.73
20.00 0.85
21.00 0.98
22.00 1.13
23.00 1.28
24.00 1.44
25.00 1.61
26.00 1.80
27.00 1.99
28.00 2.19
29.00 2.39
30.00 2.61
31.00 2.83
32.00 3.06
33.00 3.30
34.00 3.54
35.00 3.79
36.00 4.05
37.00 4.30
38.00 4.57
39.00 4.84
40.00 5.11
41.00 5.38
42.00 5.66
43.00 5.94
44.00 6.22
45.00 6.51
46.00 6.80
47.00 7.09
48.00 7.38
49.00 7.68
50.00 7.98
51.00 8.28
52.00 8.58
53.00 8.89
54.00 9.20
55.00 9.51
56.00 9.82
57.00 10.14
58.00 10.46
59.00 10.78
60.00 11.10
61.00 11.43
62.00 11.75
63.00 12.08
64.00 12.41
65.00 12.74
66.00 13.07
67.00 13.40
68.00 13.73
69.00 14.07
70.00 14.40
71.00 14.74
72.00 15.09
73.00 15.43
74.00 15.78
75.00 16.13
76.00 16.49
77.00 16.85
78.00 17.22
79.00 17.59
80.00 17.98
81.00 18.36
82.00 18.76
83.00 19.16
84.00 19.56
85.00 19.98
86.00 20.39
87.00 20.81
88.00 21.23
89.00 21.65
90.00 22.07
91.00 22.48
92.00 22.90
93.00 23.30
94.00 23.71
95.00 24.10
96.00 24.49
97.00 24.88
98.00 25.26
99.00 25.65
100.00 26.03
101.00 26.41
102.00 26.81
103.00 27.21
104.00 27.62
105.00 28.03
106.00 28.46
107.00 28.90
108.00 29.34
109.00 29.78
110.00 30.21
111.00 30.63
112.00 31.02
113.00 31.38
114.00 31.68
115.00 31.94
116.00 32.14
117.00 32.29
118.00 32.39
119.00 32.47
120.00 32.54
121.00 32.60
122.00 32.69
123.00 32.81
124.00 32.98
125.00 33.21
126.00 33.51
127.00 33.91
128.00 34.41
129.00 35.04
130.00 35.81
131.00 36.78
132.00 37.97
133.00 39.47
134.00 41.41
135.00 44.01
136.00 47.85
137.00 54.16
138.00 56.27
139.00 49.24
140.00 44.98
141.00 42.16
142.00 40.13
143.00 38.60
144.00 37.40
145.00 36.47
146.00 35.74
147.00 35.18
148.00 34.79
149.00 34.52
150.00 34.38
151.00 34.37
152.00 34.46
153.00 34.66
154.00 34.96
155.00 35.36
156.00 35.85
157.00 36.40
158.00 36.99
159.00 37.56
160.00 38.04
161.00 38.34
162.00 38.39
163.00 38.17
164.00 37.73
165.00 37.14
166.00 36.49
167.00 35.84
168.00 35.24
169.00 34.70
170.00 34.25
171.00 33.87
172.00 33.60
173.00 33.40
174.00 33.29
175.00 33.27
176.00 33.33
177.00 33.46
178.00 33.68
179.00 33.95
180.00 34.29
181.00 34.68
182.00 35.10
183.00 35.52
184.00 35.91
185.00 36.23
186.00 36.45
187.00 36.53
188.00 36.48
189.00 36.30
190.00 36.03
191.00 35.69
192.00 35.34
193.00 35.01
194.00 34.70
195.00 34.45
196.00 34.26
197.00 34.14
198.00 34.08
199.00 34.11
200.00 34.20
201.00 34.37
202.00 34.62
203.00 34.93
204.00 35.31
205.00 35.74
206.00 36.19
207.00 36.65
208.00 37.06
209.00 37.38
210.00 37.55
211.00 37.54
212.00 37.35
213.00 36.99
214.00 36.50
215.00 35.96
216.00 35.39
217.00 34.82
218.00 34.29
219.00 33.81
220.00 33.37
221.00 32.99
222.00 32.66
223.00 32.39
224.00 32.16
225.00 31.98
226.00 31.84
227.00 31.74
228.00 31.67
229.00 31.62
230.00 31.60
231.00 31.59
232.00 31.59
233.00 31.58
234.00 31.58
235.00 31.56
236.00 31.53
237.00 31.48
238.00 31.41
239.00 31.32
240.00 31.21
241.00 31.07
242.00 30.92
243.00 30.76
244.00 30.59
245.00 30.42
246.00 30.24
247.00 30.06
248.00 29.88
249.00 29.70
250.00 29.52
251.00 29.35
252.00 29.17
253.00 29.00
254.00 28.83
255.00 28.65
256.00 28.47
257.00 28.27
258.00 28.08
259.00 27.87
260.00 27.64
261.00 27.40
262.00 27.15
263.00 26.88
264.00 26.60
265.00 26.29
266.00 25.98
267.00 25.64
268.00 25.29
269.00 24.93
270.00 24.55
271.00 24.17
272.00 23.77
273.00 23.37
274.00 22.95
275.00 22.54
276.00 22.12
277.00 21.70
278.00 21.28
279.00 20.85
280.00 20.43
281.00 20.01
282.00 19.59
283.00 19.17
284.00 18.76
285.00 18.35
286.00 17.94
287.00 17.54
288.00 17.14
289.00 16.74
290.00 16.35
291.00 15.95
292.00 15.56
293.00 15.18
294.00 14.80
295.00 14.42
296.00 14.04
297.00 13.67
298.00 13.30
299.00 12.93
300.00 12.56
301.00 12.20
302.00 11.83
303.00 11.47
304.00 11.12
305.00 10.76
306.00 10.41
307.00 10.06
308.00 9.72
309.00 9.38
310.00 9.04
311.00 8.70
312.00 8.37
313.00 8.05
314.00 7.73
315.00 7.41
316.00 7.10
317.00 6.80
318.00 6.50
319.00 6.21
320.00 5.93
321.00 5.65
322.00 5.38
323.00 5.12
324.00 4.86
325.00 4.62
326.00 4.37
327.00 4.14
328.00 3.92
329.00 3.70
330.00 3.49
331.00 3.29
332.00 3.09
333.00 2.91
334.00 2.73
335.00 2.55
336.00 2.39
337.00 2.23
338.00 2.08
339.00 1.94
340.00 1.80
341.00 1.67
342.00 1.54
343.00 1.42
344.00 1.31
345.00 1.20
346.00 1.09
347.00 0.99
348.00 0.90
349.00 0.81
350.00 0.72
351.00 0.64
352.00 0.57
353.00 0.50
354.00 0.43
355.00 0.36
356.00 0.31
357.00 0.25
358.00 0.20
359.00 0.16
VERTICAL 360
0.00 3.20
1.00 1.36
2.00 0.32
3.00 0.00
4.00 0.36
5.00 1.43
6.00 3.35
7.00 6.41
8.00 11.38
9.00 21.46
10.00 24.31
11.00 16.83
12.00 15.32
13.00 16.48
14.00 20.21
15.00 25.92
16.00 22.87
17.00 18.18
18.00 16.15
19.00 15.96
20.00 17.46
21.00 21.04
22.00 27.35
23.00 27.88
24.00 23.04
25.00 20.87
26.00 20.56
27.00 21.79
28.00 25.08
29.00 33.95
30.00 36.40
31.00 25.73
32.00 22.10
33.00 20.71
34.00 20.69
35.00 21.73
36.00 23.72
37.00 26.81
38.00 31.33
39.00 36.45
40.00 37.40
41.00 37.85
42.00 40.34
43.00 34.55
44.00 28.65
45.00 25.57
46.00 24.37
47.00 24.59
48.00 25.97
49.00 28.10
50.00 30.16
51.00 31.31
52.00 32.04
53.00 33.52
54.00 35.54
55.00 33.89
56.00 29.46
57.00 26.12
58.00 24.11
59.00 23.11
60.00 22.86
61.00 23.11
62.00 23.68
63.00 24.49
64.00 25.56
65.00 26.84
66.00 28.11
67.00 29.05
68.00 29.60
69.00 30.18
70.00 31.16
71.00 32.53
72.00 33.82
73.00 34.39
74.00 34.00
75.00 32.99
76.00 31.70
77.00 30.33
78.00 29.04
79.00 27.94
80.00 27.09
81.00 26.45
82.00 25.99
83.00 25.69
84.00 25.50
85.00 25.41
86.00 25.48
87.00 25.87
88.00 26.80
89.00 28.51
90.00 31.09
91.00 34.02
92.00 35.27
93.00 33.90
94.00 32.05
95.00 30.93
96.00 30.85
97.00 31.93
98.00 34.08
99.00 36.82
100.00 38.97
101.00 39.65
102.00 39.76
103.00 40.59
104.00 42.82
105.00 46.00
106.00 47.80
107.00 48.44
108.00 50.33
109.00 52.76
110.00 53.75
111.00 55.28
112.00 60.43
113.00 71.03
114.00 58.20
115.00 52.26
116.00 49.54
117.00 48.26
118.00 46.98
119.00 44.89
120.00 42.52
121.00 40.52
122.00 39.25
123.00 38.90
124.00 39.43
125.00 40.10
126.00 39.50
127.00 37.82
128.00 36.55
129.00 36.32
130.00 37.15
131.00 38.57
132.00 39.53
133.00 39.60
134.00 39.66
135.00 40.33
136.00 41.57
137.00 42.96
138.00 44.00
139.00 44.12
140.00 42.88
141.00 40.79
142.00 38.98
143.00 38.06
144.00 38.06
145.00 38.61
146.00 38.96
147.00 38.53
148.00 37.58
149.00 36.99
150.00 37.69
151.00 40.76
152.00 48.32
153.00 47.74
154.00 41.94
155.00 40.68
156.00 41.79
157.00 41.71
158.00 37.71
159.00 34.13
160.00 32.43
161.00 32.66
162.00 35.07
163.00 40.32
164.00 46.99
165.00 46.35
166.00 46.62
167.00 48.74
168.00 47.92
169.00 46.76
170.00 46.15
171.00 43.32
172.00 39.31
173.00 36.36
174.00 34.98
175.00 35.10
176.00 36.06
177.00 36.45
178.00 36.35
179.00 37.32
180.00 40.16
181.00 44.32
182.00 46.44
183.00 46.11
184.00 46.35
185.00 49.37
186.00 51.57
187.00 44.05
188.00 40.74
189.00 41.94
190.00 47.50
191.00 41.54
192.00 35.66
193.00 33.38
194.00 33.16
195.00 34.41
196.00 36.59
197.00 38.27
198.00 37.48
199.00 35.60
200.00 34.55
201.00 34.66
202.00 35.40
203.00 35.76
204.00 35.60
205.00 35.90
206.00 37.34
207.00 39.99
208.00 43.85
209.00 49.96
210.00 51.70
211.00 44.30
212.00 39.98
213.00 37.14
214.00 34.85
215.00 32.97
216.00 31.58
217.00 30.75
218.00 30.55
219.00 30.97
220.00 31.85
221.00 32.74
222.00 33.27
223.00 33.64
224.00 34.43
225.00 36.22
226.00 39.82
227.00 48.33
228.00 54.27
229.00 43.74
230.00 41.72
231.00 41.88
232.00 39.63
233.00 35.76
234.00 33.40
235.00 32.82
236.00 33.83
237.00 36.23
238.00 39.82
239.00 44.71
240.00 51.26
241.00 50.50
242.00 45.27
243.00 42.71
244.00 41.80
245.00 40.61
246.00 37.70
247.00 34.84
248.00 33.28
249.00 33.10
250.00 34.05
251.00 35.67
252.00 37.40
253.00 38.92
254.00 40.59
255.00 43.39
256.00 46.30
257.00 44.06
258.00 41.42
259.00 41.16
260.00 42.47
261.00 43.23
262.00 41.84
263.00 39.35
264.00 37.18
265.00 36.18
266.00 36.66
267.00 38.32
268.00 39.56
269.00 38.86
270.00 37.63
271.00 37.06
272.00 36.79
273.00 35.66
274.00 33.57
275.00 31.63
276.00 30.34
277.00 29.59
278.00 29.06
279.00 28.52
280.00 27.87
281.00 27.18
282.00 26.57
283.00 26.15
284.00 25.88
285.00 25.68
286.00 25.52
287.00 25.43
288.00 25.56
289.00 26.02
290.00 26.82
291.00 27.76
292.00 28.44
293.00 28.52
294.00 28.02
295.00 27.12
296.00 25.94
297.00 24.57
298.00 23.28
299.00 22.33
300.00 21.84
301.00 21.83
302.00 22.23
303.00 22.99
304.00 24.13
305.00 25.78
306.00 28.15
307.00 30.80
308.00 30.23
309.00 26.41
310.00 23.10
311.00 20.90
312.00 19.64
313.00 19.14
314.00 19.27
315.00 19.89
316.00 20.82
317.00 21.78
318.00 22.45
319.00 22.61
320.00 22.26
321.00 21.50
322.00 20.54
323.00 19.63
324.00 19.02
325.00 18.79
326.00 18.88
327.00 19.15
328.00 19.53
329.00 20.25
330.00 21.84
331.00 25.16
332.00 31.61
333.00 31.67
334.00 25.58
335.00 22.93
336.00 22.55
337.00 24.44
338.00 30.75
339.00 37.78
340.00 25.38
341.00 21.24
342.00 20.00
343.00 20.97
344.00 24.41
345.00 28.38
346.00 24.58
347.00 20.71
348.00 19.19
349.00 19.57
350.00 22.15
351.00 29.70
352.00 38.71
353.00 24.43
354.00 21.53
355.00 22.85
356.00 25.48
357.00 17.13
358.00 10.36
359.00 6.06
