NAME ATR4518R7_1950_X_CO_M45_08T_yyR
FREQUENCY 1950
GAIN 14.81 dBd
TILT	ELECTRICAL
COMMENT DATE 05.08.2013 -45 degrees polarized system Lever position 08T deg
HORIZONTAL 360
0.00 0.13
1.00 0.09
2.00 0.06
3.00 0.04
4.00 0.02
5.00 0.01
6.00 0.00
7.00 0.00
8.00 0.01
9.00 0.02
10.00 0.04
11.00 0.06
12.00 0.10
13.00 0.14
14.00 0.18
15.00 0.24
16.00 0.31
17.00 0.38
18.00 0.46
19.00 0.55
20.00 0.66
21.00 0.77
22.00 0.89
23.00 1.02
24.00 1.17
25.00 1.32
26.00 1.49
27.00 1.67
28.00 1.86
29.00 2.06
30.00 2.28
31.00 2.51
32.00 2.75
33.00 3.00
34.00 3.27
35.00 3.55
36.00 3.84
37.00 4.15
38.00 4.47
39.00 4.80
40.00 5.14
41.00 5.50
42.00 5.87
43.00 6.24
44.00 6.63
45.00 7.03
46.00 7.44
47.00 7.86
48.00 8.29
49.00 8.72
50.00 9.17
51.00 9.61
52.00 10.07
53.00 10.52
54.00 10.98
55.00 11.43
56.00 11.89
57.00 12.34
58.00 12.79
59.00 13.24
60.00 13.67
61.00 14.10
62.00 14.52
63.00 14.92
64.00 15.31
65.00 15.69
66.00 16.06
67.00 16.42
68.00 16.75
69.00 17.08
70.00 17.40
71.00 17.70
72.00 17.99
73.00 18.28
74.00 18.55
75.00 18.83
76.00 19.10
77.00 19.37
78.00 19.64
79.00 19.92
80.00 20.20
81.00 20.49
82.00 20.79
83.00 21.10
84.00 21.43
85.00 21.77
86.00 22.14
87.00 22.52
88.00 22.93
89.00 23.36
90.00 23.83
91.00 24.32
92.00 24.85
93.00 25.42
94.00 26.02
95.00 26.68
96.00 27.39
97.00 28.16
98.00 28.99
99.00 29.91
100.00 30.92
101.00 32.04
102.00 33.31
103.00 34.75
104.00 36.44
105.00 38.47
106.00 41.00
107.00 44.41
108.00 49.60
109.00 57.50
110.00 51.62
111.00 46.14
112.00 42.81
113.00 40.51
114.00 38.78
115.00 37.41
116.00 36.31
117.00 35.39
118.00 34.62
119.00 33.97
120.00 33.42
121.00 32.95
122.00 32.56
123.00 32.23
124.00 31.95
125.00 31.72
126.00 31.54
127.00 31.41
128.00 31.32
129.00 31.27
130.00 31.26
131.00 31.28
132.00 31.35
133.00 31.45
134.00 31.59
135.00 31.77
136.00 31.99
137.00 32.25
138.00 32.55
139.00 32.89
140.00 33.28
141.00 33.71
142.00 34.18
143.00 34.71
144.00 35.27
145.00 35.89
146.00 36.55
147.00 37.27
148.00 38.03
149.00 38.83
150.00 39.67
151.00 40.55
152.00 41.45
153.00 42.36
154.00 43.26
155.00 44.12
156.00 44.89
157.00 45.51
158.00 45.89
159.00 45.96
160.00 45.70
161.00 45.13
162.00 44.32
163.00 43.37
164.00 42.35
165.00 41.33
166.00 40.33
167.00 39.39
168.00 38.50
169.00 37.68
170.00 36.94
171.00 36.26
172.00 35.67
173.00 35.15
174.00 34.70
175.00 34.33
176.00 34.04
177.00 33.82
178.00 33.68
179.00 33.62
180.00 33.64
181.00 33.75
182.00 33.95
183.00 34.24
184.00 34.62
185.00 35.11
186.00 35.70
187.00 36.39
188.00 37.16
189.00 37.96
190.00 38.70
191.00 39.25
192.00 39.43
193.00 39.16
194.00 38.48
195.00 37.54
196.00 36.52
197.00 35.51
198.00 34.57
199.00 33.71
200.00 32.96
201.00 32.30
202.00 31.74
203.00 31.26
204.00 30.86
205.00 30.54
206.00 30.29
207.00 30.10
208.00 29.97
209.00 29.89
210.00 29.85
211.00 29.84
212.00 29.86
213.00 29.88
214.00 29.91
215.00 29.92
216.00 29.91
217.00 29.86
218.00 29.77
219.00 29.64
220.00 29.46
221.00 29.24
222.00 28.99
223.00 28.73
224.00 28.45
225.00 28.18
226.00 27.92
227.00 27.68
228.00 27.47
229.00 27.28
230.00 27.12
231.00 27.00
232.00 26.90
233.00 26.83
234.00 26.79
235.00 26.77
236.00 26.78
237.00 26.79
238.00 26.81
239.00 26.82
240.00 26.82
241.00 26.80
242.00 26.75
243.00 26.67
244.00 26.54
245.00 26.37
246.00 26.16
247.00 25.92
248.00 25.64
249.00 25.34
250.00 25.02
251.00 24.69
252.00 24.36
253.00 24.03
254.00 23.70
255.00 23.38
256.00 23.06
257.00 22.76
258.00 22.47
259.00 22.19
260.00 21.91
261.00 21.65
262.00 21.39
263.00 21.14
264.00 20.90
265.00 20.65
266.00 20.40
267.00 20.16
268.00 19.91
269.00 19.66
270.00 19.40
271.00 19.14
272.00 18.87
273.00 18.59
274.00 18.31
275.00 18.03
276.00 17.74
277.00 17.45
278.00 17.15
279.00 16.85
280.00 16.55
281.00 16.25
282.00 15.95
283.00 15.64
284.00 15.34
285.00 15.04
286.00 14.75
287.00 14.45
288.00 14.16
289.00 13.87
290.00 13.59
291.00 13.31
292.00 13.03
293.00 12.75
294.00 12.48
295.00 12.21
296.00 11.95
297.00 11.68
298.00 11.42
299.00 11.16
300.00 10.90
301.00 10.65
302.00 10.40
303.00 10.15
304.00 9.90
305.00 9.65
306.00 9.40
307.00 9.16
308.00 8.91
309.00 8.67
310.00 8.43
311.00 8.19
312.00 7.95
313.00 7.71
314.00 7.48
315.00 7.24
316.00 7.00
317.00 6.77
318.00 6.53
319.00 6.30
320.00 6.07
321.00 5.84
322.00 5.62
323.00 5.39
324.00 5.17
325.00 4.94
326.00 4.73
327.00 4.51
328.00 4.30
329.00 4.09
330.00 3.88
331.00 3.68
332.00 3.48
333.00 3.29
334.00 3.10
335.00 2.91
336.00 2.73
337.00 2.56
338.00 2.39
339.00 2.22
340.00 2.06
341.00 1.91
342.00 1.76
343.00 1.62
344.00 1.49
345.00 1.36
346.00 1.23
347.00 1.11
348.00 1.00
349.00 0.90
350.00 0.80
351.00 0.71
352.00 0.62
353.00 0.54
354.00 0.46
355.00 0.39
356.00 0.33
357.00 0.27
358.00 0.22
359.00 0.17
VERTICAL 360
0.00 22.59
1.00 18.14
2.00 13.25
3.00 8.93
4.00 5.51
5.00 2.99
6.00 1.27
7.00 0.29
8.00 0.00
9.00 0.38
10.00 1.52
11.00 3.61
12.00 7.16
13.00 13.72
14.00 29.22
15.00 16.55
16.00 12.73
17.00 12.47
18.00 14.73
19.00 20.68
20.00 28.76
21.00 19.19
22.00 15.35
23.00 14.25
24.00 15.03
25.00 17.95
26.00 25.62
27.00 33.75
28.00 20.68
29.00 17.00
30.00 15.90
31.00 16.59
32.00 19.22
33.00 25.32
34.00 45.00
35.00 26.15
36.00 21.78
37.00 20.50
38.00 20.88
39.00 22.68
40.00 26.55
41.00 37.44
42.00 33.68
43.00 25.10
44.00 21.59
45.00 20.03
46.00 19.73
47.00 20.41
48.00 21.94
49.00 24.21
50.00 26.83
51.00 28.47
52.00 28.22
53.00 27.55
54.00 27.66
55.00 28.68
56.00 30.14
57.00 31.45
58.00 32.90
59.00 35.65
60.00 41.11
61.00 45.66
62.00 40.40
63.00 37.49
64.00 36.59
65.00 36.79
66.00 37.36
67.00 37.84
68.00 38.39
69.00 38.98
70.00 38.82
71.00 38.05
72.00 37.57
73.00 37.35
74.00 36.71
75.00 35.28
76.00 33.53
77.00 32.08
78.00 31.17
79.00 30.61
80.00 29.98
81.00 28.97
82.00 27.65
83.00 26.46
84.00 25.85
85.00 26.09
86.00 27.23
87.00 29.01
88.00 30.67
89.00 31.15
90.00 30.16
91.00 28.57
92.00 27.26
93.00 26.59
94.00 26.55
95.00 26.99
96.00 27.65
97.00 28.32
98.00 28.90
99.00 29.45
100.00 30.16
101.00 31.20
102.00 32.67
103.00 34.48
104.00 36.48
105.00 38.46
106.00 40.26
107.00 41.72
108.00 42.65
109.00 42.92
110.00 42.98
111.00 43.59
112.00 44.98
113.00 46.69
114.00 47.88
115.00 48.49
116.00 49.71
117.00 52.38
118.00 49.61
119.00 43.45
120.00 39.74
121.00 37.95
122.00 37.61
123.00 38.43
124.00 40.21
125.00 42.76
126.00 45.73
127.00 46.90
128.00 43.98
129.00 40.63
130.00 38.55
131.00 37.82
132.00 38.40
133.00 40.50
134.00 45.22
135.00 57.06
136.00 47.17
137.00 40.56
138.00 37.46
139.00 36.05
140.00 35.83
141.00 36.58
142.00 37.91
143.00 38.64
144.00 37.56
145.00 35.68
146.00 34.34
147.00 34.04
148.00 34.96
149.00 37.36
150.00 41.84
151.00 49.62
152.00 50.12
153.00 44.00
154.00 40.05
155.00 37.04
156.00 35.16
157.00 34.77
158.00 36.12
159.00 39.55
160.00 43.88
161.00 43.16
162.00 40.51
163.00 39.36
164.00 40.33
165.00 44.88
166.00 45.31
167.00 38.52
168.00 36.05
169.00 36.62
170.00 38.59
171.00 37.93
172.00 36.03
173.00 35.97
174.00 37.74
175.00 39.70
176.00 40.86
177.00 44.37
178.00 51.53
179.00 41.46
180.00 37.02
181.00 36.26
182.00 38.67
183.00 46.47
184.00 51.83
185.00 44.43
186.00 45.68
187.00 58.10
188.00 53.38
189.00 50.72
190.00 51.25
191.00 41.95
192.00 37.49
193.00 36.12
194.00 36.75
195.00 38.35
196.00 39.22
197.00 38.11
198.00 36.28
199.00 35.37
200.00 36.01
201.00 37.60
202.00 38.17
203.00 38.22
204.00 40.39
205.00 42.14
206.00 37.12
207.00 33.54
208.00 32.25
209.00 32.52
210.00 33.90
211.00 36.20
212.00 39.61
213.00 42.68
214.00 40.84
215.00 37.86
216.00 36.23
217.00 35.76
218.00 36.12
219.00 37.07
220.00 38.41
221.00 39.95
222.00 41.53
223.00 42.98
224.00 44.24
225.00 45.54
226.00 47.47
227.00 49.56
228.00 48.29
229.00 45.27
230.00 43.63
231.00 43.64
232.00 45.26
233.00 48.70
234.00 53.12
235.00 53.06
236.00 52.04
237.00 54.96
238.00 60.12
239.00 53.38
240.00 49.55
241.00 47.87
242.00 46.41
243.00 44.79
244.00 43.54
245.00 42.98
246.00 43.23
247.00 44.22
248.00 45.18
249.00 45.10
250.00 44.33
251.00 43.73
252.00 43.57
253.00 43.68
254.00 43.38
255.00 42.73
256.00 43.03
257.00 44.40
258.00 42.75
259.00 38.92
260.00 36.82
261.00 36.76
262.00 38.64
263.00 42.43
264.00 47.38
265.00 49.48
266.00 46.37
267.00 42.22
268.00 39.21
269.00 37.63
270.00 37.30
271.00 37.64
272.00 37.84
273.00 37.79
274.00 38.28
275.00 39.69
276.00 41.57
277.00 43.55
278.00 46.08
279.00 45.73
280.00 41.17
281.00 37.64
282.00 35.26
283.00 33.41
284.00 31.75
285.00 30.26
286.00 29.06
287.00 28.27
288.00 27.90
289.00 27.83
290.00 27.90
291.00 28.01
292.00 28.16
293.00 28.44
294.00 28.96
295.00 29.73
296.00 30.42
297.00 30.39
298.00 29.61
299.00 28.80
300.00 28.46
301.00 28.59
302.00 28.79
303.00 28.55
304.00 27.66
305.00 26.41
306.00 25.26
307.00 24.47
308.00 24.04
309.00 23.80
310.00 23.54
311.00 23.22
312.00 22.99
313.00 23.18
314.00 24.20
315.00 26.72
316.00 33.02
317.00 41.73
318.00 27.69
319.00 22.36
320.00 19.29
321.00 17.44
322.00 16.54
323.00 16.52
324.00 17.27
325.00 18.25
326.00 18.06
327.00 16.32
328.00 14.34
329.00 12.92
330.00 12.19
331.00 12.16
332.00 12.76
333.00 13.90
334.00 15.32
335.00 16.61
336.00 17.60
337.00 18.85
338.00 21.39
339.00 27.30
340.00 34.74
341.00 24.37
342.00 20.31
343.00 19.03
344.00 19.73
345.00 22.63
346.00 28.32
347.00 27.64
348.00 22.10
349.00 19.52
350.00 19.01
351.00 20.21
352.00 22.54
353.00 23.06
354.00 20.75
355.00 19.03
356.00 18.84
357.00 20.15
358.00 22.64
359.00 24.49
