NAME ATR4518R7_1850_X_CO_P45_02T_yL
FREQUENCY 1850
GAIN 15.30 dBd
TILT	ELECTRICAL
COMMENT DATE 05.08.2013 +45 degrees polarized system Lever position 02T deg
HORIZONTAL 360
0.00 0.00
1.00 0.01
2.00 0.02
3.00 0.03
4.00 0.05
5.00 0.08
6.00 0.10
7.00 0.14
8.00 0.17
9.00 0.21
10.00 0.25
11.00 0.30
12.00 0.35
13.00 0.40
14.00 0.45
15.00 0.51
16.00 0.58
17.00 0.64
18.00 0.71
19.00 0.79
20.00 0.87
21.00 0.95
22.00 1.04
23.00 1.14
24.00 1.24
25.00 1.34
26.00 1.46
27.00 1.57
28.00 1.70
29.00 1.83
30.00 1.97
31.00 2.11
32.00 2.27
33.00 2.42
34.00 2.59
35.00 2.76
36.00 2.94
37.00 3.12
38.00 3.31
39.00 3.51
40.00 3.71
41.00 3.92
42.00 4.13
43.00 4.35
44.00 4.57
45.00 4.80
46.00 5.02
47.00 5.26
48.00 5.49
49.00 5.73
50.00 5.96
51.00 6.20
52.00 6.45
53.00 6.69
54.00 6.93
55.00 7.18
56.00 7.42
57.00 7.67
58.00 7.92
59.00 8.18
60.00 8.43
61.00 8.69
62.00 8.94
63.00 9.21
64.00 9.47
65.00 9.74
66.00 10.01
67.00 10.29
68.00 10.57
69.00 10.86
70.00 11.15
71.00 11.45
72.00 11.75
73.00 12.06
74.00 12.37
75.00 12.69
76.00 13.01
77.00 13.34
78.00 13.67
79.00 14.00
80.00 14.33
81.00 14.67
82.00 15.00
83.00 15.33
84.00 15.65
85.00 15.97
86.00 16.29
87.00 16.59
88.00 16.90
89.00 17.19
90.00 17.48
91.00 17.76
92.00 18.05
93.00 18.33
94.00 18.62
95.00 18.91
96.00 19.22
97.00 19.54
98.00 19.88
99.00 20.24
100.00 20.62
101.00 21.04
102.00 21.48
103.00 21.97
104.00 22.49
105.00 23.06
106.00 23.66
107.00 24.31
108.00 25.00
109.00 25.72
110.00 26.47
111.00 27.24
112.00 28.02
113.00 28.79
114.00 29.54
115.00 30.24
116.00 30.89
117.00 31.49
118.00 32.03
119.00 32.56
120.00 33.09
121.00 33.67
122.00 34.34
123.00 35.13
124.00 36.10
125.00 37.30
126.00 38.81
127.00 40.65
128.00 42.73
129.00 44.29
130.00 43.86
131.00 41.73
132.00 39.36
133.00 37.28
134.00 35.56
135.00 34.14
136.00 32.98
137.00 32.03
138.00 31.26
139.00 30.64
140.00 30.17
141.00 29.82
142.00 29.59
143.00 29.46
144.00 29.44
145.00 29.52
146.00 29.69
147.00 29.95
148.00 30.28
149.00 30.67
150.00 31.11
151.00 31.55
152.00 31.98
153.00 32.32
154.00 32.56
155.00 32.63
156.00 32.55
157.00 32.32
158.00 32.00
159.00 31.62
160.00 31.24
161.00 30.87
162.00 30.56
163.00 30.30
164.00 30.11
165.00 29.99
166.00 29.96
167.00 29.99
168.00 30.11
169.00 30.30
170.00 30.56
171.00 30.88
172.00 31.26
173.00 31.69
174.00 32.15
175.00 32.64
176.00 33.11
177.00 33.56
178.00 33.97
179.00 34.30
180.00 34.56
181.00 34.75
182.00 34.88
183.00 34.97
184.00 35.05
185.00 35.15
186.00 35.29
187.00 35.49
188.00 35.77
189.00 36.14
190.00 36.63
191.00 37.24
192.00 38.01
193.00 38.95
194.00 40.11
195.00 41.54
196.00 43.35
197.00 45.70
198.00 48.91
199.00 53.53
200.00 57.66
201.00 53.43
202.00 49.06
203.00 46.06
204.00 43.89
205.00 42.24
206.00 40.93
207.00 39.88
208.00 39.03
209.00 38.32
210.00 37.75
211.00 37.30
212.00 36.95
213.00 36.69
214.00 36.52
215.00 36.45
216.00 36.48
217.00 36.60
218.00 36.84
219.00 37.20
220.00 37.70
221.00 38.36
222.00 39.21
223.00 40.28
224.00 41.63
225.00 43.25
226.00 45.04
227.00 46.41
228.00 46.24
229.00 44.49
230.00 42.27
231.00 40.20
232.00 38.41
233.00 36.89
234.00 35.59
235.00 34.48
236.00 33.53
237.00 32.71
238.00 32.00
239.00 31.38
240.00 30.84
241.00 30.37
242.00 29.95
243.00 29.57
244.00 29.23
245.00 28.90
246.00 28.58
247.00 28.25
248.00 27.92
249.00 27.57
250.00 27.20
251.00 26.81
252.00 26.39
253.00 25.97
254.00 25.53
255.00 25.08
256.00 24.64
257.00 24.20
258.00 23.77
259.00 23.35
260.00 22.94
261.00 22.56
262.00 22.19
263.00 21.84
264.00 21.50
265.00 21.18
266.00 20.88
267.00 20.59
268.00 20.31
269.00 20.03
270.00 19.77
271.00 19.51
272.00 19.25
273.00 18.99
274.00 18.74
275.00 18.47
276.00 18.21
277.00 17.94
278.00 17.66
279.00 17.38
280.00 17.09
281.00 16.79
282.00 16.49
283.00 16.18
284.00 15.87
285.00 15.56
286.00 15.25
287.00 14.93
288.00 14.61
289.00 14.30
290.00 13.99
291.00 13.68
292.00 13.37
293.00 13.06
294.00 12.76
295.00 12.47
296.00 12.17
297.00 11.89
298.00 11.61
299.00 11.33
300.00 11.06
301.00 10.79
302.00 10.53
303.00 10.28
304.00 10.02
305.00 9.78
306.00 9.54
307.00 9.29
308.00 9.06
309.00 8.83
310.00 8.60
311.00 8.37
312.00 8.14
313.00 7.91
314.00 7.68
315.00 7.46
316.00 7.22
317.00 6.99
318.00 6.75
319.00 6.51
320.00 6.27
321.00 6.02
322.00 5.77
323.00 5.51
324.00 5.25
325.00 4.99
326.00 4.73
327.00 4.47
328.00 4.21
329.00 3.95
330.00 3.69
331.00 3.44
332.00 3.19
333.00 2.95
334.00 2.71
335.00 2.48
336.00 2.27
337.00 2.06
338.00 1.86
339.00 1.67
340.00 1.49
341.00 1.32
342.00 1.17
343.00 1.02
344.00 0.89
345.00 0.76
346.00 0.65
347.00 0.55
348.00 0.46
349.00 0.37
350.00 0.30
351.00 0.24
352.00 0.18
353.00 0.13
354.00 0.09
355.00 0.06
356.00 0.04
357.00 0.02
358.00 0.01
359.00 0.00
VERTICAL 360
0.00 1.81
1.00 0.59
2.00 0.03
3.00 0.14
4.00 0.96
5.00 2.62
6.00 5.37
7.00 9.82
8.00 18.31
9.00 26.88
10.00 16.41
11.00 14.03
12.00 14.42
13.00 17.40
14.00 25.71
15.00 24.96
16.00 16.97
17.00 13.87
18.00 12.86
19.00 13.30
20.00 14.98
21.00 17.80
22.00 21.12
23.00 22.01
24.00 20.09
25.00 18.52
26.00 18.24
27.00 19.51
28.00 22.86
29.00 27.52
30.00 24.09
31.00 19.83
32.00 17.57
33.00 16.53
34.00 16.25
35.00 16.44
36.00 17.00
37.00 17.90
38.00 19.14
39.00 20.56
40.00 21.91
41.00 22.86
42.00 23.19
43.00 22.98
44.00 22.69
45.00 22.73
46.00 23.29
47.00 24.31
48.00 25.53
49.00 26.58
50.00 27.28
51.00 27.92
52.00 28.96
53.00 30.70
54.00 32.43
55.00 31.89
56.00 29.87
57.00 28.49
58.00 28.14
59.00 28.57
60.00 29.33
61.00 29.93
62.00 30.11
63.00 30.09
64.00 30.27
65.00 30.94
66.00 32.03
67.00 33.22
68.00 34.27
69.00 35.37
70.00 36.68
71.00 38.33
72.00 40.56
73.00 43.53
74.00 47.33
75.00 54.63
76.00 51.36
77.00 42.78
78.00 38.78
79.00 36.92
80.00 36.23
81.00 35.78
82.00 34.85
83.00 33.61
84.00 32.78
85.00 32.86
86.00 34.06
87.00 36.22
88.00 38.61
89.00 40.32
90.00 40.90
91.00 39.94
92.00 38.75
93.00 38.86
94.00 40.71
95.00 43.66
96.00 45.26
97.00 45.58
98.00 46.12
99.00 46.03
100.00 45.88
101.00 46.76
102.00 47.14
103.00 45.62
104.00 44.32
105.00 44.08
106.00 44.66
107.00 45.99
108.00 47.15
109.00 45.66
110.00 43.31
111.00 42.25
112.00 42.67
113.00 44.05
114.00 44.48
115.00 42.42
116.00 40.01
117.00 38.70
118.00 38.73
119.00 39.82
120.00 40.61
121.00 39.89
122.00 39.16
123.00 39.82
124.00 42.15
125.00 44.58
126.00 44.31
127.00 44.64
128.00 48.80
129.00 49.17
130.00 41.84
131.00 38.16
132.00 36.26
133.00 34.99
134.00 33.93
135.00 33.29
136.00 33.32
137.00 34.03
138.00 35.18
139.00 36.29
140.00 36.96
141.00 37.31
142.00 37.77
143.00 38.60
144.00 39.48
145.00 39.45
146.00 38.30
147.00 36.95
148.00 36.25
149.00 36.79
150.00 39.05
151.00 42.21
152.00 40.82
153.00 38.35
154.00 38.11
155.00 39.61
156.00 40.04
157.00 38.44
158.00 37.54
159.00 37.10
160.00 35.43
161.00 33.45
162.00 32.63
163.00 33.36
164.00 35.45
165.00 37.67
166.00 38.12
167.00 37.96
168.00 38.27
169.00 38.23
170.00 37.48
171.00 37.05
172.00 37.56
173.00 38.54
174.00 38.49
175.00 37.03
176.00 35.52
177.00 34.64
178.00 34.39
179.00 34.54
180.00 34.76
181.00 34.84
182.00 34.93
183.00 35.42
184.00 36.82
185.00 39.73
186.00 45.45
187.00 54.26
188.00 46.53
189.00 42.82
190.00 41.27
191.00 40.34
192.00 39.45
193.00 38.99
194.00 39.78
195.00 43.06
196.00 52.97
197.00 45.99
198.00 39.66
199.00 37.07
200.00 36.30
201.00 36.79
202.00 38.32
203.00 39.99
204.00 39.35
205.00 37.04
206.00 35.38
207.00 34.82
208.00 35.22
209.00 36.31
210.00 37.64
211.00 38.03
212.00 36.41
213.00 33.94
214.00 31.93
215.00 30.81
216.00 30.71
217.00 31.64
218.00 33.44
219.00 35.55
220.00 37.22
221.00 38.75
222.00 41.31
223.00 45.29
224.00 45.12
225.00 41.22
226.00 38.94
227.00 38.34
228.00 39.24
229.00 41.71
230.00 46.13
231.00 53.64
232.00 63.98
233.00 61.05
234.00 60.49
235.00 58.08
236.00 56.44
237.00 59.29
238.00 61.33
239.00 51.48
240.00 46.69
241.00 44.34
242.00 43.36
243.00 43.10
244.00 43.19
245.00 43.61
246.00 44.66
247.00 46.97
248.00 52.50
249.00 62.23
250.00 47.28
251.00 41.48
252.00 38.11
253.00 36.14
254.00 35.19
255.00 35.01
256.00 35.34
257.00 35.89
258.00 36.46
259.00 37.00
260.00 37.76
261.00 39.04
262.00 41.09
263.00 43.64
264.00 45.30
265.00 44.49
266.00 42.50
267.00 40.89
268.00 40.12
269.00 40.00
270.00 40.03
271.00 39.88
272.00 39.77
273.00 39.71
274.00 39.17
275.00 37.81
276.00 36.02
277.00 34.20
278.00 32.60
279.00 31.33
280.00 30.41
281.00 29.76
282.00 29.23
283.00 28.70
284.00 28.12
285.00 27.57
286.00 27.17
287.00 27.00
288.00 27.13
289.00 27.58
290.00 28.36
291.00 29.55
292.00 31.24
293.00 33.55
294.00 36.06
295.00 36.26
296.00 33.52
297.00 30.75
298.00 28.80
299.00 27.65
300.00 27.25
301.00 27.57
302.00 28.70
303.00 30.85
304.00 34.67
305.00 43.57
306.00 42.71
307.00 32.88
308.00 28.04
309.00 24.93
310.00 22.90
311.00 21.70
312.00 21.22
313.00 21.33
314.00 21.93
315.00 22.80
316.00 23.53
317.00 23.46
318.00 22.35
319.00 20.76
320.00 19.32
321.00 18.28
322.00 17.67
323.00 17.42
324.00 17.44
325.00 17.65
326.00 18.07
327.00 18.89
328.00 20.50
329.00 23.67
330.00 30.18
331.00 29.67
332.00 22.91
333.00 19.66
334.00 18.34
335.00 18.45
336.00 20.00
337.00 23.70
338.00 32.70
339.00 30.26
340.00 23.55
341.00 21.46
342.00 22.11
343.00 26.06
344.00 33.01
345.00 24.36
346.00 19.46
347.00 17.18
348.00 16.51
349.00 17.26
350.00 19.68
351.00 24.89
352.00 40.78
353.00 31.53
354.00 26.79
355.00 21.83
356.00 15.40
357.00 10.26
358.00 6.48
359.00 3.73
