NAME ATR4518R7_1950_X_CO_P45_03T_yL
FREQUENCY 1950
GAIN 15.22 dBd
TILT	ELECTRICAL
COMMENT DATE 05.08.2013 +45 degrees polarized system Lever position 03T deg
HORIZONTAL 360
0.00 0.12
1.00 0.09
2.00 0.06
3.00 0.04
4.00 0.02
5.00 0.01
6.00 0.00
7.00 0.00
8.00 0.01
9.00 0.02
10.00 0.05
11.00 0.08
12.00 0.12
13.00 0.16
14.00 0.22
15.00 0.28
16.00 0.35
17.00 0.43
18.00 0.52
19.00 0.61
20.00 0.71
21.00 0.82
22.00 0.93
23.00 1.05
24.00 1.18
25.00 1.31
26.00 1.45
27.00 1.59
28.00 1.74
29.00 1.90
30.00 2.06
31.00 2.22
32.00 2.39
33.00 2.57
34.00 2.75
35.00 2.93
36.00 3.12
37.00 3.32
38.00 3.52
39.00 3.73
40.00 3.94
41.00 4.15
42.00 4.37
43.00 4.59
44.00 4.81
45.00 5.03
46.00 5.25
47.00 5.48
48.00 5.70
49.00 5.93
50.00 6.15
51.00 6.37
52.00 6.59
53.00 6.82
54.00 7.04
55.00 7.26
56.00 7.48
57.00 7.70
58.00 7.92
59.00 8.14
60.00 8.37
61.00 8.60
62.00 8.83
63.00 9.06
64.00 9.30
65.00 9.54
66.00 9.79
67.00 10.05
68.00 10.31
69.00 10.58
70.00 10.85
71.00 11.13
72.00 11.42
73.00 11.71
74.00 12.01
75.00 12.32
76.00 12.63
77.00 12.95
78.00 13.26
79.00 13.59
80.00 13.92
81.00 14.25
82.00 14.59
83.00 14.93
84.00 15.27
85.00 15.62
86.00 15.96
87.00 16.31
88.00 16.66
89.00 17.01
90.00 17.37
91.00 17.73
92.00 18.09
93.00 18.45
94.00 18.81
95.00 19.18
96.00 19.56
97.00 19.93
98.00 20.31
99.00 20.69
100.00 21.07
101.00 21.46
102.00 21.84
103.00 22.22
104.00 22.60
105.00 22.97
106.00 23.35
107.00 23.72
108.00 24.08
109.00 24.45
110.00 24.82
111.00 25.20
112.00 25.59
113.00 25.99
114.00 26.42
115.00 26.87
116.00 27.35
117.00 27.87
118.00 28.43
119.00 29.04
120.00 29.70
121.00 30.41
122.00 31.19
123.00 32.03
124.00 32.93
125.00 33.91
126.00 34.94
127.00 36.03
128.00 37.17
129.00 38.36
130.00 39.57
131.00 40.81
132.00 42.08
133.00 43.38
134.00 44.76
135.00 46.27
136.00 47.99
137.00 49.96
138.00 52.05
139.00 53.42
140.00 52.72
141.00 50.54
142.00 48.20
143.00 46.19
144.00 44.53
145.00 43.18
146.00 42.10
147.00 41.24
148.00 40.58
149.00 40.08
150.00 39.74
151.00 39.51
152.00 39.38
153.00 39.30
154.00 39.24
155.00 39.14
156.00 38.96
157.00 38.65
158.00 38.19
159.00 37.60
160.00 36.93
161.00 36.22
162.00 35.50
163.00 34.82
164.00 34.20
165.00 33.66
166.00 33.19
167.00 32.82
168.00 32.54
169.00 32.35
170.00 32.25
171.00 32.24
172.00 32.31
173.00 32.46
174.00 32.68
175.00 32.96
176.00 33.27
177.00 33.60
178.00 33.90
179.00 34.15
180.00 34.29
181.00 34.32
182.00 34.23
183.00 34.04
184.00 33.78
185.00 33.49
186.00 33.20
187.00 32.96
188.00 32.78
189.00 32.69
190.00 32.69
191.00 32.80
192.00 33.03
193.00 33.40
194.00 33.91
195.00 34.60
196.00 35.48
197.00 36.60
198.00 37.99
199.00 39.70
200.00 41.72
201.00 43.74
202.00 44.70
203.00 43.69
204.00 41.65
205.00 39.64
206.00 37.92
207.00 36.53
208.00 35.41
209.00 34.52
210.00 33.83
211.00 33.32
212.00 32.96
213.00 32.74
214.00 32.66
215.00 32.71
216.00 32.90
217.00 33.22
218.00 33.68
219.00 34.30
220.00 35.09
221.00 36.09
222.00 37.32
223.00 38.86
224.00 40.75
225.00 43.06
226.00 45.52
227.00 46.74
228.00 45.35
229.00 42.86
230.00 40.57
231.00 38.67
232.00 37.12
233.00 35.85
234.00 34.80
235.00 33.93
236.00 33.20
237.00 32.59
238.00 32.10
239.00 31.69
240.00 31.37
241.00 31.12
242.00 30.93
243.00 30.80
244.00 30.71
245.00 30.67
246.00 30.66
247.00 30.66
248.00 30.66
249.00 30.65
250.00 30.60
251.00 30.50
252.00 30.34
253.00 30.10
254.00 29.78
255.00 29.38
256.00 28.92
257.00 28.41
258.00 27.86
259.00 27.30
260.00 26.73
261.00 26.17
262.00 25.63
263.00 25.10
264.00 24.61
265.00 24.13
266.00 23.69
267.00 23.27
268.00 22.88
269.00 22.52
270.00 22.17
271.00 21.85
272.00 21.54
273.00 21.25
274.00 20.96
275.00 20.69
276.00 20.41
277.00 20.14
278.00 19.86
279.00 19.58
280.00 19.29
281.00 18.99
282.00 18.68
283.00 18.35
284.00 18.02
285.00 17.68
286.00 17.33
287.00 16.98
288.00 16.62
289.00 16.26
290.00 15.90
291.00 15.54
292.00 15.18
293.00 14.83
294.00 14.48
295.00 14.13
296.00 13.79
297.00 13.46
298.00 13.13
299.00 12.80
300.00 12.48
301.00 12.15
302.00 11.83
303.00 11.51
304.00 11.19
305.00 10.87
306.00 10.54
307.00 10.22
308.00 9.89
309.00 9.55
310.00 9.21
311.00 8.88
312.00 8.54
313.00 8.20
314.00 7.86
315.00 7.52
316.00 7.19
317.00 6.86
318.00 6.53
319.00 6.21
320.00 5.90
321.00 5.59
322.00 5.29
323.00 5.00
324.00 4.73
325.00 4.45
326.00 4.19
327.00 3.94
328.00 3.70
329.00 3.47
330.00 3.24
331.00 3.03
332.00 2.83
333.00 2.63
334.00 2.45
335.00 2.27
336.00 2.10
337.00 1.94
338.00 1.79
339.00 1.65
340.00 1.52
341.00 1.40
342.00 1.28
343.00 1.17
344.00 1.07
345.00 0.98
346.00 0.89
347.00 0.81
348.00 0.74
349.00 0.67
350.00 0.60
351.00 0.54
352.00 0.48
353.00 0.43
354.00 0.37
355.00 0.33
356.00 0.28
357.00 0.24
358.00 0.19
359.00 0.16
VERTICAL 360
0.00 3.32
1.00 1.45
2.00 0.37
3.00 0.00
4.00 0.34
5.00 1.47
6.00 3.55
7.00 6.99
8.00 12.95
9.00 28.61
10.00 18.93
11.00 14.63
12.00 14.40
13.00 17.14
14.00 24.98
15.00 22.97
16.00 16.12
17.00 13.41
18.00 12.77
19.00 13.69
20.00 16.21
21.00 21.16
22.00 29.19
23.00 23.54
24.00 19.40
25.00 18.11
26.00 18.73
27.00 21.07
28.00 25.20
29.00 28.95
30.00 26.83
31.00 23.85
32.00 21.86
33.00 20.58
34.00 19.85
35.00 19.53
36.00 19.51
37.00 19.62
38.00 19.66
39.00 19.48
40.00 19.10
41.00 18.72
42.00 18.51
43.00 18.51
44.00 18.70
45.00 19.09
46.00 19.77
47.00 20.88
48.00 22.45
49.00 24.48
50.00 27.00
51.00 30.37
52.00 36.04
53.00 46.50
54.00 34.98
55.00 29.86
56.00 27.43
57.00 26.50
58.00 26.61
59.00 27.49
60.00 28.96
61.00 30.85
62.00 33.06
63.00 35.54
64.00 38.40
65.00 42.06
66.00 46.57
67.00 47.05
68.00 43.90
69.00 41.73
70.00 40.28
71.00 39.18
72.00 38.57
73.00 38.50
74.00 38.73
75.00 38.77
76.00 38.18
77.00 37.18
78.00 36.47
79.00 36.55
80.00 37.61
81.00 39.62
82.00 42.07
83.00 42.66
84.00 40.69
85.00 39.34
86.00 40.09
87.00 43.60
88.00 46.17
89.00 42.47
90.00 41.09
91.00 42.37
92.00 44.15
93.00 44.40
94.00 46.28
95.00 53.00
96.00 51.43
97.00 47.81
98.00 48.75
99.00 48.35
100.00 45.51
101.00 45.07
102.00 47.41
103.00 51.33
104.00 53.74
105.00 52.91
106.00 49.40
107.00 47.32
108.00 47.12
109.00 47.20
110.00 46.63
111.00 46.71
112.00 48.02
113.00 49.63
114.00 50.07
115.00 49.47
116.00 49.28
117.00 49.79
118.00 46.99
119.00 42.22
120.00 38.97
121.00 37.37
122.00 37.18
123.00 38.27
124.00 40.52
125.00 43.84
126.00 48.84
127.00 60.05
128.00 50.41
129.00 44.50
130.00 42.34
131.00 42.18
132.00 42.31
133.00 40.58
134.00 38.11
135.00 36.42
136.00 35.59
137.00 35.17
138.00 34.56
139.00 33.52
140.00 32.48
141.00 31.92
142.00 32.07
143.00 33.01
144.00 34.77
145.00 37.31
146.00 40.33
147.00 42.93
148.00 43.91
149.00 43.71
150.00 43.97
151.00 44.30
152.00 41.28
153.00 37.74
154.00 36.17
155.00 36.88
156.00 40.16
157.00 45.25
158.00 45.59
159.00 44.81
160.00 43.30
161.00 39.74
162.00 37.73
163.00 37.99
164.00 40.07
165.00 41.14
166.00 39.50
167.00 38.44
168.00 38.59
169.00 39.02
170.00 39.19
171.00 40.03
172.00 42.96
173.00 47.88
174.00 42.52
175.00 37.32
176.00 34.48
177.00 33.08
178.00 32.68
179.00 33.01
180.00 33.76
181.00 34.63
182.00 35.45
183.00 36.22
184.00 37.02
185.00 37.97
186.00 38.83
187.00 38.70
188.00 37.65
189.00 36.82
190.00 36.51
191.00 36.27
192.00 36.18
193.00 37.05
194.00 39.67
195.00 44.14
196.00 47.53
197.00 50.25
198.00 68.89
199.00 45.87
200.00 40.11
201.00 37.69
202.00 37.00
203.00 37.42
204.00 38.64
205.00 40.07
206.00 40.36
207.00 39.22
208.00 38.11
209.00 37.44
210.00 36.27
211.00 34.23
212.00 32.39
213.00 31.60
214.00 32.12
215.00 33.80
216.00 35.57
217.00 35.98
218.00 36.31
219.00 38.24
220.00 41.00
221.00 39.44
222.00 36.74
223.00 35.73
224.00 36.06
225.00 37.11
226.00 38.32
227.00 38.99
228.00 38.46
229.00 37.13
230.00 36.01
231.00 35.50
232.00 35.52
233.00 35.84
234.00 36.36
235.00 37.22
236.00 38.62
237.00 40.72
238.00 43.50
239.00 46.86
240.00 50.57
241.00 53.35
242.00 51.24
243.00 47.60
244.00 45.51
245.00 45.09
246.00 46.14
247.00 48.39
248.00 51.17
249.00 52.33
250.00 50.81
251.00 47.75
252.00 44.18
253.00 41.21
254.00 39.24
255.00 38.04
256.00 37.22
257.00 36.48
258.00 35.76
259.00 35.10
260.00 34.51
261.00 34.14
262.00 34.14
263.00 34.61
264.00 35.52
265.00 36.68
266.00 37.71
267.00 38.07
268.00 37.49
269.00 36.12
270.00 34.39
271.00 32.66
272.00 31.21
273.00 30.24
274.00 29.82
275.00 29.90
276.00 30.37
277.00 31.07
278.00 31.91
279.00 32.90
280.00 34.09
281.00 35.36
282.00 36.19
283.00 36.10
284.00 35.54
285.00 35.19
286.00 35.42
287.00 36.45
288.00 37.61
289.00 36.12
290.00 32.63
291.00 29.78
292.00 27.97
293.00 27.03
294.00 26.82
295.00 27.31
296.00 28.59
297.00 30.80
298.00 33.70
299.00 35.09
300.00 33.35
301.00 30.86
302.00 28.56
303.00 26.59
304.00 25.17
305.00 24.41
306.00 24.37
307.00 25.09
308.00 26.66
309.00 29.37
310.00 33.80
311.00 35.79
312.00 30.16
313.00 26.13
314.00 23.88
315.00 22.82
316.00 22.63
317.00 23.08
318.00 24.08
319.00 25.44
320.00 26.60
321.00 26.50
322.00 25.01
323.00 23.16
324.00 21.50
325.00 20.09
326.00 18.90
327.00 17.96
328.00 17.36
329.00 17.26
330.00 17.87
331.00 19.54
332.00 22.98
333.00 30.21
334.00 30.09
335.00 22.98
336.00 19.70
337.00 18.40
338.00 18.66
339.00 20.72
340.00 26.04
341.00 47.42
342.00 25.88
343.00 21.32
344.00 20.19
345.00 21.63
346.00 27.19
347.00 38.06
348.00 23.54
349.00 19.41
350.00 18.26
351.00 19.21
352.00 22.18
353.00 26.32
354.00 27.70
355.00 30.26
356.00 27.50
357.00 16.67
358.00 10.35
359.00 6.17
