NAME ATR4518R7_0847_X_CO_M45_09T
FREQUENCY 0847
GAIN 14.46 dBd
TILT	ELECTRICAL
COMMENT DATE 05.08.2013 -45 degrees polarized system Lever position 09T deg
HORIZONTAL 360
0.00 0.00
1.00 0.01
2.00 0.02
3.00 0.04
4.00 0.07
5.00 0.10
6.00 0.14
7.00 0.18
8.00 0.23
9.00 0.28
10.00 0.35
11.00 0.42
12.00 0.49
13.00 0.57
14.00 0.66
15.00 0.75
16.00 0.85
17.00 0.96
18.00 1.07
19.00 1.19
20.00 1.32
21.00 1.45
22.00 1.59
23.00 1.73
24.00 1.88
25.00 2.04
26.00 2.20
27.00 2.37
28.00 2.55
29.00 2.73
30.00 2.92
31.00 3.11
32.00 3.32
33.00 3.52
34.00 3.74
35.00 3.96
36.00 4.19
37.00 4.42
38.00 4.66
39.00 4.90
40.00 5.16
41.00 5.41
42.00 5.68
43.00 5.95
44.00 6.22
45.00 6.50
46.00 6.80
47.00 7.09
48.00 7.39
49.00 7.69
50.00 8.00
51.00 8.32
52.00 8.64
53.00 8.97
54.00 9.30
55.00 9.63
56.00 9.98
57.00 10.33
58.00 10.68
59.00 11.04
60.00 11.40
61.00 11.76
62.00 12.13
63.00 12.51
64.00 12.88
65.00 13.27
66.00 13.65
67.00 14.05
68.00 14.44
69.00 14.84
70.00 15.24
71.00 15.65
72.00 16.07
73.00 16.48
74.00 16.91
75.00 17.33
76.00 17.76
77.00 18.20
78.00 18.65
79.00 19.09
80.00 19.55
81.00 20.01
82.00 20.48
83.00 20.95
84.00 21.44
85.00 21.93
86.00 22.43
87.00 22.93
88.00 23.45
89.00 23.97
90.00 24.50
91.00 25.04
92.00 25.59
93.00 26.14
94.00 26.70
95.00 27.26
96.00 27.84
97.00 28.41
98.00 28.98
99.00 29.55
100.00 30.12
101.00 30.67
102.00 31.22
103.00 31.76
104.00 32.27
105.00 32.77
106.00 33.25
107.00 33.69
108.00 34.11
109.00 34.52
110.00 34.89
111.00 35.24
112.00 35.57
113.00 35.89
114.00 36.19
115.00 36.48
116.00 36.77
117.00 37.05
118.00 37.33
119.00 37.63
120.00 37.92
121.00 38.22
122.00 38.52
123.00 38.83
124.00 39.14
125.00 39.44
126.00 39.75
127.00 40.03
128.00 40.30
129.00 40.54
130.00 40.74
131.00 40.90
132.00 41.02
133.00 41.08
134.00 41.10
135.00 41.07
136.00 40.99
137.00 40.89
138.00 40.76
139.00 40.62
140.00 40.47
141.00 40.32
142.00 40.17
143.00 40.04
144.00 39.92
145.00 39.83
146.00 39.75
147.00 39.71
148.00 39.70
149.00 39.72
150.00 39.76
151.00 39.84
152.00 39.96
153.00 40.10
154.00 40.29
155.00 40.50
156.00 40.76
157.00 41.04
158.00 41.34
159.00 41.67
160.00 42.01
161.00 42.37
162.00 42.70
163.00 43.00
164.00 43.23
165.00 43.39
166.00 43.45
167.00 43.39
168.00 43.21
169.00 42.92
170.00 42.53
171.00 42.08
172.00 41.59
173.00 41.07
174.00 40.55
175.00 40.03
176.00 39.54
177.00 39.06
178.00 38.62
179.00 38.20
180.00 37.81
181.00 37.46
182.00 37.14
183.00 36.86
184.00 36.60
185.00 36.38
186.00 36.19
187.00 36.03
188.00 35.91
189.00 35.81
190.00 35.75
191.00 35.72
192.00 35.71
193.00 35.74
194.00 35.81
195.00 35.91
196.00 36.04
197.00 36.20
198.00 36.41
199.00 36.65
200.00 36.93
201.00 37.26
202.00 37.63
203.00 38.06
204.00 38.54
205.00 39.07
206.00 39.67
207.00 40.35
208.00 41.10
209.00 41.95
210.00 42.89
211.00 43.94
212.00 45.08
213.00 46.25
214.00 47.40
215.00 48.27
216.00 48.60
217.00 48.23
218.00 47.32
219.00 46.12
220.00 44.86
221.00 43.62
222.00 42.49
223.00 41.45
224.00 40.50
225.00 39.62
226.00 38.82
227.00 38.08
228.00 37.40
229.00 36.75
230.00 36.15
231.00 35.58
232.00 35.04
233.00 34.51
234.00 34.01
235.00 33.53
236.00 33.05
237.00 32.59
238.00 32.13
239.00 31.67
240.00 31.22
241.00 30.76
242.00 30.31
243.00 29.86
244.00 29.41
245.00 28.95
246.00 28.50
247.00 28.04
248.00 27.59
249.00 27.13
250.00 26.67
251.00 26.22
252.00 25.77
253.00 25.32
254.00 24.87
255.00 24.43
256.00 23.99
257.00 23.56
258.00 23.13
259.00 22.71
260.00 22.29
261.00 21.88
262.00 21.47
263.00 21.07
264.00 20.68
265.00 20.29
266.00 19.91
267.00 19.54
268.00 19.17
269.00 18.81
270.00 18.45
271.00 18.10
272.00 17.75
273.00 17.41
274.00 17.07
275.00 16.74
276.00 16.41
277.00 16.09
278.00 15.77
279.00 15.45
280.00 15.14
281.00 14.83
282.00 14.53
283.00 14.22
284.00 13.92
285.00 13.63
286.00 13.33
287.00 13.04
288.00 12.75
289.00 12.46
290.00 12.17
291.00 11.88
292.00 11.60
293.00 11.31
294.00 11.03
295.00 10.75
296.00 10.47
297.00 10.20
298.00 9.92
299.00 9.64
300.00 9.37
301.00 9.10
302.00 8.83
303.00 8.56
304.00 8.29
305.00 8.03
306.00 7.77
307.00 7.51
308.00 7.25
309.00 7.00
310.00 6.75
311.00 6.50
312.00 6.25
313.00 6.01
314.00 5.77
315.00 5.54
316.00 5.30
317.00 5.08
318.00 4.85
319.00 4.63
320.00 4.42
321.00 4.20
322.00 4.00
323.00 3.79
324.00 3.60
325.00 3.40
326.00 3.21
327.00 3.03
328.00 2.85
329.00 2.67
330.00 2.50
331.00 2.34
332.00 2.18
333.00 2.03
334.00 1.88
335.00 1.74
336.00 1.60
337.00 1.46
338.00 1.34
339.00 1.22
340.00 1.10
341.00 0.99
342.00 0.89
343.00 0.79
344.00 0.69
345.00 0.61
346.00 0.53
347.00 0.45
348.00 0.38
349.00 0.32
350.00 0.26
351.00 0.20
352.00 0.16
353.00 0.12
354.00 0.08
355.00 0.05
356.00 0.03
357.00 0.01
358.00 0.00
359.00 0.00
VERTICAL 360
0.00 18.99
1.00 13.62
2.00 9.75
3.00 6.82
4.00 4.57
5.00 2.86
6.00 1.59
7.00 0.72
8.00 0.20
9.00 0.00
10.00 0.12
11.00 0.56
12.00 1.34
13.00 2.50
14.00 4.08
15.00 6.16
16.00 8.87
17.00 12.41
18.00 17.28
19.00 24.55
20.00 28.86
21.00 24.20
22.00 22.24
23.00 22.31
24.00 24.12
25.00 28.35
26.00 39.34
27.00 32.46
28.00 25.84
29.00 22.76
30.00 21.30
31.00 20.89
32.00 21.31
33.00 22.45
34.00 24.26
35.00 26.68
36.00 29.63
37.00 32.91
38.00 36.19
39.00 39.34
40.00 42.59
41.00 45.65
42.00 43.86
43.00 38.37
44.00 33.80
45.00 30.41
46.00 27.97
47.00 26.22
48.00 24.99
49.00 24.15
50.00 23.67
51.00 23.59
52.00 23.95
53.00 24.86
54.00 26.46
55.00 28.99
56.00 32.94
57.00 40.16
58.00 45.69
59.00 35.93
60.00 31.63
61.00 29.29
62.00 27.97
63.00 27.36
64.00 27.29
65.00 27.51
66.00 27.45
67.00 26.77
68.00 25.94
69.00 25.49
70.00 25.65
71.00 26.50
72.00 28.07
73.00 30.21
74.00 32.11
75.00 32.73
76.00 32.50
77.00 32.58
78.00 33.92
79.00 37.97
80.00 46.59
81.00 38.89
82.00 34.86
83.00 34.13
84.00 34.59
85.00 33.72
86.00 31.55
87.00 29.58
88.00 28.24
89.00 27.68
90.00 28.01
91.00 28.89
92.00 29.32
93.00 28.71
94.00 27.82
95.00 27.31
96.00 27.40
97.00 28.23
98.00 29.96
99.00 32.62
100.00 35.87
101.00 38.73
102.00 39.83
103.00 39.25
104.00 38.42
105.00 37.89
106.00 37.56
107.00 37.88
108.00 39.77
109.00 43.84
110.00 44.25
111.00 39.09
112.00 35.41
113.00 33.11
114.00 31.98
115.00 31.99
116.00 33.04
117.00 34.76
118.00 36.00
119.00 35.45
120.00 33.90
121.00 32.74
122.00 32.46
123.00 33.03
124.00 34.15
125.00 35.26
126.00 35.78
127.00 35.60
128.00 35.16
129.00 34.97
130.00 35.18
131.00 35.62
132.00 35.93
133.00 35.82
134.00 35.44
135.00 35.09
136.00 34.95
137.00 34.93
138.00 34.84
139.00 34.49
140.00 33.93
141.00 33.42
142.00 33.18
143.00 33.31
144.00 33.74
145.00 34.26
146.00 34.73
147.00 35.19
148.00 35.77
149.00 36.54
150.00 37.36
151.00 38.10
152.00 38.90
153.00 40.09
154.00 41.59
155.00 42.58
156.00 41.71
157.00 39.40
158.00 37.28
159.00 36.09
160.00 36.02
161.00 36.95
162.00 38.40
163.00 39.34
164.00 39.34
165.00 38.60
166.00 37.74
167.00 37.04
168.00 36.67
169.00 36.75
170.00 37.25
171.00 38.01
172.00 38.45
173.00 38.88
174.00 39.33
175.00 39.89
176.00 40.48
177.00 40.85
178.00 40.91
179.00 40.85
180.00 40.82
181.00 40.73
182.00 40.51
183.00 40.09
184.00 39.59
185.00 39.27
186.00 39.43
187.00 39.97
188.00 40.27
189.00 40.01
190.00 39.64
191.00 39.51
192.00 39.77
193.00 40.61
194.00 42.05
195.00 43.24
196.00 43.21
197.00 42.79
198.00 42.96
199.00 43.95
200.00 46.14
201.00 50.79
202.00 56.46
203.00 48.52
204.00 43.55
205.00 40.68
206.00 39.02
207.00 38.16
208.00 37.69
209.00 37.33
210.00 37.05
211.00 36.89
212.00 36.98
213.00 37.67
214.00 39.39
215.00 41.61
216.00 41.22
217.00 38.58
218.00 36.37
219.00 34.92
220.00 34.20
221.00 34.17
222.00 34.59
223.00 35.00
224.00 35.20
225.00 35.20
226.00 34.82
227.00 34.15
228.00 33.88
229.00 34.58
230.00 36.36
231.00 38.70
232.00 40.09
233.00 39.07
234.00 36.79
235.00 34.84
236.00 33.79
237.00 33.61
238.00 33.85
239.00 33.77
240.00 33.29
241.00 33.10
242.00 33.66
243.00 34.98
244.00 36.59
245.00 37.70
246.00 37.75
247.00 36.84
248.00 35.68
249.00 34.96
250.00 34.96
251.00 35.61
252.00 36.60
253.00 37.40
254.00 37.63
255.00 37.68
256.00 38.18
257.00 39.27
258.00 40.40
259.00 40.76
260.00 40.34
261.00 39.44
262.00 38.22
263.00 37.06
264.00 36.37
265.00 36.34
266.00 36.83
267.00 37.32
268.00 37.11
269.00 35.98
270.00 34.49
271.00 33.55
272.00 33.93
273.00 36.27
274.00 41.00
275.00 41.14
276.00 36.98
277.00 34.92
278.00 34.25
279.00 34.43
280.00 35.48
281.00 37.23
282.00 37.52
283.00 35.25
284.00 32.97
285.00 31.55
286.00 30.98
287.00 31.35
288.00 32.81
289.00 35.28
290.00 37.36
291.00 36.60
292.00 34.57
293.00 33.09
294.00 32.53
295.00 32.99
296.00 34.48
297.00 36.79
298.00 39.28
299.00 41.13
300.00 42.42
301.00 44.09
302.00 45.71
303.00 44.49
304.00 41.99
305.00 40.55
306.00 40.06
307.00 39.71
308.00 39.05
309.00 38.63
310.00 39.43
311.00 42.72
312.00 43.30
313.00 35.47
314.00 30.31
315.00 27.03
316.00 24.91
317.00 23.55
318.00 22.69
319.00 22.16
320.00 21.93
321.00 22.05
322.00 22.70
323.00 24.13
324.00 26.81
325.00 31.85
326.00 38.24
327.00 30.74
328.00 25.90
329.00 23.19
330.00 21.67
331.00 20.96
332.00 20.88
333.00 21.36
334.00 22.40
335.00 24.15
336.00 26.89
337.00 30.83
338.00 32.93
339.00 29.69
340.00 26.92
341.00 25.79
342.00 26.19
343.00 28.12
344.00 30.31
345.00 28.09
346.00 24.17
347.00 21.37
348.00 19.68
349.00 18.93
350.00 19.05
351.00 20.11
352.00 22.36
353.00 26.32
354.00 32.12
355.00 31.66
356.00 28.66
357.00 29.04
358.00 34.42
359.00 27.48
