NAME ATR4518R7_2350_X_CO_M45_08T_yyR
FREQUENCY 2350
GAIN 15.00 dBd
TILT	ELECTRICAL
COMMENT DATE 05.08.2013 -45 degrees polarized system Lever position 08T deg
HORIZONTAL 360
0.00 0.00
1.00 0.01
2.00 0.03
3.00 0.06
4.00 0.09
5.00 0.14
6.00 0.19
7.00 0.25
8.00 0.32
9.00 0.40
10.00 0.48
11.00 0.57
12.00 0.67
13.00 0.77
14.00 0.89
15.00 1.00
16.00 1.13
17.00 1.25
18.00 1.39
19.00 1.53
20.00 1.67
21.00 1.82
22.00 1.97
23.00 2.13
24.00 2.30
25.00 2.47
26.00 2.64
27.00 2.82
28.00 3.01
29.00 3.21
30.00 3.41
31.00 3.62
32.00 3.84
33.00 4.07
34.00 4.31
35.00 4.55
36.00 4.81
37.00 5.08
38.00 5.36
39.00 5.64
40.00 5.94
41.00 6.25
42.00 6.57
43.00 6.90
44.00 7.24
45.00 7.59
46.00 7.96
47.00 8.33
48.00 8.71
49.00 9.10
50.00 9.49
51.00 9.90
52.00 10.32
53.00 10.73
54.00 11.17
55.00 11.60
56.00 12.05
57.00 12.50
58.00 12.96
59.00 13.42
60.00 13.90
61.00 14.38
62.00 14.87
63.00 15.38
64.00 15.89
65.00 16.42
66.00 16.96
67.00 17.52
68.00 18.09
69.00 18.69
70.00 19.31
71.00 19.95
72.00 20.62
73.00 21.32
74.00 22.05
75.00 22.81
76.00 23.61
77.00 24.45
78.00 25.33
79.00 26.26
80.00 27.24
81.00 28.26
82.00 29.33
83.00 30.45
84.00 31.61
85.00 32.80
86.00 34.01
87.00 35.19
88.00 36.30
89.00 37.24
90.00 37.94
91.00 38.30
92.00 38.30
93.00 37.99
94.00 37.46
95.00 36.78
96.00 36.05
97.00 35.30
98.00 34.56
99.00 33.87
100.00 33.22
101.00 32.63
102.00 32.11
103.00 31.65
104.00 31.26
105.00 30.95
106.00 30.70
107.00 30.54
108.00 30.45
109.00 30.44
110.00 30.52
111.00 30.69
112.00 30.94
113.00 31.29
114.00 31.75
115.00 32.30
116.00 32.98
117.00 33.77
118.00 34.67
119.00 35.69
120.00 36.79
121.00 37.91
122.00 38.90
123.00 39.60
124.00 39.80
125.00 39.52
126.00 38.90
127.00 38.14
128.00 37.39
129.00 36.71
130.00 36.14
131.00 35.68
132.00 35.32
133.00 35.07
134.00 34.91
135.00 34.82
136.00 34.80
137.00 34.81
138.00 34.85
139.00 34.90
140.00 34.95
141.00 34.98
142.00 35.00
143.00 35.00
144.00 35.00
145.00 35.00
146.00 35.02
147.00 35.09
148.00 35.21
149.00 35.40
150.00 35.68
151.00 36.08
152.00 36.61
153.00 37.28
154.00 38.14
155.00 39.20
156.00 40.52
157.00 42.14
158.00 44.06
159.00 46.13
160.00 47.63
161.00 47.43
162.00 45.79
163.00 43.87
164.00 42.19
165.00 40.84
166.00 39.78
167.00 38.99
168.00 38.43
169.00 38.08
170.00 37.92
171.00 37.95
172.00 38.16
173.00 38.55
174.00 39.14
175.00 39.96
176.00 41.02
177.00 42.36
178.00 44.05
179.00 46.09
180.00 48.41
181.00 50.33
182.00 50.49
183.00 48.96
184.00 47.09
185.00 45.53
186.00 44.37
187.00 43.56
188.00 43.09
189.00 42.93
190.00 43.06
191.00 43.53
192.00 44.36
193.00 45.66
194.00 47.60
195.00 50.62
196.00 55.91
197.00 64.44
198.00 55.20
199.00 49.55
200.00 46.10
201.00 43.68
202.00 41.87
203.00 40.48
204.00 39.40
205.00 38.58
206.00 37.97
207.00 37.55
208.00 37.31
209.00 37.23
210.00 37.31
211.00 37.56
212.00 37.97
213.00 38.57
214.00 39.37
215.00 40.40
216.00 41.69
217.00 43.26
218.00 45.12
219.00 47.06
220.00 48.34
221.00 47.98
222.00 46.34
223.00 44.44
224.00 42.73
225.00 41.30
226.00 40.11
227.00 39.13
228.00 38.32
229.00 37.63
230.00 37.04
231.00 36.53
232.00 36.07
233.00 35.66
234.00 35.26
235.00 34.88
236.00 34.51
237.00 34.16
238.00 33.82
239.00 33.48
240.00 33.18
241.00 32.90
242.00 32.66
243.00 32.46
244.00 32.30
245.00 32.17
246.00 32.09
247.00 32.04
248.00 32.02
249.00 32.00
250.00 31.98
251.00 31.92
252.00 31.80
253.00 31.61
254.00 31.31
255.00 30.91
256.00 30.42
257.00 29.85
258.00 29.22
259.00 28.56
260.00 27.89
261.00 27.22
262.00 26.58
263.00 25.96
264.00 25.38
265.00 24.83
266.00 24.31
267.00 23.82
268.00 23.37
269.00 22.94
270.00 22.53
271.00 22.14
272.00 21.76
273.00 21.40
274.00 21.04
275.00 20.67
276.00 20.30
277.00 19.93
278.00 19.54
279.00 19.15
280.00 18.74
281.00 18.31
282.00 17.88
283.00 17.44
284.00 16.99
285.00 16.53
286.00 16.07
287.00 15.61
288.00 15.16
289.00 14.70
290.00 14.25
291.00 13.80
292.00 13.37
293.00 12.93
294.00 12.51
295.00 12.09
296.00 11.69
297.00 11.29
298.00 10.90
299.00 10.52
300.00 10.14
301.00 9.78
302.00 9.42
303.00 9.07
304.00 8.73
305.00 8.39
306.00 8.06
307.00 7.74
308.00 7.43
309.00 7.12
310.00 6.82
311.00 6.53
312.00 6.24
313.00 5.96
314.00 5.69
315.00 5.42
316.00 5.16
317.00 4.91
318.00 4.66
319.00 4.43
320.00 4.20
321.00 3.98
322.00 3.76
323.00 3.55
324.00 3.36
325.00 3.16
326.00 2.98
327.00 2.80
328.00 2.63
329.00 2.47
330.00 2.31
331.00 2.16
332.00 2.02
333.00 1.88
334.00 1.75
335.00 1.62
336.00 1.50
337.00 1.39
338.00 1.27
339.00 1.17
340.00 1.07
341.00 0.97
342.00 0.88
343.00 0.79
344.00 0.70
345.00 0.62
346.00 0.54
347.00 0.47
348.00 0.40
349.00 0.33
350.00 0.27
351.00 0.22
352.00 0.17
353.00 0.13
354.00 0.09
355.00 0.06
356.00 0.03
357.00 0.01
358.00 0.00
359.00 0.00
VERTICAL 360
0.00 29.60
1.00 28.50
2.00 19.55
3.00 12.71
4.00 7.72
5.00 4.14
6.00 1.73
7.00 0.37
8.00 0.00
9.00 0.68
10.00 2.60
11.00 6.34
12.00 14.26
13.00 25.89
14.00 12.77
15.00 10.19
16.00 10.69
17.00 13.62
18.00 18.42
19.00 18.53
20.00 15.49
21.00 14.82
22.00 16.63
23.00 20.92
24.00 22.58
25.00 18.87
26.00 17.34
27.00 18.62
28.00 24.17
29.00 45.53
30.00 22.17
31.00 17.89
32.00 16.73
33.00 17.52
34.00 20.17
35.00 25.35
36.00 30.71
37.00 26.09
38.00 22.95
39.00 22.28
40.00 23.62
41.00 27.52
42.00 37.67
43.00 34.61
44.00 27.67
45.00 25.59
46.00 25.87
47.00 28.09
48.00 32.06
49.00 34.53
50.00 31.39
51.00 28.06
52.00 25.88
53.00 24.77
54.00 24.84
55.00 26.07
56.00 27.76
57.00 28.24
58.00 27.52
59.00 27.06
60.00 27.23
61.00 27.89
62.00 28.95
63.00 30.59
64.00 33.03
65.00 36.24
66.00 39.65
67.00 42.61
68.00 45.30
69.00 47.39
70.00 45.03
71.00 41.02
72.00 38.34
73.00 36.16
74.00 33.91
75.00 31.91
76.00 30.48
77.00 29.55
78.00 28.88
79.00 28.36
80.00 28.15
81.00 28.31
82.00 28.63
83.00 28.77
84.00 28.71
85.00 28.95
86.00 30.25
87.00 32.60
88.00 33.48
89.00 31.72
90.00 29.77
91.00 28.01
92.00 26.71
93.00 26.36
94.00 26.96
95.00 28.01
96.00 28.88
97.00 29.33
98.00 29.72
99.00 30.51
100.00 31.81
101.00 33.28
102.00 34.37
103.00 34.96
104.00 35.68
105.00 37.30
106.00 40.40
107.00 45.06
108.00 48.38
109.00 46.43
110.00 44.17
111.00 44.04
112.00 46.59
113.00 47.95
114.00 43.81
115.00 41.17
116.00 40.52
117.00 41.39
118.00 43.82
119.00 46.60
120.00 45.72
121.00 44.85
122.00 47.58
123.00 57.62
124.00 54.89
125.00 48.95
126.00 46.60
127.00 44.01
128.00 40.94
129.00 38.42
130.00 36.82
131.00 35.89
132.00 35.33
133.00 35.44
134.00 36.91
135.00 40.80
136.00 50.73
137.00 49.72
138.00 41.92
139.00 38.87
140.00 37.86
141.00 38.84
142.00 42.56
143.00 47.34
144.00 42.72
145.00 39.07
146.00 38.01
147.00 39.03
148.00 42.60
149.00 46.74
150.00 42.17
151.00 39.07
152.00 39.28
153.00 42.20
154.00 44.28
155.00 43.89
156.00 46.19
157.00 45.08
158.00 40.92
159.00 39.53
160.00 37.81
161.00 35.27
162.00 34.54
163.00 36.65
164.00 42.32
165.00 45.78
166.00 41.38
167.00 39.51
168.00 39.93
169.00 42.59
170.00 47.34
171.00 49.61
172.00 46.09
173.00 41.72
174.00 38.50
175.00 36.71
176.00 36.21
177.00 36.75
178.00 37.39
179.00 37.48
180.00 37.21
181.00 37.00
182.00 37.36
183.00 38.58
184.00 40.14
185.00 40.66
186.00 39.68
187.00 38.88
188.00 40.01
189.00 44.37
190.00 53.97
191.00 58.54
192.00 47.57
193.00 40.49
194.00 36.94
195.00 35.62
196.00 35.65
197.00 35.87
198.00 35.16
199.00 33.46
200.00 31.34
201.00 29.43
202.00 28.34
203.00 28.39
204.00 29.52
205.00 31.18
206.00 31.95
207.00 31.06
208.00 29.70
209.00 28.78
210.00 28.62
211.00 29.42
212.00 31.30
213.00 34.09
214.00 36.90
215.00 38.06
216.00 38.29
217.00 39.64
218.00 41.95
219.00 44.41
220.00 51.01
221.00 49.78
222.00 43.05
223.00 43.21
224.00 45.69
225.00 41.25
226.00 37.42
227.00 35.51
228.00 34.40
229.00 33.92
230.00 34.17
231.00 34.95
232.00 35.77
233.00 36.53
234.00 37.40
235.00 37.89
236.00 37.54
237.00 37.70
238.00 39.80
239.00 43.55
240.00 43.03
241.00 39.67
242.00 37.65
243.00 36.66
244.00 36.45
245.00 37.02
246.00 38.42
247.00 40.70
248.00 43.22
249.00 44.12
250.00 42.86
251.00 40.79
252.00 39.03
253.00 37.75
254.00 36.63
255.00 35.96
256.00 36.17
257.00 37.39
258.00 39.85
259.00 42.84
260.00 42.29
261.00 41.17
262.00 42.77
263.00 46.11
264.00 48.63
265.00 46.76
266.00 43.05
267.00 43.66
268.00 45.67
269.00 39.54
270.00 36.59
271.00 37.24
272.00 39.96
273.00 40.51
274.00 37.53
275.00 34.65
276.00 33.31
277.00 33.68
278.00 34.99
279.00 35.15
280.00 33.10
281.00 30.69
282.00 29.20
283.00 28.72
284.00 28.86
285.00 29.03
286.00 28.69
287.00 27.55
288.00 25.71
289.00 23.69
290.00 21.93
291.00 20.63
292.00 19.64
293.00 18.70
294.00 17.67
295.00 16.54
296.00 15.41
297.00 14.42
298.00 13.63
299.00 13.12
300.00 12.94
301.00 13.15
302.00 13.87
303.00 15.28
304.00 17.65
305.00 21.68
306.00 29.95
307.00 36.45
308.00 25.20
309.00 21.24
310.00 19.17
311.00 18.19
312.00 18.20
313.00 19.29
314.00 21.45
315.00 23.54
316.00 23.28
317.00 22.12
318.00 22.31
319.00 24.73
320.00 29.50
321.00 27.99
322.00 22.82
323.00 20.16
324.00 19.41
325.00 20.53
326.00 24.44
327.00 32.09
328.00 25.15
329.00 19.89
330.00 17.89
331.00 17.91
332.00 19.63
333.00 21.62
334.00 19.69
335.00 16.11
336.00 13.65
337.00 12.44
338.00 12.35
339.00 13.34
340.00 15.46
341.00 18.80
342.00 22.28
343.00 23.11
344.00 22.40
345.00 21.34
346.00 19.51
347.00 18.26
348.00 18.67
349.00 21.43
350.00 27.40
351.00 27.39
352.00 21.96
353.00 19.79
354.00 19.87
355.00 21.87
356.00 25.17
357.00 26.40
358.00 25.44
359.00 26.20
