NAME ATR4518R7_0806_X_CO_M45_10T
FREQUENCY 0806
GAIN 14.41 dBd
TILT	ELECTRICAL
COMMENT DATE 05.08.2013 -45 degrees polarized system Lever position 10T deg
HORIZONTAL 360
0.00 0.00
1.00 0.00
2.00 0.02
3.00 0.03
4.00 0.06
5.00 0.08
6.00 0.12
7.00 0.16
8.00 0.20
9.00 0.26
10.00 0.31
11.00 0.38
12.00 0.45
13.00 0.52
14.00 0.61
15.00 0.70
16.00 0.79
17.00 0.89
18.00 1.00
19.00 1.11
20.00 1.23
21.00 1.36
22.00 1.49
23.00 1.63
24.00 1.77
25.00 1.92
26.00 2.08
27.00 2.24
28.00 2.41
29.00 2.59
30.00 2.77
31.00 2.96
32.00 3.16
33.00 3.36
34.00 3.56
35.00 3.78
36.00 4.00
37.00 4.22
38.00 4.45
39.00 4.69
40.00 4.94
41.00 5.19
42.00 5.44
43.00 5.70
44.00 5.97
45.00 6.25
46.00 6.53
47.00 6.81
48.00 7.10
49.00 7.40
50.00 7.69
51.00 8.00
52.00 8.31
53.00 8.62
54.00 8.94
55.00 9.26
56.00 9.59
57.00 9.92
58.00 10.25
59.00 10.59
60.00 10.92
61.00 11.26
62.00 11.61
63.00 11.95
64.00 12.30
65.00 12.64
66.00 12.99
67.00 13.34
68.00 13.69
69.00 14.03
70.00 14.38
71.00 14.73
72.00 15.07
73.00 15.41
74.00 15.75
75.00 16.09
76.00 16.43
77.00 16.77
78.00 17.10
79.00 17.44
80.00 17.77
81.00 18.10
82.00 18.42
83.00 18.75
84.00 19.07
85.00 19.39
86.00 19.71
87.00 20.02
88.00 20.33
89.00 20.64
90.00 20.95
91.00 21.25
92.00 21.55
93.00 21.85
94.00 22.14
95.00 22.43
96.00 22.71
97.00 22.99
98.00 23.26
99.00 23.52
100.00 23.78
101.00 24.04
102.00 24.29
103.00 24.53
104.00 24.76
105.00 24.99
106.00 25.21
107.00 25.43
108.00 25.64
109.00 25.85
110.00 26.05
111.00 26.24
112.00 26.44
113.00 26.63
114.00 26.81
115.00 27.00
116.00 27.18
117.00 27.37
118.00 27.55
119.00 27.73
120.00 27.91
121.00 28.09
122.00 28.27
123.00 28.45
124.00 28.63
125.00 28.80
126.00 28.98
127.00 29.14
128.00 29.30
129.00 29.46
130.00 29.60
131.00 29.74
132.00 29.86
133.00 29.97
134.00 30.08
135.00 30.16
136.00 30.23
137.00 30.28
138.00 30.32
139.00 30.35
140.00 30.36
141.00 30.35
142.00 30.34
143.00 30.32
144.00 30.28
145.00 30.24
146.00 30.20
147.00 30.15
148.00 30.10
149.00 30.05
150.00 30.00
151.00 29.96
152.00 29.91
153.00 29.88
154.00 29.85
155.00 29.83
156.00 29.82
157.00 29.81
158.00 29.82
159.00 29.84
160.00 29.86
161.00 29.90
162.00 29.94
163.00 30.00
164.00 30.07
165.00 30.14
166.00 30.23
167.00 30.33
168.00 30.44
169.00 30.56
170.00 30.69
171.00 30.83
172.00 30.97
173.00 31.12
174.00 31.28
175.00 31.44
176.00 31.62
177.00 31.79
178.00 31.97
179.00 32.14
180.00 32.32
181.00 32.50
182.00 32.68
183.00 32.85
184.00 33.02
185.00 33.18
186.00 33.33
187.00 33.47
188.00 33.61
189.00 33.73
190.00 33.84
191.00 33.95
192.00 34.03
193.00 34.11
194.00 34.18
195.00 34.23
196.00 34.27
197.00 34.30
198.00 34.32
199.00 34.33
200.00 34.34
201.00 34.33
202.00 34.33
203.00 34.31
204.00 34.28
205.00 34.26
206.00 34.23
207.00 34.20
208.00 34.17
209.00 34.13
210.00 34.09
211.00 34.06
212.00 34.02
213.00 33.99
214.00 33.96
215.00 33.93
216.00 33.90
217.00 33.88
218.00 33.85
219.00 33.84
220.00 33.82
221.00 33.80
222.00 33.79
223.00 33.78
224.00 33.77
225.00 33.77
226.00 33.75
227.00 33.73
228.00 33.71
229.00 33.68
230.00 33.63
231.00 33.56
232.00 33.48
233.00 33.36
234.00 33.22
235.00 33.04
236.00 32.83
237.00 32.58
238.00 32.30
239.00 31.97
240.00 31.61
241.00 31.21
242.00 30.79
243.00 30.34
244.00 29.88
245.00 29.39
246.00 28.89
247.00 28.39
248.00 27.88
249.00 27.37
250.00 26.86
251.00 26.35
252.00 25.85
253.00 25.35
254.00 24.86
255.00 24.38
256.00 23.90
257.00 23.44
258.00 22.98
259.00 22.53
260.00 22.09
261.00 21.66
262.00 21.24
263.00 20.83
264.00 20.42
265.00 20.03
266.00 19.64
267.00 19.26
268.00 18.89
269.00 18.53
270.00 18.17
271.00 17.82
272.00 17.47
273.00 17.13
274.00 16.80
275.00 16.47
276.00 16.15
277.00 15.83
278.00 15.52
279.00 15.20
280.00 14.90
281.00 14.59
282.00 14.29
283.00 14.00
284.00 13.70
285.00 13.41
286.00 13.12
287.00 12.83
288.00 12.54
289.00 12.26
290.00 11.97
291.00 11.69
292.00 11.41
293.00 11.13
294.00 10.85
295.00 10.57
296.00 10.30
297.00 10.02
298.00 9.75
299.00 9.48
300.00 9.21
301.00 8.94
302.00 8.68
303.00 8.42
304.00 8.16
305.00 7.89
306.00 7.64
307.00 7.38
308.00 7.13
309.00 6.88
310.00 6.63
311.00 6.39
312.00 6.15
313.00 5.91
314.00 5.68
315.00 5.45
316.00 5.22
317.00 5.00
318.00 4.78
319.00 4.56
320.00 4.35
321.00 4.14
322.00 3.94
323.00 3.74
324.00 3.55
325.00 3.36
326.00 3.17
327.00 2.99
328.00 2.82
329.00 2.65
330.00 2.48
331.00 2.32
332.00 2.16
333.00 2.01
334.00 1.87
335.00 1.73
336.00 1.59
337.00 1.46
338.00 1.34
339.00 1.22
340.00 1.11
341.00 1.00
342.00 0.90
343.00 0.80
344.00 0.71
345.00 0.62
346.00 0.54
347.00 0.46
348.00 0.39
349.00 0.33
350.00 0.27
351.00 0.22
352.00 0.17
353.00 0.13
354.00 0.09
355.00 0.06
356.00 0.04
357.00 0.02
358.00 0.01
359.00 0.00
VERTICAL 360
0.00 38.58
1.00 20.30
2.00 13.80
3.00 9.67
4.00 6.71
5.00 4.49
6.00 2.81
7.00 1.58
8.00 0.72
9.00 0.20
10.00 0.00
11.00 0.11
12.00 0.53
13.00 1.27
14.00 2.36
15.00 3.84
16.00 5.80
17.00 8.37
18.00 11.82
19.00 16.77
20.00 25.42
21.00 30.94
22.00 22.77
23.00 20.12
24.00 19.56
25.00 20.38
26.00 22.48
27.00 26.14
28.00 30.50
29.00 28.50
30.00 24.58
31.00 22.16
32.00 20.89
33.00 20.47
34.00 20.75
35.00 21.73
36.00 23.44
37.00 25.96
38.00 29.03
39.00 30.54
40.00 28.93
41.00 26.91
42.00 25.70
43.00 25.31
44.00 25.64
45.00 26.53
46.00 27.75
47.00 28.84
48.00 29.18
49.00 28.63
50.00 27.63
51.00 26.65
52.00 25.90
53.00 25.47
54.00 25.39
55.00 25.67
56.00 26.32
57.00 27.37
58.00 28.86
59.00 30.85
60.00 33.40
61.00 36.19
62.00 37.44
63.00 35.84
64.00 33.47
65.00 31.53
66.00 30.11
67.00 29.15
68.00 28.55
69.00 28.28
70.00 28.28
71.00 28.52
72.00 28.94
73.00 29.51
74.00 30.19
75.00 30.98
76.00 31.88
77.00 33.00
78.00 34.48
79.00 36.71
80.00 40.50
81.00 48.39
82.00 44.16
83.00 36.78
84.00 32.59
85.00 29.86
86.00 28.05
87.00 26.88
88.00 26.19
89.00 25.84
90.00 25.68
91.00 25.62
92.00 25.62
93.00 25.68
94.00 25.86
95.00 26.15
96.00 26.58
97.00 27.14
98.00 27.92
99.00 29.01
100.00 30.56
101.00 32.67
102.00 35.39
103.00 38.45
104.00 41.03
105.00 42.38
106.00 42.47
107.00 41.04
108.00 38.64
109.00 36.37
110.00 34.70
111.00 33.63
112.00 33.07
113.00 32.92
114.00 33.09
115.00 33.50
116.00 34.07
117.00 34.64
118.00 35.06
119.00 35.25
120.00 35.33
121.00 35.54
122.00 36.11
123.00 37.19
124.00 38.91
125.00 41.42
126.00 44.82
127.00 48.70
128.00 49.76
129.00 46.98
130.00 43.82
131.00 41.10
132.00 38.87
133.00 37.18
134.00 36.08
135.00 35.61
136.00 35.79
137.00 36.72
138.00 38.58
139.00 41.80
140.00 46.97
141.00 47.57
142.00 41.93
143.00 38.09
144.00 35.53
145.00 33.72
146.00 32.43
147.00 31.55
148.00 31.04
149.00 30.91
150.00 31.21
151.00 31.99
152.00 33.31
153.00 35.25
154.00 37.75
155.00 40.16
156.00 40.84
157.00 39.62
158.00 38.06
159.00 36.72
160.00 35.57
161.00 34.47
162.00 33.42
163.00 32.48
164.00 31.71
165.00 31.19
166.00 30.92
167.00 30.90
168.00 31.15
169.00 31.63
170.00 32.32
171.00 32.94
172.00 33.56
173.00 34.01
174.00 34.09
175.00 33.79
176.00 33.27
177.00 32.76
178.00 32.43
179.00 32.34
180.00 32.58
181.00 33.14
182.00 34.06
183.00 35.30
184.00 36.85
185.00 38.62
186.00 40.61
187.00 42.94
188.00 46.24
189.00 51.31
190.00 49.04
191.00 42.42
192.00 37.93
193.00 34.76
194.00 32.45
195.00 30.77
196.00 29.63
197.00 28.98
198.00 28.79
199.00 29.04
200.00 29.74
201.00 30.87
202.00 32.36
203.00 34.02
204.00 35.40
205.00 36.04
206.00 35.96
207.00 35.66
208.00 35.53
209.00 35.71
210.00 36.15
211.00 36.65
212.00 36.83
213.00 36.38
214.00 35.44
215.00 34.37
216.00 33.46
217.00 32.82
218.00 32.49
219.00 32.46
220.00 32.71
221.00 33.17
222.00 33.74
223.00 34.29
224.00 34.66
225.00 34.82
226.00 34.92
227.00 35.18
228.00 35.83
229.00 37.04
230.00 39.05
231.00 42.15
232.00 46.47
233.00 48.19
234.00 44.62
235.00 41.53
236.00 39.47
237.00 38.02
238.00 36.85
239.00 35.78
240.00 34.77
241.00 33.85
242.00 33.09
243.00 32.56
244.00 32.30
245.00 32.34
246.00 32.72
247.00 33.49
248.00 34.73
249.00 36.59
250.00 39.19
251.00 42.22
252.00 43.39
253.00 41.51
254.00 39.43
255.00 38.16
256.00 37.68
257.00 37.83
258.00 38.48
259.00 39.47
260.00 40.63
261.00 41.83
262.00 42.95
263.00 43.97
264.00 44.87
265.00 45.67
266.00 46.35
267.00 46.85
268.00 47.02
269.00 46.68
270.00 45.71
271.00 44.27
272.00 42.69
273.00 41.28
274.00 40.21
275.00 39.57
276.00 39.32
277.00 39.41
278.00 39.68
279.00 39.91
280.00 39.88
281.00 39.33
282.00 38.29
283.00 36.94
284.00 35.58
285.00 34.43
286.00 33.57
287.00 33.07
288.00 32.91
289.00 33.07
290.00 33.49
291.00 34.11
292.00 34.77
293.00 35.28
294.00 35.40
295.00 35.07
296.00 34.41
297.00 33.61
298.00 32.84
299.00 32.14
300.00 31.54
301.00 31.06
302.00 30.73
303.00 30.64
304.00 30.88
305.00 31.58
306.00 32.93
307.00 35.33
308.00 39.85
309.00 52.48
310.00 42.66
311.00 35.58
312.00 31.75
313.00 29.23
314.00 27.45
315.00 26.19
316.00 25.34
317.00 24.86
318.00 24.80
319.00 25.23
320.00 26.35
321.00 28.52
322.00 32.65
323.00 39.79
324.00 33.39
325.00 27.41
326.00 23.84
327.00 21.53
328.00 20.03
329.00 19.17
330.00 18.86
331.00 19.09
332.00 19.89
333.00 21.37
334.00 23.75
335.00 27.55
336.00 33.81
337.00 35.86
338.00 30.24
339.00 27.28
340.00 26.13
341.00 26.34
342.00 27.94
343.00 31.23
344.00 34.12
345.00 30.17
346.00 26.02
347.00 23.47
348.00 22.15
349.00 21.89
350.00 22.76
351.00 25.20
352.00 30.95
353.00 46.85
354.00 28.21
355.00 23.10
356.00 20.71
357.00 20.05
358.00 21.22
359.00 25.86
