NAME ATR4518R7_0832_X_CO_M45_08T
FREQUENCY 0832
GAIN 14.67 dBd
TILT	ELECTRICAL
COMMENT DATE 05.08.2013 -45 degrees polarized system Lever position 08T deg
HORIZONTAL 360
0.00 0.00
1.00 0.01
2.00 0.02
3.00 0.04
4.00 0.07
5.00 0.10
6.00 0.14
7.00 0.18
8.00 0.23
9.00 0.29
10.00 0.35
11.00 0.41
12.00 0.49
13.00 0.57
14.00 0.66
15.00 0.75
16.00 0.85
17.00 0.95
18.00 1.06
19.00 1.18
20.00 1.30
21.00 1.43
22.00 1.56
23.00 1.70
24.00 1.85
25.00 2.01
26.00 2.16
27.00 2.33
28.00 2.50
29.00 2.68
30.00 2.87
31.00 3.05
32.00 3.25
33.00 3.45
34.00 3.66
35.00 3.88
36.00 4.10
37.00 4.33
38.00 4.56
39.00 4.80
40.00 5.04
41.00 5.30
42.00 5.55
43.00 5.82
44.00 6.09
45.00 6.36
46.00 6.64
47.00 6.93
48.00 7.22
49.00 7.52
50.00 7.83
51.00 8.14
52.00 8.45
53.00 8.77
54.00 9.10
55.00 9.43
56.00 9.77
57.00 10.12
58.00 10.47
59.00 10.82
60.00 11.18
61.00 11.55
62.00 11.91
63.00 12.29
64.00 12.67
65.00 13.06
66.00 13.45
67.00 13.85
68.00 14.25
69.00 14.65
70.00 15.06
71.00 15.48
72.00 15.90
73.00 16.32
74.00 16.75
75.00 17.18
76.00 17.61
77.00 18.05
78.00 18.49
79.00 18.93
80.00 19.37
81.00 19.81
82.00 20.26
83.00 20.70
84.00 21.14
85.00 21.58
86.00 22.02
87.00 22.45
88.00 22.87
89.00 23.29
90.00 23.70
91.00 24.10
92.00 24.49
93.00 24.87
94.00 25.24
95.00 25.59
96.00 25.93
97.00 26.26
98.00 26.58
99.00 26.88
100.00 27.17
101.00 27.45
102.00 27.73
103.00 28.00
104.00 28.26
105.00 28.53
106.00 28.79
107.00 29.05
108.00 29.32
109.00 29.60
110.00 29.88
111.00 30.17
112.00 30.48
113.00 30.80
114.00 31.14
115.00 31.50
116.00 31.88
117.00 32.29
118.00 32.73
119.00 33.19
120.00 33.69
121.00 34.22
122.00 34.79
123.00 35.42
124.00 36.09
125.00 36.81
126.00 37.61
127.00 38.47
128.00 39.41
129.00 40.46
130.00 41.62
131.00 42.90
132.00 44.37
133.00 46.02
134.00 47.87
135.00 49.86
136.00 51.68
137.00 52.65
138.00 52.23
139.00 50.87
140.00 49.30
141.00 47.86
142.00 46.61
143.00 45.55
144.00 44.66
145.00 43.90
146.00 43.27
147.00 42.74
148.00 42.29
149.00 41.92
150.00 41.61
151.00 41.35
152.00 41.14
153.00 40.97
154.00 40.82
155.00 40.70
156.00 40.59
157.00 40.50
158.00 40.41
159.00 40.30
160.00 40.17
161.00 40.03
162.00 39.86
163.00 39.67
164.00 39.44
165.00 39.18
166.00 38.89
167.00 38.58
168.00 38.25
169.00 37.90
170.00 37.54
171.00 37.18
172.00 36.81
173.00 36.46
174.00 36.11
175.00 35.76
176.00 35.44
177.00 35.12
178.00 34.83
179.00 34.55
180.00 34.29
181.00 34.05
182.00 33.83
183.00 33.64
184.00 33.46
185.00 33.30
186.00 33.17
187.00 33.05
188.00 32.96
189.00 32.90
190.00 32.85
191.00 32.82
192.00 32.82
193.00 32.83
194.00 32.88
195.00 32.94
196.00 33.03
197.00 33.15
198.00 33.28
199.00 33.45
200.00 33.64
201.00 33.85
202.00 34.10
203.00 34.38
204.00 34.68
205.00 35.02
206.00 35.40
207.00 35.81
208.00 36.26
209.00 36.76
210.00 37.30
211.00 37.90
212.00 38.56
213.00 39.29
214.00 40.09
215.00 40.99
216.00 42.00
217.00 43.14
218.00 44.45
219.00 45.97
220.00 47.78
221.00 49.93
222.00 52.42
223.00 54.80
224.00 55.40
225.00 53.49
226.00 50.96
227.00 48.66
228.00 46.77
229.00 45.13
230.00 43.74
231.00 42.51
232.00 41.41
233.00 40.41
234.00 39.48
235.00 38.62
236.00 37.81
237.00 37.03
238.00 36.29
239.00 35.57
240.00 34.87
241.00 34.20
242.00 33.54
243.00 32.89
244.00 32.25
245.00 31.63
246.00 31.01
247.00 30.41
248.00 29.81
249.00 29.23
250.00 28.65
251.00 28.09
252.00 27.54
253.00 27.00
254.00 26.46
255.00 25.94
256.00 25.43
257.00 24.93
258.00 24.44
259.00 23.96
260.00 23.49
261.00 23.03
262.00 22.58
263.00 22.14
264.00 21.71
265.00 21.28
266.00 20.87
267.00 20.46
268.00 20.06
269.00 19.67
270.00 19.29
271.00 18.91
272.00 18.54
273.00 18.17
274.00 17.82
275.00 17.46
276.00 17.12
277.00 16.77
278.00 16.44
279.00 16.10
280.00 15.77
281.00 15.44
282.00 15.12
283.00 14.80
284.00 14.48
285.00 14.17
286.00 13.85
287.00 13.54
288.00 13.24
289.00 12.93
290.00 12.62
291.00 12.32
292.00 12.02
293.00 11.72
294.00 11.42
295.00 11.12
296.00 10.83
297.00 10.53
298.00 10.24
299.00 9.95
300.00 9.66
301.00 9.38
302.00 9.09
303.00 8.81
304.00 8.53
305.00 8.25
306.00 7.98
307.00 7.70
308.00 7.44
309.00 7.17
310.00 6.91
311.00 6.65
312.00 6.39
313.00 6.14
314.00 5.89
315.00 5.64
316.00 5.40
317.00 5.17
318.00 4.94
319.00 4.71
320.00 4.49
321.00 4.27
322.00 4.05
323.00 3.84
324.00 3.64
325.00 3.44
326.00 3.25
327.00 3.06
328.00 2.88
329.00 2.70
330.00 2.53
331.00 2.36
332.00 2.20
333.00 2.04
334.00 1.89
335.00 1.75
336.00 1.61
337.00 1.47
338.00 1.34
339.00 1.22
340.00 1.11
341.00 1.00
342.00 0.89
343.00 0.79
344.00 0.70
345.00 0.61
346.00 0.53
347.00 0.45
348.00 0.38
349.00 0.32
350.00 0.26
351.00 0.21
352.00 0.16
353.00 0.12
354.00 0.08
355.00 0.06
356.00 0.03
357.00 0.02
358.00 0.01
359.00 0.00
VERTICAL 360
0.00 13.69
1.00 9.71
2.00 6.77
3.00 4.53
4.00 2.83
5.00 1.58
6.00 0.71
7.00 0.19
8.00 0.00
9.00 0.14
10.00 0.59
11.00 1.39
12.00 2.55
13.00 4.12
14.00 6.19
15.00 8.87
16.00 12.42
17.00 17.43
18.00 25.99
19.00 38.54
20.00 25.98
21.00 23.35
22.00 23.33
23.00 25.17
24.00 29.33
25.00 35.70
26.00 30.58
27.00 25.68
28.00 23.09
29.00 21.86
30.00 21.62
31.00 22.27
32.00 23.87
33.00 26.67
34.00 31.47
35.00 42.23
36.00 41.72
37.00 34.13
38.00 31.68
39.00 31.22
40.00 32.22
41.00 34.81
42.00 38.63
43.00 36.46
44.00 31.28
45.00 27.66
46.00 25.24
47.00 23.63
48.00 22.64
49.00 22.12
50.00 21.98
51.00 22.16
52.00 22.60
53.00 23.28
54.00 24.23
55.00 25.52
56.00 27.31
57.00 29.88
58.00 33.86
59.00 40.55
60.00 41.40
61.00 35.32
62.00 32.09
63.00 30.43
64.00 29.68
65.00 29.55
66.00 29.78
67.00 30.16
68.00 30.48
69.00 30.62
70.00 30.69
71.00 30.88
72.00 31.33
73.00 32.16
74.00 33.41
75.00 35.16
76.00 37.73
77.00 41.99
78.00 51.48
79.00 51.86
80.00 43.19
81.00 39.38
82.00 36.64
83.00 34.14
84.00 31.94
85.00 30.21
86.00 29.04
87.00 28.38
88.00 28.13
89.00 28.19
90.00 28.45
91.00 28.84
92.00 29.28
93.00 29.75
94.00 30.24
95.00 30.81
96.00 31.50
97.00 32.30
98.00 33.22
99.00 34.29
100.00 35.60
101.00 37.26
102.00 39.18
103.00 40.99
104.00 42.15
105.00 42.43
106.00 41.92
107.00 40.89
108.00 39.74
109.00 38.83
110.00 38.26
111.00 37.90
112.00 37.62
113.00 37.33
114.00 37.11
115.00 37.02
116.00 37.12
117.00 37.40
118.00 37.90
119.00 38.64
120.00 39.61
121.00 40.74
122.00 41.90
123.00 42.87
124.00 43.37
125.00 43.24
126.00 42.60
127.00 41.71
128.00 40.77
129.00 39.87
130.00 39.10
131.00 38.51
132.00 38.14
133.00 38.06
134.00 38.34
135.00 39.06
136.00 40.39
137.00 42.62
138.00 46.48
139.00 55.19
140.00 56.48
141.00 46.69
142.00 42.61
143.00 40.41
144.00 39.27
145.00 38.76
146.00 38.45
147.00 37.89
148.00 36.81
149.00 35.38
150.00 33.96
151.00 32.82
152.00 32.13
153.00 32.01
154.00 32.53
155.00 33.81
156.00 35.97
157.00 39.25
158.00 44.04
159.00 49.97
160.00 50.48
161.00 47.88
162.00 45.81
163.00 43.50
164.00 40.94
165.00 38.59
166.00 36.70
167.00 35.30
168.00 34.37
169.00 33.86
170.00 33.74
171.00 33.95
172.00 34.42
173.00 34.87
174.00 35.44
175.00 36.11
176.00 36.80
177.00 37.49
178.00 38.04
179.00 38.33
180.00 38.31
181.00 38.14
182.00 38.11
183.00 38.46
184.00 39.32
185.00 40.76
186.00 42.65
187.00 44.54
188.00 45.37
189.00 44.45
190.00 42.46
191.00 40.59
192.00 39.30
193.00 38.59
194.00 38.25
195.00 37.93
196.00 37.42
197.00 36.77
198.00 36.12
199.00 35.60
200.00 35.27
201.00 35.25
202.00 35.66
203.00 36.58
204.00 38.07
205.00 40.19
206.00 42.98
207.00 45.66
208.00 44.27
209.00 40.46
210.00 37.58
211.00 35.90
212.00 35.25
213.00 35.48
214.00 36.44
215.00 37.87
216.00 39.35
217.00 40.33
218.00 40.41
219.00 39.74
220.00 38.83
221.00 38.10
222.00 37.71
223.00 37.65
224.00 37.66
225.00 37.38
226.00 36.56
227.00 35.35
228.00 34.15
229.00 33.21
230.00 32.66
231.00 32.50
232.00 32.65
233.00 33.00
234.00 33.36
235.00 33.51
236.00 33.37
237.00 33.06
238.00 32.83
239.00 32.92
240.00 33.45
241.00 34.55
242.00 36.32
243.00 39.04
244.00 43.09
245.00 47.73
246.00 46.20
247.00 42.88
248.00 41.20
249.00 40.83
250.00 41.34
251.00 42.28
252.00 43.15
253.00 43.67
254.00 43.86
255.00 43.82
256.00 43.71
257.00 43.97
258.00 45.05
259.00 47.52
260.00 52.47
261.00 66.47
262.00 57.88
263.00 51.01
264.00 47.08
265.00 44.13
266.00 42.05
267.00 40.92
268.00 40.75
269.00 41.41
270.00 42.32
271.00 42.22
272.00 40.85
273.00 39.36
274.00 38.41
275.00 38.09
276.00 38.21
277.00 38.44
278.00 38.38
279.00 37.87
280.00 37.14
281.00 36.53
282.00 36.29
283.00 36.52
284.00 37.25
285.00 38.38
286.00 39.59
287.00 40.34
288.00 40.36
289.00 40.04
290.00 40.04
291.00 40.85
292.00 43.03
293.00 47.81
294.00 59.30
295.00 48.66
296.00 43.16
297.00 40.50
298.00 39.08
299.00 38.21
300.00 37.30
301.00 36.04
302.00 34.58
303.00 33.30
304.00 32.51
305.00 32.41
306.00 33.20
307.00 35.21
308.00 39.16
309.00 43.79
310.00 38.15
311.00 32.94
312.00 29.49
313.00 27.02
314.00 25.16
315.00 23.77
316.00 22.77
317.00 22.19
318.00 22.05
319.00 22.42
320.00 23.40
321.00 25.19
322.00 28.22
323.00 33.84
324.00 48.31
325.00 34.28
326.00 28.62
327.00 25.55
328.00 23.64
329.00 22.47
330.00 21.89
331.00 21.90
332.00 22.61
333.00 24.23
334.00 27.29
335.00 33.32
336.00 40.53
337.00 31.22
338.00 27.13
339.00 25.48
340.00 25.46
341.00 27.09
342.00 31.03
343.00 35.80
344.00 29.82
345.00 25.09
346.00 22.47
347.00 21.21
348.00 21.02
349.00 21.92
350.00 24.17
351.00 28.63
352.00 35.93
353.00 30.34
354.00 25.74
355.00 24.11
356.00 25.05
357.00 30.93
358.00 30.98
359.00 19.55
