NAME ATR4518R7_1880_X_CO_M45_10T_yL
FREQUENCY 1880
GAIN 14.61 dBd
TILT	ELECTRICAL
COMMENT DATE 05.08.2013 -45 degrees polarized system Lever position 10T deg
HORIZONTAL 360
0.00 0.03
1.00 0.02
2.00 0.00
3.00 0.00
4.00 0.00
5.00 0.01
6.00 0.02
7.00 0.04
8.00 0.07
9.00 0.10
10.00 0.14
11.00 0.19
12.00 0.24
13.00 0.30
14.00 0.36
15.00 0.43
16.00 0.50
17.00 0.58
18.00 0.66
19.00 0.74
20.00 0.83
21.00 0.93
22.00 1.03
23.00 1.13
24.00 1.23
25.00 1.34
26.00 1.46
27.00 1.58
28.00 1.70
29.00 1.83
30.00 1.96
31.00 2.11
32.00 2.25
33.00 2.41
34.00 2.57
35.00 2.73
36.00 2.91
37.00 3.09
38.00 3.28
39.00 3.48
40.00 3.69
41.00 3.91
42.00 4.13
43.00 4.36
44.00 4.61
45.00 4.85
46.00 5.11
47.00 5.37
48.00 5.64
49.00 5.92
50.00 6.20
51.00 6.49
52.00 6.78
53.00 7.08
54.00 7.39
55.00 7.70
56.00 8.02
57.00 8.33
58.00 8.66
59.00 8.98
60.00 9.31
61.00 9.64
62.00 9.97
63.00 10.30
64.00 10.64
65.00 10.97
66.00 11.31
67.00 11.64
68.00 11.97
69.00 12.31
70.00 12.63
71.00 12.96
72.00 13.28
73.00 13.60
74.00 13.91
75.00 14.22
76.00 14.52
77.00 14.81
78.00 15.11
79.00 15.39
80.00 15.67
81.00 15.94
82.00 16.21
83.00 16.48
84.00 16.74
85.00 17.01
86.00 17.28
87.00 17.55
88.00 17.83
89.00 18.11
90.00 18.40
91.00 18.71
92.00 19.02
93.00 19.35
94.00 19.69
95.00 20.04
96.00 20.41
97.00 20.78
98.00 21.16
99.00 21.55
100.00 21.94
101.00 22.33
102.00 22.70
103.00 23.06
104.00 23.39
105.00 23.70
106.00 23.97
107.00 24.20
108.00 24.39
109.00 24.55
110.00 24.68
111.00 24.78
112.00 24.87
113.00 24.95
114.00 25.03
115.00 25.11
116.00 25.21
117.00 25.32
118.00 25.44
119.00 25.59
120.00 25.75
121.00 25.93
122.00 26.11
123.00 26.32
124.00 26.52
125.00 26.73
126.00 26.95
127.00 27.16
128.00 27.37
129.00 27.58
130.00 27.80
131.00 28.03
132.00 28.27
133.00 28.54
134.00 28.83
135.00 29.17
136.00 29.55
137.00 29.97
138.00 30.45
139.00 30.97
140.00 31.54
141.00 32.12
142.00 32.70
143.00 33.23
144.00 33.64
145.00 33.89
146.00 33.93
147.00 33.77
148.00 33.45
149.00 33.02
150.00 32.53
151.00 32.04
152.00 31.57
153.00 31.14
154.00 30.77
155.00 30.46
156.00 30.19
157.00 29.99
158.00 29.83
159.00 29.71
160.00 29.62
161.00 29.57
162.00 29.54
163.00 29.52
164.00 29.53
165.00 29.54
166.00 29.57
167.00 29.61
168.00 29.66
169.00 29.72
170.00 29.79
171.00 29.86
172.00 29.94
173.00 30.00
174.00 30.05
175.00 30.06
176.00 30.03
177.00 29.95
178.00 29.80
179.00 29.60
180.00 29.35
181.00 29.07
182.00 28.77
183.00 28.48
184.00 28.22
185.00 28.00
186.00 27.83
187.00 27.74
188.00 27.73
189.00 27.82
190.00 28.02
191.00 28.35
192.00 28.81
193.00 29.45
194.00 30.29
195.00 31.37
196.00 32.77
197.00 34.57
198.00 36.87
199.00 39.54
200.00 41.16
201.00 39.62
202.00 36.74
203.00 34.16
204.00 32.10
205.00 30.45
206.00 29.12
207.00 28.05
208.00 27.20
209.00 26.53
210.00 26.02
211.00 25.66
212.00 25.44
213.00 25.35
214.00 25.39
215.00 25.57
216.00 25.88
217.00 26.36
218.00 27.00
219.00 27.84
220.00 28.93
221.00 30.33
222.00 32.18
223.00 34.71
224.00 38.50
225.00 45.62
226.00 52.51
227.00 41.03
228.00 36.10
229.00 33.02
230.00 30.82
231.00 29.15
232.00 27.83
233.00 26.77
234.00 25.91
235.00 25.22
236.00 24.66
237.00 24.22
238.00 23.89
239.00 23.65
240.00 23.49
241.00 23.40
242.00 23.38
243.00 23.43
244.00 23.51
245.00 23.64
246.00 23.80
247.00 23.96
248.00 24.11
249.00 24.24
250.00 24.32
251.00 24.34
252.00 24.27
253.00 24.12
254.00 23.90
255.00 23.60
256.00 23.25
257.00 22.88
258.00 22.48
259.00 22.08
260.00 21.70
261.00 21.33
262.00 20.98
263.00 20.66
264.00 20.36
265.00 20.08
266.00 19.83
267.00 19.59
268.00 19.36
269.00 19.14
270.00 18.92
271.00 18.69
272.00 18.45
273.00 18.19
274.00 17.90
275.00 17.60
276.00 17.27
277.00 16.92
278.00 16.54
279.00 16.16
280.00 15.76
281.00 15.35
282.00 14.94
283.00 14.53
284.00 14.13
285.00 13.74
286.00 13.35
287.00 12.98
288.00 12.63
289.00 12.29
290.00 11.95
291.00 11.64
292.00 11.34
293.00 11.05
294.00 10.77
295.00 10.51
296.00 10.25
297.00 10.00
298.00 9.76
299.00 9.52
300.00 9.28
301.00 9.05
302.00 8.81
303.00 8.58
304.00 8.35
305.00 8.12
306.00 7.89
307.00 7.66
308.00 7.43
309.00 7.20
310.00 6.98
311.00 6.76
312.00 6.54
313.00 6.32
314.00 6.11
315.00 5.90
316.00 5.70
317.00 5.50
318.00 5.30
319.00 5.11
320.00 4.92
321.00 4.74
322.00 4.55
323.00 4.37
324.00 4.19
325.00 4.02
326.00 3.84
327.00 3.66
328.00 3.49
329.00 3.31
330.00 3.13
331.00 2.96
332.00 2.79
333.00 2.62
334.00 2.46
335.00 2.29
336.00 2.13
337.00 1.98
338.00 1.83
339.00 1.69
340.00 1.55
341.00 1.42
342.00 1.30
343.00 1.18
344.00 1.06
345.00 0.96
346.00 0.86
347.00 0.76
348.00 0.67
349.00 0.59
350.00 0.52
351.00 0.44
352.00 0.38
353.00 0.32
354.00 0.26
355.00 0.21
356.00 0.16
357.00 0.12
358.00 0.09
359.00 0.06
VERTICAL 360
0.00 24.01
1.00 27.71
2.00 26.71
3.00 18.41
4.00 12.38
5.00 8.01
6.00 4.78
7.00 2.45
8.00 0.91
9.00 0.12
10.00 0.05
11.00 0.71
12.00 2.13
13.00 4.50
14.00 8.25
15.00 14.68
16.00 24.23
17.00 16.33
18.00 13.06
19.00 12.52
20.00 13.78
21.00 16.76
22.00 21.74
23.00 24.75
24.00 21.03
25.00 18.60
26.00 18.02
27.00 19.10
28.00 22.23
29.00 28.64
30.00 27.21
31.00 21.29
32.00 18.59
33.00 17.86
34.00 18.66
35.00 20.81
36.00 24.28
37.00 29.14
38.00 32.13
39.00 27.23
40.00 23.21
41.00 21.17
42.00 20.73
43.00 21.61
44.00 23.16
45.00 23.72
46.00 22.25
47.00 19.95
48.00 17.73
49.00 16.01
50.00 14.94
51.00 14.51
52.00 14.59
53.00 14.96
54.00 15.45
55.00 16.09
56.00 17.08
57.00 18.70
58.00 21.14
59.00 24.38
60.00 27.98
61.00 30.87
62.00 32.61
63.00 33.81
64.00 34.40
65.00 34.34
66.00 34.43
67.00 35.08
68.00 35.74
69.00 35.99
70.00 36.43
71.00 37.37
72.00 38.21
73.00 38.27
74.00 37.84
75.00 37.93
76.00 39.31
77.00 41.96
78.00 44.41
79.00 44.94
80.00 43.34
81.00 41.49
82.00 41.32
83.00 42.15
84.00 41.21
85.00 39.84
86.00 39.28
87.00 38.13
88.00 37.12
89.00 38.37
90.00 43.42
91.00 42.72
92.00 37.55
93.00 35.86
94.00 36.01
95.00 36.26
96.00 35.42
97.00 34.21
98.00 33.55
99.00 33.83
100.00 35.02
101.00 36.54
102.00 37.53
103.00 38.02
104.00 38.68
105.00 40.02
106.00 42.46
107.00 46.31
108.00 50.76
109.00 54.56
110.00 62.36
111.00 63.89
112.00 55.84
113.00 55.23
114.00 61.19
115.00 61.14
116.00 50.78
117.00 46.23
118.00 43.31
119.00 41.02
120.00 39.47
121.00 38.96
122.00 39.43
123.00 40.36
124.00 40.81
125.00 40.16
126.00 39.04
127.00 38.57
128.00 39.61
129.00 42.84
130.00 48.80
131.00 51.89
132.00 47.92
133.00 43.30
134.00 39.90
135.00 38.42
136.00 38.68
137.00 39.51
138.00 38.59
139.00 36.40
140.00 34.84
141.00 34.42
142.00 35.20
143.00 37.06
144.00 39.49
145.00 41.29
146.00 41.45
147.00 40.65
148.00 40.24
149.00 40.38
150.00 39.23
151.00 36.61
152.00 34.60
153.00 33.87
154.00 34.34
155.00 35.70
156.00 37.34
157.00 38.42
158.00 38.41
159.00 37.46
160.00 36.25
161.00 35.46
162.00 35.63
163.00 37.26
164.00 41.29
165.00 52.05
166.00 49.56
167.00 40.92
168.00 35.75
169.00 31.81
170.00 29.18
171.00 27.81
172.00 27.54
173.00 28.06
174.00 29.00
175.00 30.35
176.00 32.67
177.00 36.27
178.00 37.83
179.00 36.39
180.00 36.99
181.00 41.52
182.00 57.53
183.00 47.72
184.00 45.85
185.00 48.21
186.00 51.30
187.00 51.27
188.00 41.82
189.00 37.23
190.00 36.37
191.00 39.31
192.00 44.35
193.00 38.46
194.00 35.56
195.00 36.16
196.00 39.86
197.00 44.72
198.00 41.64
199.00 37.06
200.00 33.43
201.00 31.29
202.00 30.96
203.00 32.56
204.00 34.78
205.00 33.07
206.00 30.30
207.00 29.09
208.00 29.28
209.00 30.19
210.00 31.08
211.00 31.97
212.00 33.78
213.00 37.72
214.00 46.84
215.00 51.96
216.00 45.18
217.00 46.39
218.00 50.20
219.00 45.85
220.00 42.62
221.00 41.68
222.00 40.96
223.00 38.69
224.00 35.84
225.00 33.49
226.00 31.89
227.00 31.06
228.00 31.06
229.00 32.03
230.00 34.18
231.00 37.74
232.00 41.61
233.00 40.68
234.00 38.15
235.00 37.08
236.00 37.59
237.00 39.88
238.00 44.95
239.00 56.43
240.00 48.91
241.00 44.51
242.00 42.93
243.00 41.82
244.00 40.37
245.00 39.04
246.00 38.36
247.00 38.45
248.00 39.12
249.00 40.07
250.00 40.93
251.00 41.43
252.00 41.33
253.00 40.59
254.00 39.61
255.00 38.74
256.00 38.14
257.00 37.84
258.00 37.88
259.00 38.39
260.00 39.44
261.00 40.94
262.00 42.33
263.00 42.70
264.00 41.91
265.00 40.55
266.00 38.80
267.00 36.65
268.00 34.42
269.00 32.48
270.00 31.03
271.00 30.05
272.00 29.41
273.00 28.93
274.00 28.47
275.00 27.91
276.00 27.26
277.00 26.55
278.00 25.85
279.00 25.24
280.00 24.75
281.00 24.44
282.00 24.30
283.00 24.33
284.00 24.49
285.00 24.77
286.00 25.15
287.00 25.70
288.00 26.53
289.00 27.74
290.00 29.42
291.00 31.53
292.00 33.75
293.00 35.59
294.00 36.90
295.00 36.90
296.00 33.85
297.00 29.74
298.00 26.39
299.00 24.02
300.00 22.51
301.00 21.73
302.00 21.60
303.00 22.06
304.00 23.09
305.00 24.85
306.00 27.82
307.00 33.12
308.00 34.14
309.00 27.71
310.00 23.98
311.00 21.95
312.00 20.80
313.00 20.06
314.00 19.62
315.00 19.73
316.00 20.90
317.00 23.92
318.00 29.77
319.00 27.94
320.00 22.55
321.00 19.95
322.00 19.10
323.00 19.55
324.00 21.31
325.00 24.91
326.00 31.47
327.00 28.08
328.00 21.96
329.00 18.42
330.00 16.33
331.00 15.30
332.00 15.28
333.00 16.37
334.00 18.84
335.00 23.32
336.00 31.91
337.00 36.93
338.00 30.57
339.00 29.68
340.00 30.46
341.00 28.87
342.00 26.07
343.00 25.01
344.00 26.61
345.00 31.56
346.00 28.12
347.00 22.07
348.00 18.76
349.00 17.02
350.00 16.38
351.00 16.80
352.00 18.54
353.00 22.04
354.00 25.41
355.00 22.52
356.00 19.72
357.00 18.89
358.00 19.62
359.00 21.46
