NAME ATR4518R7_1880_X_CO_P45_05T_yL
FREQUENCY 1880
GAIN 14.84 dBd
TILT	ELECTRICAL
COMMENT DATE 05.08.2013 +45 degrees polarized system Lever position 05T deg
HORIZONTAL 360
0.00 0.14
1.00 0.10
2.00 0.07
3.00 0.05
4.00 0.03
5.00 0.02
6.00 0.01
7.00 0.00
8.00 0.01
9.00 0.02
10.00 0.03
11.00 0.06
12.00 0.09
13.00 0.13
14.00 0.18
15.00 0.24
16.00 0.30
17.00 0.38
18.00 0.46
19.00 0.55
20.00 0.65
21.00 0.76
22.00 0.88
23.00 1.00
24.00 1.13
25.00 1.27
26.00 1.41
27.00 1.56
28.00 1.72
29.00 1.88
30.00 2.05
31.00 2.23
32.00 2.41
33.00 2.60
34.00 2.79
35.00 2.98
36.00 3.18
37.00 3.39
38.00 3.60
39.00 3.81
40.00 4.03
41.00 4.25
42.00 4.48
43.00 4.71
44.00 4.94
45.00 5.17
46.00 5.41
47.00 5.65
48.00 5.90
49.00 6.14
50.00 6.39
51.00 6.64
52.00 6.89
53.00 7.15
54.00 7.40
55.00 7.66
56.00 7.92
57.00 8.18
58.00 8.44
59.00 8.71
60.00 8.98
61.00 9.25
62.00 9.52
63.00 9.80
64.00 10.07
65.00 10.36
66.00 10.64
67.00 10.93
68.00 11.22
69.00 11.51
70.00 11.80
71.00 12.10
72.00 12.40
73.00 12.70
74.00 13.00
75.00 13.31
76.00 13.61
77.00 13.92
78.00 14.23
79.00 14.54
80.00 14.86
81.00 15.17
82.00 15.49
83.00 15.81
84.00 16.14
85.00 16.47
86.00 16.81
87.00 17.16
88.00 17.51
89.00 17.89
90.00 18.27
91.00 18.67
92.00 19.09
93.00 19.54
94.00 20.00
95.00 20.50
96.00 21.02
97.00 21.58
98.00 22.17
99.00 22.79
100.00 23.45
101.00 24.16
102.00 24.90
103.00 25.68
104.00 26.48
105.00 27.32
106.00 28.16
107.00 29.00
108.00 29.81
109.00 30.56
110.00 31.22
111.00 31.77
112.00 32.21
113.00 32.53
114.00 32.75
115.00 32.91
116.00 33.04
117.00 33.17
118.00 33.32
119.00 33.50
120.00 33.74
121.00 34.01
122.00 34.34
123.00 34.70
124.00 35.07
125.00 35.43
126.00 35.74
127.00 35.96
128.00 36.07
129.00 36.02
130.00 35.83
131.00 35.52
132.00 35.13
133.00 34.69
134.00 34.24
135.00 33.80
136.00 33.40
137.00 33.03
138.00 32.72
139.00 32.46
140.00 32.26
141.00 32.13
142.00 32.05
143.00 32.04
144.00 32.10
145.00 32.22
146.00 32.42
147.00 32.69
148.00 33.05
149.00 33.49
150.00 34.03
151.00 34.66
152.00 35.40
153.00 36.24
154.00 37.17
155.00 38.18
156.00 39.17
157.00 40.06
158.00 40.64
159.00 40.78
160.00 40.45
161.00 39.82
162.00 39.07
163.00 38.31
164.00 37.65
165.00 37.11
166.00 36.71
167.00 36.46
168.00 36.37
169.00 36.44
170.00 36.67
171.00 37.10
172.00 37.73
173.00 38.60
174.00 39.77
175.00 41.31
176.00 43.34
177.00 46.03
178.00 49.30
179.00 50.89
180.00 48.39
181.00 45.17
182.00 42.64
183.00 40.73
184.00 39.28
185.00 38.19
186.00 37.38
187.00 36.82
188.00 36.48
189.00 36.35
190.00 36.43
191.00 36.71
192.00 37.21
193.00 37.97
194.00 39.02
195.00 40.42
196.00 42.27
197.00 44.55
198.00 46.74
199.00 46.95
200.00 44.73
201.00 42.07
202.00 39.81
203.00 37.98
204.00 36.52
205.00 35.34
206.00 34.41
207.00 33.69
208.00 33.14
209.00 32.75
210.00 32.52
211.00 32.44
212.00 32.50
213.00 32.71
214.00 33.08
215.00 33.63
216.00 34.37
217.00 35.36
218.00 36.63
219.00 38.30
220.00 40.47
221.00 43.26
222.00 46.19
223.00 46.25
224.00 43.17
225.00 40.08
226.00 37.62
227.00 35.67
228.00 34.09
229.00 32.80
230.00 31.72
231.00 30.82
232.00 30.06
233.00 29.43
234.00 28.91
235.00 28.48
236.00 28.13
237.00 27.85
238.00 27.65
239.00 27.50
240.00 27.41
241.00 27.36
242.00 27.36
243.00 27.40
244.00 27.45
245.00 27.53
246.00 27.61
247.00 27.68
248.00 27.72
249.00 27.73
250.00 27.69
251.00 27.58
252.00 27.41
253.00 27.17
254.00 26.86
255.00 26.50
256.00 26.10
257.00 25.66
258.00 25.20
259.00 24.74
260.00 24.27
261.00 23.80
262.00 23.34
263.00 22.89
264.00 22.46
265.00 22.04
266.00 21.63
267.00 21.24
268.00 20.85
269.00 20.48
270.00 20.12
271.00 19.77
272.00 19.43
273.00 19.09
274.00 18.76
275.00 18.44
276.00 18.12
277.00 17.80
278.00 17.49
279.00 17.18
280.00 16.88
281.00 16.58
282.00 16.28
283.00 15.98
284.00 15.69
285.00 15.40
286.00 15.11
287.00 14.83
288.00 14.55
289.00 14.27
290.00 14.00
291.00 13.73
292.00 13.47
293.00 13.21
294.00 12.95
295.00 12.70
296.00 12.44
297.00 12.20
298.00 11.96
299.00 11.71
300.00 11.48
301.00 11.24
302.00 11.01
303.00 10.78
304.00 10.54
305.00 10.31
306.00 10.08
307.00 9.85
308.00 9.61
309.00 9.37
310.00 9.13
311.00 8.89
312.00 8.64
313.00 8.39
314.00 8.14
315.00 7.88
316.00 7.61
317.00 7.35
318.00 7.08
319.00 6.80
320.00 6.53
321.00 6.25
322.00 5.97
323.00 5.70
324.00 5.42
325.00 5.14
326.00 4.87
327.00 4.60
328.00 4.33
329.00 4.07
330.00 3.82
331.00 3.57
332.00 3.33
333.00 3.10
334.00 2.88
335.00 2.67
336.00 2.46
337.00 2.27
338.00 2.09
339.00 1.91
340.00 1.75
341.00 1.60
342.00 1.46
343.00 1.32
344.00 1.20
345.00 1.09
346.00 0.98
347.00 0.89
348.00 0.80
349.00 0.72
350.00 0.64
351.00 0.57
352.00 0.51
353.00 0.45
354.00 0.39
355.00 0.34
356.00 0.30
357.00 0.25
358.00 0.21
359.00 0.17
VERTICAL 360
0.00 9.57
1.00 5.62
2.00 2.93
3.00 1.19
4.00 0.23
5.00 0.00
6.00 0.50
7.00 1.80
8.00 4.12
9.00 8.03
10.00 15.43
11.00 29.77
12.00 15.16
13.00 12.01
14.00 11.71
15.00 13.40
16.00 17.52
17.00 27.55
18.00 24.85
19.00 18.13
20.00 15.74
21.00 15.38
22.00 16.61
23.00 19.57
24.00 23.66
25.00 22.69
26.00 19.19
27.00 17.32
28.00 16.90
29.00 17.70
30.00 19.64
31.00 22.96
32.00 27.93
33.00 28.64
34.00 23.71
35.00 20.40
36.00 18.58
37.00 17.84
38.00 17.92
39.00 18.58
40.00 19.52
41.00 20.39
42.00 21.02
43.00 21.59
44.00 22.44
45.00 23.70
46.00 24.89
47.00 25.03
48.00 24.22
49.00 23.50
50.00 23.38
51.00 24.05
52.00 25.61
53.00 28.13
54.00 30.98
55.00 32.18
56.00 32.01
57.00 32.65
58.00 34.70
59.00 36.55
60.00 34.74
61.00 31.94
62.00 30.10
63.00 29.18
64.00 28.89
65.00 28.90
66.00 28.92
67.00 28.82
68.00 28.62
69.00 28.48
70.00 28.57
71.00 29.00
72.00 29.75
73.00 30.65
74.00 31.45
75.00 31.99
76.00 32.32
77.00 32.64
78.00 33.14
79.00 33.85
80.00 34.59
81.00 35.05
82.00 34.99
83.00 34.51
84.00 33.97
85.00 33.74
86.00 33.97
87.00 34.58
88.00 35.30
89.00 35.78
90.00 36.02
91.00 36.30
92.00 36.89
93.00 37.80
94.00 38.87
95.00 39.89
96.00 40.46
97.00 39.98
98.00 38.59
99.00 37.18
100.00 36.27
101.00 35.99
102.00 36.30
103.00 37.08
104.00 38.09
105.00 38.85
106.00 39.06
107.00 38.94
108.00 38.91
109.00 39.25
110.00 40.01
111.00 40.80
112.00 40.98
113.00 40.47
114.00 39.83
115.00 39.42
116.00 39.36
117.00 39.65
118.00 40.19
119.00 40.79
120.00 41.31
121.00 41.78
122.00 42.20
123.00 42.36
124.00 41.96
125.00 40.63
126.00 38.51
127.00 36.32
128.00 34.71
129.00 33.94
130.00 34.03
131.00 34.67
132.00 35.26
133.00 35.53
134.00 36.18
135.00 38.17
136.00 42.04
137.00 43.53
138.00 40.08
139.00 38.11
140.00 37.89
141.00 38.77
142.00 40.21
143.00 42.10
144.00 44.68
145.00 47.21
146.00 47.59
147.00 47.73
148.00 51.88
149.00 60.97
150.00 45.49
151.00 40.96
152.00 39.60
153.00 39.35
154.00 37.89
155.00 36.06
156.00 35.68
157.00 36.88
158.00 37.51
159.00 35.95
160.00 34.99
161.00 35.48
162.00 35.76
163.00 34.25
164.00 32.79
165.00 32.22
166.00 31.95
167.00 31.58
168.00 31.73
169.00 33.34
170.00 37.26
171.00 42.84
172.00 40.68
173.00 38.12
174.00 37.27
175.00 36.82
176.00 37.17
177.00 40.06
178.00 50.02
179.00 43.60
180.00 38.04
181.00 36.91
182.00 38.14
183.00 40.00
184.00 40.71
185.00 41.95
186.00 46.26
187.00 55.17
188.00 47.86
189.00 44.51
190.00 44.62
191.00 47.76
192.00 51.47
193.00 45.96
194.00 42.35
195.00 41.06
196.00 40.59
197.00 39.88
198.00 39.60
199.00 40.97
200.00 44.61
201.00 46.63
202.00 43.78
203.00 42.67
204.00 43.37
205.00 43.51
206.00 42.12
207.00 41.49
208.00 43.22
209.00 49.02
210.00 44.55
211.00 37.78
212.00 34.41
213.00 33.00
214.00 32.97
215.00 33.84
216.00 34.95
217.00 35.52
218.00 35.45
219.00 35.20
220.00 35.06
221.00 35.18
222.00 35.72
223.00 36.82
224.00 38.41
225.00 40.00
226.00 40.71
227.00 40.25
228.00 39.37
229.00 39.12
230.00 40.32
231.00 44.10
232.00 56.11
233.00 49.56
234.00 42.37
235.00 39.18
236.00 37.56
237.00 36.96
238.00 37.22
239.00 38.21
240.00 39.87
241.00 42.47
242.00 46.96
243.00 53.73
244.00 47.71
245.00 43.23
246.00 41.85
247.00 42.73
248.00 44.66
249.00 43.90
250.00 41.64
251.00 40.69
252.00 41.10
253.00 42.17
254.00 42.92
255.00 43.04
256.00 43.38
257.00 45.33
258.00 51.16
259.00 50.26
260.00 42.56
261.00 38.75
262.00 36.73
263.00 35.54
264.00 34.60
265.00 33.57
266.00 32.51
267.00 31.61
268.00 31.04
269.00 30.85
270.00 30.92
271.00 31.01
272.00 30.81
273.00 30.27
274.00 29.62
275.00 29.17
276.00 29.03
277.00 29.09
278.00 29.14
279.00 29.12
280.00 29.19
281.00 29.72
282.00 31.03
283.00 33.15
284.00 34.57
285.00 33.38
286.00 31.65
287.00 30.81
288.00 30.81
289.00 31.15
290.00 31.24
291.00 30.62
292.00 29.20
293.00 27.51
294.00 26.21
295.00 25.71
296.00 26.16
297.00 27.56
298.00 29.69
299.00 31.82
300.00 32.64
301.00 31.64
302.00 29.59
303.00 27.22
304.00 25.03
305.00 23.40
306.00 22.60
307.00 22.80
308.00 24.15
309.00 26.90
310.00 31.68
311.00 37.67
312.00 33.30
313.00 28.66
314.00 25.81
315.00 24.06
316.00 23.22
317.00 23.31
318.00 24.47
319.00 27.07
320.00 32.29
321.00 44.39
322.00 32.60
323.00 26.71
324.00 23.29
325.00 20.97
326.00 19.41
327.00 18.51
328.00 18.27
329.00 18.69
330.00 19.76
331.00 21.53
332.00 24.35
333.00 29.53
334.00 41.76
335.00 28.70
336.00 22.98
337.00 20.32
338.00 19.68
339.00 21.18
340.00 26.37
341.00 37.34
342.00 23.60
343.00 19.09
344.00 17.42
345.00 17.65
346.00 19.91
347.00 25.88
348.00 34.99
349.00 23.08
350.00 19.31
351.00 18.48
352.00 19.90
353.00 24.19
354.00 34.21
355.00 29.13
356.00 25.97
357.00 30.83
358.00 26.97
359.00 15.57
