NAME ATR4518R7_2140_X_CO_P45_09T_yyR
FREQUENCY 2140
GAIN 14.97 dBd
TILT	ELECTRICAL
COMMENT DATE 05.08.2013 +45 degrees polarized system Lever position 09T deg
HORIZONTAL 360
0.00 0.14
1.00 0.10
2.00 0.07
3.00 0.04
4.00 0.02
5.00 0.01
6.00 0.00
7.00 0.00
8.00 0.01
9.00 0.02
10.00 0.04
11.00 0.07
12.00 0.11
13.00 0.15
14.00 0.20
15.00 0.27
16.00 0.34
17.00 0.42
18.00 0.52
19.00 0.62
20.00 0.73
21.00 0.85
22.00 0.99
23.00 1.13
24.00 1.29
25.00 1.45
26.00 1.63
27.00 1.81
28.00 2.01
29.00 2.22
30.00 2.43
31.00 2.66
32.00 2.90
33.00 3.14
34.00 3.40
35.00 3.66
36.00 3.94
37.00 4.22
38.00 4.51
39.00 4.81
40.00 5.11
41.00 5.42
42.00 5.74
43.00 6.07
44.00 6.40
45.00 6.74
46.00 7.08
47.00 7.42
48.00 7.78
49.00 8.13
50.00 8.49
51.00 8.84
52.00 9.20
53.00 9.56
54.00 9.92
55.00 10.28
56.00 10.63
57.00 10.99
58.00 11.34
59.00 11.69
60.00 12.03
61.00 12.37
62.00 12.70
63.00 13.04
64.00 13.36
65.00 13.68
66.00 14.00
67.00 14.31
68.00 14.62
69.00 14.93
70.00 15.24
71.00 15.55
72.00 15.86
73.00 16.17
74.00 16.48
75.00 16.79
76.00 17.10
77.00 17.42
78.00 17.74
79.00 18.06
80.00 18.38
81.00 18.71
82.00 19.05
83.00 19.38
84.00 19.72
85.00 20.07
86.00 20.42
87.00 20.78
88.00 21.14
89.00 21.51
90.00 21.88
91.00 22.27
92.00 22.66
93.00 23.07
94.00 23.49
95.00 23.93
96.00 24.38
97.00 24.85
98.00 25.34
99.00 25.86
100.00 26.39
101.00 26.96
102.00 27.55
103.00 28.16
104.00 28.81
105.00 29.48
106.00 30.18
107.00 30.90
108.00 31.63
109.00 32.37
110.00 33.10
111.00 33.80
112.00 34.44
113.00 34.99
114.00 35.42
115.00 35.70
116.00 35.83
117.00 35.80
118.00 35.65
119.00 35.39
120.00 35.06
121.00 34.70
122.00 34.32
123.00 33.96
124.00 33.61
125.00 33.29
126.00 33.01
127.00 32.78
128.00 32.59
129.00 32.45
130.00 32.37
131.00 32.35
132.00 32.39
133.00 32.50
134.00 32.66
135.00 32.89
136.00 33.19
137.00 33.56
138.00 33.99
139.00 34.49
140.00 35.04
141.00 35.62
142.00 36.23
143.00 36.82
144.00 37.35
145.00 37.78
146.00 38.07
147.00 38.19
148.00 38.17
149.00 38.04
150.00 37.85
151.00 37.65
152.00 37.48
153.00 37.38
154.00 37.37
155.00 37.46
156.00 37.68
157.00 38.04
158.00 38.56
159.00 39.28
160.00 40.22
161.00 41.45
162.00 43.08
163.00 45.25
164.00 48.31
165.00 52.85
166.00 57.18
167.00 52.83
168.00 48.24
169.00 45.13
170.00 42.92
171.00 41.25
172.00 39.96
173.00 38.96
174.00 38.19
175.00 37.62
176.00 37.21
177.00 36.95
178.00 36.83
179.00 36.84
180.00 36.97
181.00 37.24
182.00 37.64
183.00 38.17
184.00 38.85
185.00 39.69
186.00 40.71
187.00 41.94
188.00 43.43
189.00 45.20
190.00 47.28
191.00 49.46
192.00 50.92
193.00 50.49
194.00 48.65
195.00 46.60
196.00 44.79
197.00 43.25
198.00 41.96
199.00 40.86
200.00 39.91
201.00 39.09
202.00 38.37
203.00 37.73
204.00 37.16
205.00 36.67
206.00 36.22
207.00 35.83
208.00 35.49
209.00 35.20
210.00 34.96
211.00 34.76
212.00 34.61
213.00 34.50
214.00 34.44
215.00 34.43
216.00 34.45
217.00 34.52
218.00 34.62
219.00 34.78
220.00 34.97
221.00 35.19
222.00 35.46
223.00 35.75
224.00 36.08
225.00 36.44
226.00 36.84
227.00 37.26
228.00 37.72
229.00 38.22
230.00 38.75
231.00 39.34
232.00 39.98
233.00 40.68
234.00 41.45
235.00 42.32
236.00 43.28
237.00 44.36
238.00 45.55
239.00 46.87
240.00 48.25
241.00 49.54
242.00 50.50
243.00 50.78
244.00 50.29
245.00 49.31
246.00 48.20
247.00 47.10
248.00 46.09
249.00 45.22
250.00 44.47
251.00 43.80
252.00 43.21
253.00 42.65
254.00 42.10
255.00 41.55
256.00 40.95
257.00 40.32
258.00 39.62
259.00 38.85
260.00 38.03
261.00 37.18
262.00 36.31
263.00 35.42
264.00 34.53
265.00 33.66
266.00 32.81
267.00 31.98
268.00 31.18
269.00 30.40
270.00 29.65
271.00 28.93
272.00 28.23
273.00 27.56
274.00 26.90
275.00 26.27
276.00 25.65
277.00 25.05
278.00 24.47
279.00 23.89
280.00 23.33
281.00 22.78
282.00 22.24
283.00 21.70
284.00 21.17
285.00 20.65
286.00 20.14
287.00 19.63
288.00 19.13
289.00 18.63
290.00 18.14
291.00 17.67
292.00 17.20
293.00 16.73
294.00 16.28
295.00 15.83
296.00 15.39
297.00 14.96
298.00 14.54
299.00 14.13
300.00 13.72
301.00 13.33
302.00 12.94
303.00 12.56
304.00 12.19
305.00 11.82
306.00 11.46
307.00 11.11
308.00 10.76
309.00 10.43
310.00 10.09
311.00 9.76
312.00 9.43
313.00 9.11
314.00 8.79
315.00 8.48
316.00 8.17
317.00 7.86
318.00 7.56
319.00 7.26
320.00 6.96
321.00 6.67
322.00 6.38
323.00 6.10
324.00 5.82
325.00 5.54
326.00 5.27
327.00 5.00
328.00 4.74
329.00 4.49
330.00 4.24
331.00 3.99
332.00 3.76
333.00 3.53
334.00 3.30
335.00 3.09
336.00 2.88
337.00 2.68
338.00 2.49
339.00 2.31
340.00 2.13
341.00 1.96
342.00 1.80
343.00 1.65
344.00 1.51
345.00 1.37
346.00 1.25
347.00 1.13
348.00 1.01
349.00 0.91
350.00 0.81
351.00 0.72
352.00 0.63
353.00 0.55
354.00 0.47
355.00 0.40
356.00 0.34
357.00 0.28
358.00 0.23
359.00 0.18
VERTICAL 360
0.00 22.18
1.00 21.32
2.00 18.09
3.00 13.79
4.00 9.67
5.00 6.21
6.00 3.53
7.00 1.63
8.00 0.46
9.00 0.00
10.00 0.28
11.00 1.41
12.00 3.64
13.00 7.49
14.00 14.65
15.00 33.29
16.00 18.09
17.00 14.97
18.00 15.32
19.00 18.23
20.00 23.36
21.00 21.06
22.00 16.30
23.00 14.37
24.00 14.70
25.00 17.49
26.00 24.91
27.00 30.36
28.00 20.81
29.00 17.79
30.00 17.14
31.00 18.08
32.00 20.86
33.00 26.91
34.00 31.14
35.00 23.87
36.00 20.85
37.00 20.43
38.00 21.99
39.00 25.47
40.00 29.38
41.00 28.75
42.00 26.74
43.00 25.80
44.00 25.14
45.00 24.48
46.00 24.52
47.00 26.07
48.00 30.13
49.00 38.05
50.00 35.13
51.00 30.17
52.00 28.41
53.00 28.04
54.00 28.28
55.00 28.94
56.00 30.09
57.00 31.15
58.00 30.75
59.00 29.35
60.00 28.27
61.00 27.89
62.00 28.22
63.00 29.24
64.00 30.70
65.00 31.96
66.00 32.49
67.00 32.37
68.00 32.35
69.00 33.28
70.00 35.35
71.00 37.47
72.00 37.60
73.00 36.00
74.00 34.63
75.00 34.42
76.00 34.98
77.00 34.79
78.00 33.08
79.00 30.99
80.00 29.70
81.00 29.53
82.00 29.98
83.00 29.83
84.00 28.39
85.00 26.52
86.00 25.54
87.00 26.21
88.00 28.77
89.00 32.33
90.00 34.26
91.00 33.54
92.00 30.37
93.00 27.88
94.00 27.31
95.00 28.05
96.00 28.82
97.00 29.04
98.00 29.13
99.00 29.24
100.00 29.80
101.00 31.45
102.00 34.17
103.00 36.21
104.00 36.17
105.00 36.14
106.00 37.76
107.00 41.71
108.00 46.33
109.00 44.76
110.00 41.94
111.00 40.50
112.00 39.73
113.00 38.28
114.00 36.30
115.00 34.93
116.00 34.34
117.00 34.14
118.00 33.89
119.00 33.55
120.00 33.59
121.00 34.46
122.00 36.12
123.00 38.04
124.00 40.06
125.00 43.13
126.00 48.88
127.00 59.84
128.00 63.72
129.00 52.44
130.00 45.80
131.00 43.41
132.00 44.15
133.00 45.07
134.00 42.23
135.00 39.22
136.00 37.05
137.00 35.40
138.00 34.48
139.00 34.55
140.00 35.86
141.00 38.69
142.00 42.53
143.00 44.56
144.00 44.83
145.00 45.39
146.00 45.20
147.00 43.35
148.00 41.44
149.00 41.76
150.00 46.40
151.00 56.21
152.00 49.15
153.00 51.73
154.00 51.62
155.00 42.57
156.00 39.66
157.00 38.81
158.00 37.39
159.00 35.47
160.00 34.86
161.00 36.52
162.00 40.46
163.00 42.16
164.00 40.80
165.00 41.52
166.00 43.95
167.00 49.39
168.00 46.51
169.00 38.89
170.00 37.20
171.00 41.30
172.00 60.64
173.00 41.23
174.00 39.75
175.00 41.36
176.00 40.52
177.00 39.86
178.00 41.46
179.00 42.39
180.00 39.57
181.00 35.84
182.00 33.71
183.00 33.67
184.00 35.17
185.00 36.44
186.00 36.83
187.00 37.92
188.00 39.69
189.00 41.91
190.00 44.51
191.00 42.86
192.00 41.39
193.00 44.60
194.00 52.35
195.00 44.82
196.00 41.02
197.00 38.94
198.00 37.89
199.00 39.02
200.00 41.89
201.00 40.35
202.00 36.97
203.00 35.72
204.00 36.39
205.00 39.04
206.00 43.77
207.00 45.81
208.00 42.40
209.00 38.56
210.00 35.24
211.00 33.36
212.00 33.02
213.00 33.86
214.00 35.09
215.00 35.93
216.00 36.09
217.00 35.76
218.00 35.36
219.00 35.19
220.00 35.22
221.00 35.10
222.00 34.75
223.00 34.52
224.00 34.85
225.00 35.99
226.00 38.35
227.00 43.10
228.00 45.76
229.00 38.92
230.00 35.57
231.00 35.58
232.00 40.07
233.00 61.07
234.00 38.82
235.00 35.03
236.00 35.32
237.00 39.08
238.00 45.17
239.00 40.00
240.00 35.30
241.00 32.96
242.00 32.02
243.00 32.19
244.00 33.06
245.00 33.58
246.00 33.32
247.00 33.57
248.00 35.59
249.00 40.41
250.00 50.50
251.00 49.44
252.00 43.09
253.00 38.43
254.00 33.88
255.00 30.30
256.00 27.97
257.00 26.72
258.00 26.15
259.00 25.76
260.00 25.17
261.00 24.38
262.00 23.65
263.00 23.20
264.00 23.06
265.00 23.07
266.00 23.08
267.00 22.87
268.00 22.35
269.00 21.68
270.00 21.14
271.00 20.88
272.00 20.89
273.00 21.09
274.00 21.30
275.00 21.26
276.00 20.89
277.00 20.27
278.00 19.55
279.00 18.79
280.00 18.05
281.00 17.39
282.00 16.84
283.00 16.44
284.00 16.19
285.00 16.07
286.00 16.03
287.00 16.03
288.00 16.06
289.00 16.15
290.00 16.30
291.00 16.49
292.00 16.71
293.00 16.96
294.00 17.25
295.00 17.60
296.00 18.06
297.00 18.73
298.00 19.80
299.00 21.55
300.00 24.29
301.00 28.48
302.00 35.56
303.00 45.13
304.00 34.97
305.00 30.37
306.00 28.83
307.00 29.84
308.00 32.02
309.00 29.00
310.00 24.86
311.00 22.74
312.00 21.97
313.00 21.74
314.00 21.82
315.00 22.97
316.00 26.97
317.00 33.30
318.00 24.98
319.00 20.46
320.00 19.08
321.00 19.95
322.00 23.26
323.00 29.29
324.00 26.39
325.00 20.36
326.00 16.96
327.00 15.10
328.00 14.47
329.00 15.18
330.00 17.84
331.00 23.32
332.00 22.79
333.00 18.88
334.00 16.16
335.00 14.64
336.00 14.28
337.00 14.98
338.00 16.67
339.00 19.34
340.00 23.05
341.00 27.87
342.00 30.82
343.00 26.91
344.00 24.06
345.00 22.50
346.00 21.79
347.00 21.64
348.00 21.99
349.00 23.26
350.00 25.54
351.00 26.74
352.00 26.13
353.00 27.56
354.00 33.73
355.00 30.86
356.00 24.46
357.00 21.95
358.00 21.30
359.00 21.65
