NAME ATR4518R7_2140_X_CO_P45_08T_yyR
FREQUENCY 2140
GAIN 15.21 dBd
TILT	ELECTRICAL
COMMENT DATE 05.08.2013 +45 degrees polarized system Lever position 08T deg
HORIZONTAL 360
0.00 0.13
1.00 0.09
2.00 0.06
3.00 0.04
4.00 0.02
5.00 0.01
6.00 0.00
7.00 0.00
8.00 0.01
9.00 0.03
10.00 0.06
11.00 0.09
12.00 0.14
13.00 0.19
14.00 0.25
15.00 0.32
16.00 0.41
17.00 0.50
18.00 0.60
19.00 0.72
20.00 0.84
21.00 0.97
22.00 1.12
23.00 1.27
24.00 1.44
25.00 1.61
26.00 1.80
27.00 2.00
28.00 2.20
29.00 2.42
30.00 2.64
31.00 2.88
32.00 3.12
33.00 3.37
34.00 3.63
35.00 3.90
36.00 4.18
37.00 4.46
38.00 4.76
39.00 5.06
40.00 5.36
41.00 5.68
42.00 6.00
43.00 6.32
44.00 6.66
45.00 7.00
46.00 7.34
47.00 7.69
48.00 8.05
49.00 8.41
50.00 8.78
51.00 9.15
52.00 9.52
53.00 9.90
54.00 10.28
55.00 10.66
56.00 11.04
57.00 11.42
58.00 11.80
59.00 12.18
60.00 12.56
61.00 12.93
62.00 13.30
63.00 13.66
64.00 14.02
65.00 14.37
66.00 14.72
67.00 15.05
68.00 15.39
69.00 15.71
70.00 16.04
71.00 16.36
72.00 16.67
73.00 16.99
74.00 17.30
75.00 17.61
76.00 17.93
77.00 18.24
78.00 18.56
79.00 18.88
80.00 19.21
81.00 19.54
82.00 19.87
83.00 20.21
84.00 20.56
85.00 20.91
86.00 21.26
87.00 21.62
88.00 21.98
89.00 22.35
90.00 22.72
91.00 23.11
92.00 23.49
93.00 23.89
94.00 24.30
95.00 24.72
96.00 25.16
97.00 25.61
98.00 26.09
99.00 26.59
100.00 27.11
101.00 27.67
102.00 28.27
103.00 28.91
104.00 29.59
105.00 30.32
106.00 31.11
107.00 31.96
108.00 32.87
109.00 33.83
110.00 34.85
111.00 35.89
112.00 36.91
113.00 37.86
114.00 38.63
115.00 39.12
116.00 39.28
117.00 39.13
118.00 38.75
119.00 38.25
120.00 37.70
121.00 37.17
122.00 36.67
123.00 36.24
124.00 35.86
125.00 35.54
126.00 35.28
127.00 35.07
128.00 34.91
129.00 34.81
130.00 34.75
131.00 34.74
132.00 34.77
133.00 34.85
134.00 34.96
135.00 35.12
136.00 35.31
137.00 35.55
138.00 35.82
139.00 36.13
140.00 36.48
141.00 36.85
142.00 37.23
143.00 37.63
144.00 38.01
145.00 38.37
146.00 38.68
147.00 38.92
148.00 39.08
149.00 39.15
150.00 39.15
151.00 39.07
152.00 38.95
153.00 38.80
154.00 38.64
155.00 38.50
156.00 38.39
157.00 38.31
158.00 38.28
159.00 38.30
160.00 38.37
161.00 38.49
162.00 38.66
163.00 38.88
164.00 39.14
165.00 39.45
166.00 39.79
167.00 40.16
168.00 40.56
169.00 40.98
170.00 41.42
171.00 41.89
172.00 42.38
173.00 42.89
174.00 43.46
175.00 44.10
176.00 44.80
177.00 45.62
178.00 46.59
179.00 47.72
180.00 49.11
181.00 50.79
182.00 52.83
183.00 55.22
184.00 57.36
185.00 57.51
186.00 55.48
187.00 53.04
188.00 50.92
189.00 49.17
190.00 47.73
191.00 46.52
192.00 45.49
193.00 44.59
194.00 43.78
195.00 43.04
196.00 42.34
197.00 41.67
198.00 41.02
199.00 40.39
200.00 39.76
201.00 39.14
202.00 38.55
203.00 37.98
204.00 37.45
205.00 36.95
206.00 36.49
207.00 36.09
208.00 35.74
209.00 35.43
210.00 35.20
211.00 35.00
212.00 34.87
213.00 34.80
214.00 34.79
215.00 34.83
216.00 34.93
217.00 35.09
218.00 35.29
219.00 35.53
220.00 35.82
221.00 36.15
222.00 36.51
223.00 36.89
224.00 37.29
225.00 37.69
226.00 38.10
227.00 38.50
228.00 38.88
229.00 39.24
230.00 39.59
231.00 39.93
232.00 40.26
233.00 40.58
234.00 40.88
235.00 41.17
236.00 41.44
237.00 41.64
238.00 41.79
239.00 41.85
240.00 41.79
241.00 41.63
242.00 41.36
243.00 41.00
244.00 40.60
245.00 40.17
246.00 39.74
247.00 39.33
248.00 38.95
249.00 38.62
250.00 38.34
251.00 38.11
252.00 37.93
253.00 37.79
254.00 37.66
255.00 37.55
256.00 37.42
257.00 37.25
258.00 37.01
259.00 36.68
260.00 36.26
261.00 35.73
262.00 35.10
263.00 34.41
264.00 33.65
265.00 32.87
266.00 32.08
267.00 31.29
268.00 30.51
269.00 29.75
270.00 29.01
271.00 28.30
272.00 27.61
273.00 26.94
274.00 26.30
275.00 25.68
276.00 25.07
277.00 24.48
278.00 23.90
279.00 23.34
280.00 22.79
281.00 22.24
282.00 21.71
283.00 21.18
284.00 20.66
285.00 20.15
286.00 19.64
287.00 19.14
288.00 18.64
289.00 18.16
290.00 17.67
291.00 17.20
292.00 16.74
293.00 16.28
294.00 15.83
295.00 15.39
296.00 14.96
297.00 14.53
298.00 14.11
299.00 13.71
300.00 13.31
301.00 12.92
302.00 12.53
303.00 12.16
304.00 11.79
305.00 11.43
306.00 11.08
307.00 10.73
308.00 10.39
309.00 10.05
310.00 9.73
311.00 9.40
312.00 9.09
313.00 8.77
314.00 8.46
315.00 8.16
316.00 7.86
317.00 7.56
318.00 7.27
319.00 6.98
320.00 6.70
321.00 6.42
322.00 6.15
323.00 5.88
324.00 5.61
325.00 5.35
326.00 5.10
327.00 4.84
328.00 4.60
329.00 4.36
330.00 4.12
331.00 3.89
332.00 3.67
333.00 3.46
334.00 3.25
335.00 3.04
336.00 2.85
337.00 2.66
338.00 2.47
339.00 2.30
340.00 2.13
341.00 1.97
342.00 1.81
343.00 1.67
344.00 1.52
345.00 1.39
346.00 1.26
347.00 1.14
348.00 1.03
349.00 0.92
350.00 0.82
351.00 0.73
352.00 0.64
353.00 0.55
354.00 0.48
355.00 0.41
356.00 0.34
357.00 0.28
358.00 0.22
359.00 0.17
VERTICAL 360
0.00 22.22
1.00 19.42
2.00 15.00
3.00 10.47
4.00 6.64
5.00 3.70
6.00 1.66
7.00 0.45
8.00 0.00
9.00 0.32
10.00 1.46
11.00 3.65
12.00 7.45
13.00 14.66
14.00 36.60
15.00 17.66
16.00 14.96
17.00 15.81
18.00 18.93
19.00 22.11
20.00 19.86
21.00 16.63
22.00 15.17
23.00 15.61
24.00 18.43
25.00 25.74
26.00 27.47
27.00 19.90
28.00 17.29
29.00 16.98
30.00 18.31
31.00 21.25
32.00 25.67
33.00 26.74
34.00 23.18
35.00 21.03
36.00 20.71
37.00 22.12
38.00 25.44
39.00 29.87
40.00 29.44
41.00 26.81
42.00 26.10
43.00 27.07
44.00 28.77
45.00 29.64
46.00 30.14
47.00 32.44
48.00 35.85
49.00 31.62
50.00 27.39
51.00 25.74
52.00 25.94
53.00 27.35
54.00 28.80
55.00 29.13
56.00 28.89
57.00 28.68
58.00 28.33
59.00 27.91
60.00 27.81
61.00 28.23
62.00 29.29
63.00 31.15
64.00 33.79
65.00 36.40
66.00 37.30
67.00 36.35
68.00 35.39
69.00 35.64
70.00 36.84
71.00 37.36
72.00 36.48
73.00 35.29
74.00 34.59
75.00 34.76
76.00 35.20
77.00 34.65
78.00 33.10
79.00 31.48
80.00 30.45
81.00 30.30
82.00 30.57
83.00 30.25
84.00 28.87
85.00 27.12
86.00 26.13
87.00 26.67
88.00 28.87
89.00 31.46
90.00 32.57
91.00 33.11
92.00 31.95
93.00 29.73
94.00 28.86
95.00 29.03
96.00 28.89
97.00 28.55
98.00 28.85
99.00 29.73
100.00 30.99
101.00 33.08
102.00 36.00
103.00 37.34
104.00 36.42
105.00 36.12
106.00 37.35
107.00 40.19
108.00 43.94
109.00 45.57
110.00 44.65
111.00 43.76
112.00 42.45
113.00 39.96
114.00 37.56
115.00 36.12
116.00 35.54
117.00 35.31
118.00 34.84
119.00 34.07
120.00 33.69
121.00 34.23
122.00 35.55
123.00 36.91
124.00 37.99
125.00 39.85
126.00 43.84
127.00 50.95
128.00 57.25
129.00 50.75
130.00 44.06
131.00 41.53
132.00 42.79
133.00 47.01
134.00 44.91
135.00 40.59
136.00 37.67
137.00 35.26
138.00 33.83
139.00 33.82
140.00 35.26
141.00 37.95
142.00 41.06
143.00 43.27
144.00 44.65
145.00 45.42
146.00 44.33
147.00 41.85
148.00 40.12
149.00 40.43
150.00 43.34
151.00 47.29
152.00 47.75
153.00 49.80
154.00 50.69
155.00 43.63
156.00 39.56
157.00 37.81
158.00 37.31
159.00 36.69
160.00 35.82
161.00 36.04
162.00 37.64
163.00 38.51
164.00 37.67
165.00 37.33
166.00 38.35
167.00 42.12
168.00 47.63
169.00 40.72
170.00 38.67
171.00 42.77
172.00 54.24
173.00 41.67
174.00 39.48
175.00 40.18
176.00 40.20
177.00 40.86
178.00 44.03
179.00 44.77
180.00 40.76
181.00 36.61
182.00 33.85
183.00 33.22
184.00 34.42
185.00 35.95
186.00 36.67
187.00 38.00
188.00 40.57
189.00 44.01
190.00 49.90
191.00 49.26
192.00 46.07
193.00 51.46
194.00 52.15
195.00 42.97
196.00 40.35
197.00 39.01
198.00 38.13
199.00 39.13
200.00 42.74
201.00 42.02
202.00 37.12
203.00 34.68
204.00 34.48
205.00 36.52
206.00 40.66
207.00 42.49
208.00 40.91
209.00 39.99
210.00 37.86
211.00 35.56
212.00 34.61
213.00 34.85
214.00 35.61
215.00 36.33
216.00 36.68
217.00 36.76
218.00 37.01
219.00 37.39
220.00 37.06
221.00 35.77
222.00 34.56
223.00 34.16
224.00 34.82
225.00 36.54
226.00 39.65
227.00 46.21
228.00 49.84
229.00 40.04
230.00 36.54
231.00 36.60
232.00 41.12
233.00 46.69
234.00 37.35
235.00 34.17
236.00 34.56
237.00 38.36
238.00 44.33
239.00 39.27
240.00 35.05
241.00 33.23
242.00 32.79
243.00 33.41
244.00 34.68
245.00 35.28
246.00 34.51
247.00 34.08
248.00 35.23
249.00 38.38
250.00 42.66
251.00 42.79
252.00 39.85
253.00 36.92
254.00 33.58
255.00 30.43
256.00 28.14
257.00 26.77
258.00 25.99
259.00 25.36
260.00 24.56
261.00 23.65
262.00 22.88
263.00 22.45
264.00 22.32
265.00 22.26
266.00 22.05
267.00 21.60
268.00 20.97
269.00 20.36
270.00 20.00
271.00 19.93
272.00 20.10
273.00 20.36
274.00 20.54
275.00 20.47
276.00 20.11
277.00 19.55
278.00 18.89
279.00 18.22
280.00 17.64
281.00 17.18
282.00 16.84
283.00 16.62
284.00 16.52
285.00 16.56
286.00 16.72
287.00 16.97
288.00 17.30
289.00 17.70
290.00 18.17
291.00 18.69
292.00 19.27
293.00 19.90
294.00 20.56
295.00 21.25
296.00 21.98
297.00 22.96
298.00 24.52
299.00 27.16
300.00 31.61
301.00 40.09
302.00 54.11
303.00 40.01
304.00 36.07
305.00 34.24
306.00 34.06
307.00 33.29
308.00 28.88
309.00 24.72
310.00 22.41
311.00 21.79
312.00 22.53
313.00 24.27
314.00 26.98
315.00 33.45
316.00 40.48
317.00 25.71
318.00 20.97
319.00 19.29
320.00 19.99
321.00 23.63
322.00 30.72
323.00 24.90
324.00 19.28
325.00 16.46
326.00 15.12
327.00 14.93
328.00 15.95
329.00 18.71
330.00 23.91
331.00 23.33
332.00 18.35
333.00 15.19
334.00 13.53
335.00 13.11
336.00 13.79
337.00 15.53
338.00 18.35
339.00 22.34
340.00 27.29
341.00 30.58
342.00 28.90
343.00 25.57
344.00 22.99
345.00 21.89
346.00 22.40
347.00 24.38
348.00 26.69
349.00 26.55
350.00 24.59
351.00 23.54
352.00 24.85
353.00 31.24
354.00 32.94
355.00 23.90
356.00 20.91
357.00 20.45
358.00 21.37
359.00 22.51
