NAME ATR4518R7_2535_X_CO_M45_00T_yL
FREQUENCY 2535
GAIN 16.12 dBd
TILT	ELECTRICAL
COMMENT DATE 05.08.2013 -45 degrees polarized system Lever position 00T deg
HORIZONTAL 360
0.00 0.02
1.00 0.00
2.00 0.01
3.00 0.04
4.00 0.08
5.00 0.15
6.00 0.24
7.00 0.35
8.00 0.48
9.00 0.63
10.00 0.79
11.00 0.96
12.00 1.14
13.00 1.33
14.00 1.53
15.00 1.72
16.00 1.92
17.00 2.10
18.00 2.29
19.00 2.46
20.00 2.63
21.00 2.79
22.00 2.95
23.00 3.10
24.00 3.25
25.00 3.40
26.00 3.55
27.00 3.71
28.00 3.87
29.00 4.05
30.00 4.22
31.00 4.41
32.00 4.61
33.00 4.82
34.00 5.04
35.00 5.26
36.00 5.50
37.00 5.74
38.00 5.99
39.00 6.25
40.00 6.51
41.00 6.78
42.00 7.06
43.00 7.34
44.00 7.63
45.00 7.92
46.00 8.21
47.00 8.51
48.00 8.81
49.00 9.12
50.00 9.42
51.00 9.73
52.00 10.04
53.00 10.35
54.00 10.67
55.00 10.98
56.00 11.29
57.00 11.61
58.00 11.92
59.00 12.23
60.00 12.54
61.00 12.85
62.00 13.17
63.00 13.48
64.00 13.80
65.00 14.12
66.00 14.45
67.00 14.78
68.00 15.12
69.00 15.46
70.00 15.81
71.00 16.16
72.00 16.51
73.00 16.87
74.00 17.23
75.00 17.58
76.00 17.94
77.00 18.29
78.00 18.63
79.00 18.97
80.00 19.30
81.00 19.62
82.00 19.94
83.00 20.26
84.00 20.58
85.00 20.90
86.00 21.23
87.00 21.58
88.00 21.94
89.00 22.33
90.00 22.74
91.00 23.18
92.00 23.66
93.00 24.17
94.00 24.72
95.00 25.31
96.00 25.93
97.00 26.60
98.00 27.29
99.00 28.01
100.00 28.76
101.00 29.52
102.00 30.29
103.00 31.08
104.00 31.87
105.00 32.70
106.00 33.57
107.00 34.51
108.00 35.57
109.00 36.78
110.00 38.22
111.00 39.97
112.00 42.05
113.00 44.35
114.00 45.92
115.00 45.26
116.00 43.09
117.00 40.84
118.00 38.96
119.00 37.45
120.00 36.27
121.00 35.35
122.00 34.65
123.00 34.16
124.00 33.84
125.00 33.68
126.00 33.67
127.00 33.79
128.00 34.03
129.00 34.37
130.00 34.78
131.00 35.25
132.00 35.72
133.00 36.15
134.00 36.47
135.00 36.66
136.00 36.71
137.00 36.63
138.00 36.48
139.00 36.31
140.00 36.16
141.00 36.07
142.00 36.07
143.00 36.17
144.00 36.38
145.00 36.71
146.00 37.17
147.00 37.75
148.00 38.45
149.00 39.27
150.00 40.20
151.00 41.19
152.00 42.21
153.00 43.19
154.00 44.02
155.00 44.63
156.00 45.00
157.00 45.18
158.00 45.24
159.00 45.28
160.00 45.35
161.00 45.48
162.00 45.66
163.00 45.86
164.00 46.00
165.00 46.03
166.00 45.86
167.00 45.46
168.00 44.87
169.00 44.15
170.00 43.40
171.00 42.65
172.00 41.97
173.00 41.37
174.00 40.88
175.00 40.49
176.00 40.22
177.00 40.07
178.00 40.04
179.00 40.16
180.00 40.43
181.00 40.88
182.00 41.53
183.00 42.45
184.00 43.70
185.00 45.44
186.00 47.97
187.00 52.01
188.00 60.74
189.00 60.76
190.00 51.43
191.00 46.90
192.00 43.94
193.00 41.76
194.00 40.09
195.00 38.79
196.00 37.77
197.00 36.99
198.00 36.42
199.00 36.05
200.00 35.87
201.00 35.88
202.00 36.10
203.00 36.56
204.00 37.29
205.00 38.36
206.00 39.89
207.00 42.11
208.00 45.58
209.00 52.13
210.00 59.42
211.00 47.98
212.00 42.84
213.00 39.61
214.00 37.31
215.00 35.56
216.00 34.20
217.00 33.14
218.00 32.31
219.00 31.68
220.00 31.21
221.00 30.91
222.00 30.74
223.00 30.70
224.00 30.77
225.00 30.95
226.00 31.22
227.00 31.57
228.00 31.95
229.00 32.35
230.00 32.70
231.00 32.98
232.00 33.13
233.00 33.14
234.00 33.00
235.00 32.76
236.00 32.45
237.00 32.11
238.00 31.78
239.00 31.46
240.00 31.17
241.00 30.91
242.00 30.67
243.00 30.46
244.00 30.25
245.00 30.04
246.00 29.82
247.00 29.57
248.00 29.30
249.00 29.02
250.00 28.71
251.00 28.39
252.00 28.07
253.00 27.75
254.00 27.44
255.00 27.15
256.00 26.89
257.00 26.65
258.00 26.44
259.00 26.25
260.00 26.09
261.00 25.94
262.00 25.80
263.00 25.66
264.00 25.50
265.00 25.30
266.00 25.06
267.00 24.76
268.00 24.39
269.00 23.96
270.00 23.46
271.00 22.92
272.00 22.34
273.00 21.75
274.00 21.16
275.00 20.58
276.00 20.02
277.00 19.50
278.00 19.00
279.00 18.55
280.00 18.14
281.00 17.76
282.00 17.42
283.00 17.11
284.00 16.84
285.00 16.59
286.00 16.36
287.00 16.15
288.00 15.94
289.00 15.73
290.00 15.52
291.00 15.29
292.00 15.05
293.00 14.79
294.00 14.51
295.00 14.20
296.00 13.88
297.00 13.54
298.00 13.19
299.00 12.83
300.00 12.46
301.00 12.10
302.00 11.74
303.00 11.39
304.00 11.04
305.00 10.69
306.00 10.35
307.00 10.01
308.00 9.67
309.00 9.33
310.00 8.99
311.00 8.64
312.00 8.28
313.00 7.92
314.00 7.55
315.00 7.17
316.00 6.78
317.00 6.40
318.00 6.02
319.00 5.64
320.00 5.26
321.00 4.90
322.00 4.55
323.00 4.22
324.00 3.91
325.00 3.61
326.00 3.33
327.00 3.08
328.00 2.84
329.00 2.63
330.00 2.43
331.00 2.25
332.00 2.09
333.00 1.95
334.00 1.82
335.00 1.71
336.00 1.60
337.00 1.51
338.00 1.43
339.00 1.36
340.00 1.29
341.00 1.23
342.00 1.17
343.00 1.12
344.00 1.07
345.00 1.01
346.00 0.96
347.00 0.90
348.00 0.83
349.00 0.76
350.00 0.69
351.00 0.61
352.00 0.53
353.00 0.45
354.00 0.37
355.00 0.29
356.00 0.21
357.00 0.15
358.00 0.09
359.00 0.04
VERTICAL 360
0.00 0.12
1.00 0.21
2.00 1.65
3.00 4.79
4.00 10.94
5.00 31.08
6.00 15.22
7.00 11.95
8.00 12.41
9.00 14.53
10.00 14.96
11.00 13.26
12.00 12.73
13.00 14.57
14.00 19.13
15.00 20.44
16.00 17.43
17.00 16.95
18.00 19.00
19.00 24.15
20.00 24.64
21.00 18.75
22.00 16.79
23.00 18.11
24.00 22.67
25.00 27.67
26.00 27.94
27.00 32.96
28.00 35.06
29.00 24.55
30.00 19.95
31.00 17.78
32.00 17.71
33.00 19.99
34.00 25.39
35.00 28.70
36.00 23.48
37.00 20.63
38.00 19.72
39.00 20.64
40.00 23.99
41.00 32.12
42.00 33.67
43.00 26.99
44.00 25.12
45.00 25.85
46.00 28.95
47.00 31.68
48.00 29.31
49.00 27.68
50.00 27.92
51.00 29.39
52.00 31.88
53.00 36.63
54.00 45.96
55.00 35.72
56.00 30.92
57.00 29.01
58.00 28.68
59.00 28.86
60.00 26.95
61.00 23.55
62.00 21.02
63.00 19.65
64.00 19.06
65.00 18.78
66.00 18.55
67.00 18.49
68.00 18.83
69.00 19.64
70.00 20.63
71.00 21.38
72.00 21.68
73.00 21.85
74.00 22.30
75.00 23.09
76.00 24.01
77.00 25.13
78.00 26.58
79.00 28.18
80.00 29.71
81.00 30.92
82.00 32.10
83.00 35.45
84.00 40.08
85.00 33.38
86.00 30.05
87.00 29.37
88.00 29.76
89.00 30.95
90.00 33.99
91.00 38.66
92.00 37.39
93.00 33.01
94.00 29.70
95.00 28.49
96.00 29.93
97.00 34.63
98.00 41.39
99.00 39.70
100.00 36.51
101.00 35.37
102.00 38.26
103.00 51.89
104.00 42.15
105.00 40.13
106.00 43.05
107.00 45.69
108.00 56.17
109.00 45.68
110.00 40.17
111.00 41.43
112.00 45.59
113.00 43.12
114.00 42.73
115.00 42.77
116.00 41.94
117.00 41.69
118.00 38.29
119.00 36.10
120.00 37.08
121.00 41.04
122.00 45.57
123.00 47.40
124.00 44.37
125.00 40.66
126.00 39.57
127.00 40.58
128.00 42.56
129.00 44.34
130.00 46.58
131.00 46.41
132.00 42.58
133.00 41.33
134.00 43.72
135.00 52.09
136.00 44.36
137.00 37.81
138.00 35.45
139.00 36.34
140.00 40.92
141.00 50.08
142.00 57.94
143.00 47.26
144.00 41.05
145.00 38.44
146.00 35.86
147.00 34.24
148.00 36.07
149.00 47.13
150.00 41.49
151.00 36.05
152.00 35.63
153.00 36.37
154.00 37.93
155.00 40.96
156.00 40.15
157.00 39.32
158.00 41.46
159.00 40.46
160.00 38.93
161.00 40.31
162.00 40.36
163.00 38.91
164.00 40.30
165.00 45.53
166.00 54.28
167.00 53.61
168.00 46.85
169.00 44.10
170.00 45.14
171.00 44.96
172.00 42.10
173.00 42.71
174.00 42.28
175.00 37.33
176.00 35.77
177.00 38.16
178.00 42.17
179.00 41.28
180.00 41.63
181.00 40.95
182.00 38.47
183.00 37.68
184.00 36.89
185.00 36.50
186.00 39.23
187.00 42.49
188.00 36.89
189.00 34.11
190.00 33.84
191.00 35.39
192.00 39.36
193.00 45.05
194.00 40.48
195.00 37.51
196.00 36.77
197.00 35.74
198.00 33.76
199.00 32.55
200.00 33.07
201.00 35.16
202.00 36.61
203.00 36.55
204.00 38.27
205.00 43.09
206.00 45.37
207.00 43.96
208.00 42.06
209.00 40.27
210.00 41.97
211.00 43.06
212.00 38.10
213.00 36.91
214.00 39.82
215.00 42.41
216.00 40.29
217.00 41.63
218.00 43.49
219.00 40.35
220.00 40.12
221.00 43.60
222.00 45.49
223.00 43.23
224.00 41.07
225.00 37.91
226.00 34.98
227.00 32.78
228.00 31.55
229.00 31.77
230.00 33.77
231.00 37.01
232.00 37.96
233.00 36.00
234.00 34.42
235.00 34.11
236.00 35.33
237.00 37.68
238.00 39.42
239.00 39.44
240.00 38.22
241.00 35.98
242.00 33.69
243.00 32.05
244.00 31.05
245.00 30.43
246.00 30.42
247.00 31.65
248.00 34.74
249.00 40.39
250.00 53.27
251.00 46.90
252.00 41.85
253.00 43.32
254.00 54.36
255.00 46.04
256.00 39.43
257.00 34.42
258.00 30.84
259.00 28.80
260.00 27.59
261.00 26.61
262.00 25.82
263.00 25.58
264.00 26.24
265.00 27.86
266.00 29.75
267.00 30.40
268.00 29.32
269.00 28.17
270.00 28.15
271.00 28.94
272.00 29.89
273.00 32.18
274.00 35.65
275.00 32.04
276.00 28.40
277.00 26.15
278.00 24.45
279.00 23.76
280.00 24.34
281.00 25.59
282.00 26.14
283.00 25.28
284.00 24.02
285.00 23.51
286.00 24.13
287.00 25.57
288.00 27.20
289.00 28.75
290.00 30.45
291.00 31.76
292.00 31.19
293.00 30.12
294.00 30.14
295.00 31.12
296.00 32.05
297.00 31.73
298.00 30.34
299.00 28.78
300.00 27.23
301.00 25.62
302.00 24.08
303.00 22.81
304.00 22.05
305.00 22.07
306.00 23.03
307.00 24.76
308.00 26.00
309.00 25.39
310.00 24.26
311.00 23.76
312.00 23.68
313.00 23.68
314.00 24.16
315.00 26.04
316.00 29.63
317.00 28.53
318.00 24.53
319.00 23.13
320.00 24.67
321.00 30.37
322.00 30.41
323.00 23.62
324.00 20.44
325.00 19.14
326.00 19.00
327.00 19.40
328.00 19.54
329.00 19.21
330.00 18.90
331.00 18.70
332.00 18.30
333.00 17.63
334.00 17.12
335.00 17.42
336.00 19.31
337.00 24.61
338.00 44.74
339.00 23.34
340.00 19.09
341.00 18.33
342.00 20.32
343.00 25.63
344.00 26.33
345.00 21.44
346.00 19.97
347.00 21.57
348.00 26.04
349.00 25.07
350.00 21.68
351.00 21.74
352.00 24.42
353.00 25.29
354.00 25.43
355.00 28.45
356.00 16.11
357.00 8.62
358.00 4.07
359.00 1.36
