NAME ATR4518R7_1850_X_CO_P45_02T_yyR
FREQUENCY 1850
GAIN 15.68 dBd
TILT	ELECTRICAL
COMMENT DATE 05.08.2013 +45 degrees polarized system Lever position 02T deg
HORIZONTAL 360
0.00 0.13
1.00 0.09
2.00 0.06
3.00 0.04
4.00 0.02
5.00 0.00
6.00 0.00
7.00 0.00
8.00 0.01
9.00 0.03
10.00 0.05
11.00 0.09
12.00 0.13
13.00 0.19
14.00 0.25
15.00 0.32
16.00 0.40
17.00 0.49
18.00 0.58
19.00 0.69
20.00 0.81
21.00 0.94
22.00 1.08
23.00 1.22
24.00 1.38
25.00 1.54
26.00 1.72
27.00 1.90
28.00 2.09
29.00 2.29
30.00 2.50
31.00 2.71
32.00 2.93
33.00 3.16
34.00 3.40
35.00 3.65
36.00 3.89
37.00 4.15
38.00 4.41
39.00 4.68
40.00 4.95
41.00 5.22
42.00 5.50
43.00 5.79
44.00 6.08
45.00 6.37
46.00 6.67
47.00 6.97
48.00 7.27
49.00 7.58
50.00 7.89
51.00 8.20
52.00 8.52
53.00 8.84
54.00 9.17
55.00 9.49
56.00 9.83
57.00 10.16
58.00 10.50
59.00 10.84
60.00 11.18
61.00 11.53
62.00 11.88
63.00 12.24
64.00 12.59
65.00 12.95
66.00 13.31
67.00 13.67
68.00 14.04
69.00 14.40
70.00 14.77
71.00 15.14
72.00 15.51
73.00 15.88
74.00 16.26
75.00 16.63
76.00 17.01
77.00 17.39
78.00 17.77
79.00 18.16
80.00 18.54
81.00 18.93
82.00 19.32
83.00 19.71
84.00 20.10
85.00 20.50
86.00 20.90
87.00 21.29
88.00 21.69
89.00 22.09
90.00 22.49
91.00 22.89
92.00 23.29
93.00 23.69
94.00 24.09
95.00 24.49
96.00 24.90
97.00 25.31
98.00 25.72
99.00 26.13
100.00 26.55
101.00 26.97
102.00 27.40
103.00 27.84
104.00 28.27
105.00 28.71
106.00 29.15
107.00 29.59
108.00 30.02
109.00 30.43
110.00 30.82
111.00 31.18
112.00 31.51
113.00 31.80
114.00 32.04
115.00 32.24
116.00 32.40
117.00 32.53
118.00 32.64
119.00 32.74
120.00 32.84
121.00 32.95
122.00 33.10
123.00 33.28
124.00 33.51
125.00 33.80
126.00 34.17
127.00 34.62
128.00 35.17
129.00 35.85
130.00 36.67
131.00 37.67
132.00 38.90
133.00 40.45
134.00 42.43
135.00 45.12
136.00 49.18
137.00 57.03
138.00 61.90
139.00 50.97
140.00 46.28
141.00 43.36
142.00 41.27
143.00 39.71
144.00 38.48
145.00 37.53
146.00 36.78
147.00 36.21
148.00 35.79
149.00 35.51
150.00 35.35
151.00 35.32
152.00 35.40
153.00 35.60
154.00 35.92
155.00 36.35
156.00 36.91
157.00 37.58
158.00 38.37
159.00 39.24
160.00 40.13
161.00 40.93
162.00 41.47
163.00 41.58
164.00 41.21
165.00 40.47
166.00 39.55
167.00 38.59
168.00 37.70
169.00 36.89
170.00 36.20
171.00 35.62
172.00 35.15
173.00 34.78
174.00 34.52
175.00 34.36
176.00 34.29
177.00 34.32
178.00 34.43
179.00 34.63
180.00 34.92
181.00 35.29
182.00 35.74
183.00 36.26
184.00 36.82
185.00 37.41
186.00 37.99
187.00 38.48
188.00 38.84
189.00 39.02
190.00 38.99
191.00 38.76
192.00 38.39
193.00 37.94
194.00 37.48
195.00 37.03
196.00 36.63
197.00 36.29
198.00 36.02
199.00 35.83
200.00 35.71
201.00 35.68
202.00 35.72
203.00 35.83
204.00 36.00
205.00 36.23
206.00 36.49
207.00 36.78
208.00 37.05
209.00 37.29
210.00 37.45
211.00 37.49
212.00 37.41
213.00 37.19
214.00 36.85
215.00 36.43
216.00 35.96
217.00 35.45
218.00 34.96
219.00 34.49
220.00 34.05
221.00 33.65
222.00 33.30
223.00 32.99
224.00 32.73
225.00 32.51
226.00 32.34
227.00 32.20
228.00 32.11
229.00 32.04
230.00 32.00
231.00 31.98
232.00 31.98
233.00 31.99
234.00 32.01
235.00 32.03
236.00 32.04
237.00 32.05
238.00 32.05
239.00 32.04
240.00 32.01
241.00 31.96
242.00 31.90
243.00 31.82
244.00 31.73
245.00 31.62
246.00 31.51
247.00 31.38
248.00 31.24
249.00 31.09
250.00 30.93
251.00 30.76
252.00 30.57
253.00 30.38
254.00 30.17
255.00 29.94
256.00 29.70
257.00 29.44
258.00 29.17
259.00 28.87
260.00 28.56
261.00 28.24
262.00 27.90
263.00 27.54
264.00 27.17
265.00 26.79
266.00 26.40
267.00 26.00
268.00 25.59
269.00 25.17
270.00 24.75
271.00 24.32
272.00 23.89
273.00 23.46
274.00 23.03
275.00 22.59
276.00 22.16
277.00 21.73
278.00 21.30
279.00 20.87
280.00 20.45
281.00 20.02
282.00 19.61
283.00 19.19
284.00 18.78
285.00 18.38
286.00 17.98
287.00 17.58
288.00 17.19
289.00 16.80
290.00 16.41
291.00 16.03
292.00 15.64
293.00 15.27
294.00 14.89
295.00 14.51
296.00 14.14
297.00 13.77
298.00 13.40
299.00 13.04
300.00 12.67
301.00 12.31
302.00 11.95
303.00 11.59
304.00 11.23
305.00 10.88
306.00 10.53
307.00 10.18
308.00 9.84
309.00 9.49
310.00 9.16
311.00 8.83
312.00 8.50
313.00 8.17
314.00 7.86
315.00 7.55
316.00 7.24
317.00 6.94
318.00 6.64
319.00 6.36
320.00 6.08
321.00 5.80
322.00 5.53
323.00 5.28
324.00 5.02
325.00 4.78
326.00 4.54
327.00 4.31
328.00 4.09
329.00 3.87
330.00 3.67
331.00 3.47
332.00 3.27
333.00 3.08
334.00 2.90
335.00 2.73
336.00 2.56
337.00 2.40
338.00 2.25
339.00 2.10
340.00 1.96
341.00 1.82
342.00 1.69
343.00 1.56
344.00 1.44
345.00 1.32
346.00 1.21
347.00 1.10
348.00 1.00
349.00 0.90
350.00 0.81
351.00 0.72
352.00 0.64
353.00 0.56
354.00 0.48
355.00 0.41
356.00 0.34
357.00 0.28
358.00 0.23
359.00 0.18
VERTICAL 360
0.00 1.48
1.00 0.38
2.00 0.00
3.00 0.31
4.00 1.32
5.00 3.13
6.00 5.98
7.00 10.46
8.00 18.88
9.00 29.25
10.00 18.32
11.00 16.03
12.00 16.88
13.00 20.58
14.00 26.71
15.00 23.32
16.00 18.54
17.00 16.55
18.00 16.41
19.00 17.97
20.00 21.89
21.00 30.80
22.00 29.46
23.00 22.80
24.00 20.51
25.00 20.27
26.00 21.59
27.00 24.78
28.00 31.87
29.00 35.36
30.00 26.39
31.00 22.52
32.00 20.92
33.00 20.77
34.00 21.80
35.00 23.83
36.00 26.50
37.00 29.12
38.00 31.19
39.00 33.26
40.00 36.23
41.00 37.08
42.00 32.12
43.00 27.64
44.00 24.88
45.00 23.53
46.00 23.45
47.00 24.59
48.00 26.96
49.00 30.24
50.00 32.66
51.00 32.80
52.00 32.49
53.00 32.23
54.00 30.81
55.00 28.27
56.00 25.82
57.00 24.01
58.00 22.94
59.00 22.58
60.00 22.81
61.00 23.48
62.00 24.45
63.00 25.63
64.00 27.01
65.00 28.39
66.00 29.40
67.00 29.80
68.00 29.93
69.00 30.36
70.00 31.37
71.00 32.90
72.00 34.53
73.00 35.61
74.00 35.68
75.00 34.87
76.00 33.54
77.00 31.88
78.00 30.18
79.00 28.67
80.00 27.46
81.00 26.59
82.00 26.01
83.00 25.63
84.00 25.35
85.00 25.15
86.00 25.10
87.00 25.48
88.00 26.61
89.00 28.87
90.00 32.70
91.00 38.31
92.00 41.44
93.00 37.96
94.00 34.52
95.00 32.44
96.00 31.85
97.00 32.75
98.00 35.03
99.00 38.23
100.00 41.00
101.00 41.41
102.00 40.54
103.00 40.71
104.00 42.83
105.00 46.77
106.00 50.02
107.00 52.07
108.00 58.79
109.00 70.50
110.00 58.83
111.00 59.13
112.00 57.40
113.00 54.53
114.00 53.63
115.00 51.30
116.00 47.93
117.00 45.66
118.00 44.26
119.00 43.00
120.00 41.53
121.00 39.95
122.00 38.65
123.00 37.98
124.00 38.01
125.00 38.28
126.00 37.87
127.00 36.60
128.00 35.40
129.00 34.95
130.00 35.34
131.00 36.26
132.00 37.12
133.00 37.67
134.00 38.32
135.00 39.30
136.00 40.20
137.00 40.45
138.00 40.17
139.00 39.90
140.00 39.90
141.00 39.92
142.00 39.73
143.00 39.60
144.00 39.96
145.00 40.64
146.00 40.68
147.00 39.54
148.00 38.04
149.00 37.24
150.00 37.91
151.00 40.99
152.00 50.28
153.00 54.95
154.00 45.13
155.00 44.11
156.00 46.98
157.00 49.98
158.00 42.61
159.00 37.11
160.00 34.38
161.00 33.75
162.00 35.03
163.00 38.00
164.00 41.25
165.00 42.68
166.00 43.69
167.00 45.17
168.00 45.71
169.00 45.18
170.00 44.87
171.00 45.26
172.00 43.50
173.00 39.34
174.00 36.56
175.00 35.89
176.00 36.94
177.00 38.25
178.00 38.25
179.00 38.28
180.00 40.05
181.00 42.99
182.00 43.54
183.00 42.69
184.00 43.67
185.00 46.29
186.00 45.71
187.00 42.08
188.00 40.38
189.00 41.71
190.00 46.43
191.00 43.02
192.00 37.06
193.00 34.41
194.00 33.80
195.00 34.67
196.00 36.64
197.00 38.61
198.00 37.88
199.00 35.27
200.00 33.52
201.00 33.26
202.00 34.33
203.00 35.89
204.00 36.53
205.00 36.49
206.00 37.10
207.00 38.75
208.00 41.22
209.00 44.42
210.00 48.51
211.00 49.83
212.00 44.94
213.00 40.11
214.00 36.59
215.00 34.15
216.00 32.53
217.00 31.56
218.00 31.15
219.00 31.25
220.00 31.76
221.00 32.43
222.00 33.01
223.00 33.47
224.00 34.08
225.00 35.26
226.00 37.66
227.00 42.75
228.00 55.78
229.00 47.76
230.00 43.36
231.00 43.04
232.00 40.85
233.00 36.63
234.00 33.90
235.00 33.00
236.00 33.60
237.00 35.39
238.00 38.08
239.00 41.71
240.00 47.35
241.00 57.40
242.00 51.15
243.00 46.09
244.00 45.12
245.00 44.40
246.00 40.17
247.00 36.15
248.00 34.04
249.00 33.58
250.00 34.41
251.00 36.14
252.00 38.25
253.00 40.36
254.00 42.81
255.00 46.60
256.00 47.67
257.00 42.88
258.00 39.89
259.00 38.88
260.00 38.70
261.00 38.14
262.00 36.77
263.00 35.16
264.00 34.01
265.00 33.75
266.00 34.43
267.00 35.42
268.00 35.62
269.00 34.93
270.00 34.30
271.00 34.30
272.00 34.73
273.00 34.45
274.00 32.80
275.00 30.93
276.00 29.72
277.00 29.14
278.00 28.90
279.00 28.67
280.00 28.26
281.00 27.75
282.00 27.35
283.00 27.23
284.00 27.34
285.00 27.54
286.00 27.71
287.00 27.86
288.00 28.20
289.00 28.92
290.00 29.83
291.00 30.19
292.00 29.38
293.00 27.86
294.00 26.29
295.00 24.86
296.00 23.56
297.00 22.42
298.00 21.54
299.00 21.06
300.00 21.08
301.00 21.61
302.00 22.61
303.00 24.05
304.00 25.90
305.00 28.17
306.00 30.33
307.00 30.15
308.00 27.28
309.00 24.21
310.00 21.86
311.00 20.27
312.00 19.37
313.00 19.10
314.00 19.37
315.00 20.05
316.00 20.91
317.00 21.59
318.00 21.78
319.00 21.42
320.00 20.63
321.00 19.63
322.00 18.64
323.00 17.89
324.00 17.50
325.00 17.53
326.00 17.95
327.00 18.77
328.00 20.11
329.00 22.31
330.00 26.28
331.00 33.96
332.00 31.95
333.00 25.53
334.00 22.92
335.00 22.53
336.00 24.40
337.00 30.83
338.00 39.10
339.00 25.02
340.00 20.67
341.00 19.21
342.00 19.87
343.00 22.92
344.00 27.49
345.00 24.90
346.00 20.75
347.00 19.14
348.00 19.65
349.00 22.66
350.00 31.98
351.00 31.80
352.00 22.91
353.00 20.58
354.00 21.98
355.00 25.69
356.00 17.98
357.00 10.85
358.00 6.39
359.00 3.42
