NAME ATR4518R7_1880_X_CO_P45_05T_yyR
FREQUENCY 1880
GAIN 14.79 dBd
TILT	ELECTRICAL
COMMENT DATE 05.08.2013 +45 degrees polarized system Lever position 05T deg
HORIZONTAL 360
0.00 0.11
1.00 0.08
2.00 0.06
3.00 0.03
4.00 0.02
5.00 0.01
6.00 0.00
7.00 0.00
8.00 0.01
9.00 0.02
10.00 0.04
11.00 0.06
12.00 0.10
13.00 0.14
14.00 0.19
15.00 0.25
16.00 0.32
17.00 0.39
18.00 0.48
19.00 0.58
20.00 0.68
21.00 0.80
22.00 0.93
23.00 1.06
24.00 1.21
25.00 1.37
26.00 1.54
27.00 1.72
28.00 1.91
29.00 2.11
30.00 2.31
31.00 2.53
32.00 2.76
33.00 2.99
34.00 3.23
35.00 3.48
36.00 3.73
37.00 4.00
38.00 4.26
39.00 4.53
40.00 4.81
41.00 5.09
42.00 5.37
43.00 5.65
44.00 5.93
45.00 6.22
46.00 6.50
47.00 6.79
48.00 7.08
49.00 7.36
50.00 7.65
51.00 7.94
52.00 8.23
53.00 8.51
54.00 8.80
55.00 9.09
56.00 9.39
57.00 9.68
58.00 9.98
59.00 10.27
60.00 10.57
61.00 10.87
62.00 11.18
63.00 11.48
64.00 11.79
65.00 12.10
66.00 12.41
67.00 12.72
68.00 13.04
69.00 13.36
70.00 13.68
71.00 14.00
72.00 14.33
73.00 14.66
74.00 14.99
75.00 15.33
76.00 15.67
77.00 16.02
78.00 16.37
79.00 16.73
80.00 17.10
81.00 17.47
82.00 17.85
83.00 18.24
84.00 18.64
85.00 19.05
86.00 19.46
87.00 19.88
88.00 20.31
89.00 20.75
90.00 21.18
91.00 21.62
92.00 22.06
93.00 22.50
94.00 22.93
95.00 23.35
96.00 23.76
97.00 24.16
98.00 24.54
99.00 24.90
100.00 25.25
101.00 25.58
102.00 25.89
103.00 26.19
104.00 26.48
105.00 26.77
106.00 27.05
107.00 27.33
108.00 27.61
109.00 27.89
110.00 28.18
111.00 28.48
112.00 28.79
113.00 29.10
114.00 29.41
115.00 29.73
116.00 30.04
117.00 30.34
118.00 30.63
119.00 30.92
120.00 31.18
121.00 31.43
122.00 31.66
123.00 31.88
124.00 32.10
125.00 32.31
126.00 32.53
127.00 32.76
128.00 33.01
129.00 33.29
130.00 33.61
131.00 33.98
132.00 34.40
133.00 34.88
134.00 35.42
135.00 36.05
136.00 36.75
137.00 37.56
138.00 38.46
139.00 39.49
140.00 40.64
141.00 41.94
142.00 43.39
143.00 45.02
144.00 46.82
145.00 48.78
146.00 50.80
147.00 52.69
148.00 54.16
149.00 54.98
150.00 55.30
151.00 55.39
152.00 55.41
153.00 55.28
154.00 54.73
155.00 53.57
156.00 51.88
157.00 49.95
158.00 48.05
159.00 46.29
160.00 44.70
161.00 43.30
162.00 42.07
163.00 41.01
164.00 40.09
165.00 39.31
166.00 38.65
167.00 38.12
168.00 37.69
169.00 37.38
170.00 37.17
171.00 37.07
172.00 37.07
173.00 37.16
174.00 37.36
175.00 37.65
176.00 38.03
177.00 38.50
178.00 39.02
179.00 39.56
180.00 40.07
181.00 40.44
182.00 40.61
183.00 40.49
184.00 40.11
185.00 39.52
186.00 38.81
187.00 38.07
188.00 37.35
189.00 36.68
190.00 36.08
191.00 35.57
192.00 35.14
193.00 34.79
194.00 34.53
195.00 34.33
196.00 34.22
197.00 34.17
198.00 34.17
199.00 34.22
200.00 34.31
201.00 34.41
202.00 34.50
203.00 34.57
204.00 34.58
205.00 34.51
206.00 34.36
207.00 34.11
208.00 33.77
209.00 33.37
210.00 32.92
211.00 32.43
212.00 31.95
213.00 31.47
214.00 31.00
215.00 30.57
216.00 30.17
217.00 29.81
218.00 29.48
219.00 29.19
220.00 28.94
221.00 28.73
222.00 28.55
223.00 28.40
224.00 28.27
225.00 28.18
226.00 28.10
227.00 28.05
228.00 28.01
229.00 27.99
230.00 27.97
231.00 27.97
232.00 27.98
233.00 27.99
234.00 28.00
235.00 28.02
236.00 28.05
237.00 28.07
238.00 28.11
239.00 28.15
240.00 28.20
241.00 28.25
242.00 28.32
243.00 28.39
244.00 28.48
245.00 28.58
246.00 28.70
247.00 28.82
248.00 28.95
249.00 29.10
250.00 29.25
251.00 29.41
252.00 29.57
253.00 29.74
254.00 29.89
255.00 30.04
256.00 30.18
257.00 30.30
258.00 30.39
259.00 30.46
260.00 30.49
261.00 30.48
262.00 30.43
263.00 30.33
264.00 30.18
265.00 29.99
266.00 29.74
267.00 29.44
268.00 29.10
269.00 28.72
270.00 28.30
271.00 27.84
272.00 27.36
273.00 26.85
274.00 26.33
275.00 25.80
276.00 25.25
277.00 24.70
278.00 24.15
279.00 23.61
280.00 23.06
281.00 22.52
282.00 21.99
283.00 21.46
284.00 20.94
285.00 20.43
286.00 19.93
287.00 19.44
288.00 18.95
289.00 18.48
290.00 18.01
291.00 17.55
292.00 17.09
293.00 16.64
294.00 16.20
295.00 15.77
296.00 15.34
297.00 14.91
298.00 14.49
299.00 14.07
300.00 13.65
301.00 13.24
302.00 12.84
303.00 12.43
304.00 12.03
305.00 11.64
306.00 11.24
307.00 10.85
308.00 10.47
309.00 10.09
310.00 9.71
311.00 9.34
312.00 8.97
313.00 8.61
314.00 8.26
315.00 7.91
316.00 7.57
317.00 7.23
318.00 6.90
319.00 6.57
320.00 6.26
321.00 5.95
322.00 5.65
323.00 5.36
324.00 5.07
325.00 4.80
326.00 4.53
327.00 4.27
328.00 4.02
329.00 3.78
330.00 3.55
331.00 3.33
332.00 3.12
333.00 2.91
334.00 2.71
335.00 2.53
336.00 2.35
337.00 2.18
338.00 2.02
339.00 1.86
340.00 1.72
341.00 1.58
342.00 1.45
343.00 1.33
344.00 1.21
345.00 1.10
346.00 1.00
347.00 0.90
348.00 0.81
349.00 0.73
350.00 0.65
351.00 0.57
352.00 0.50
353.00 0.44
354.00 0.38
355.00 0.33
356.00 0.27
357.00 0.23
358.00 0.18
359.00 0.15
VERTICAL 360
0.00 9.04
1.00 5.44
2.00 2.90
3.00 1.20
4.00 0.25
5.00 0.00
6.00 0.49
7.00 1.79
8.00 4.05
9.00 7.66
10.00 13.66
11.00 23.71
12.00 19.29
13.00 14.94
14.00 14.12
15.00 15.58
16.00 19.87
17.00 30.65
18.00 25.33
19.00 19.33
20.00 17.68
21.00 18.34
22.00 21.27
23.00 28.04
24.00 31.69
25.00 23.83
26.00 20.48
27.00 19.54
28.00 20.41
29.00 23.36
30.00 30.17
31.00 35.48
32.00 26.44
33.00 22.36
34.00 20.29
35.00 19.36
36.00 19.43
37.00 20.63
38.00 23.32
39.00 27.83
40.00 30.91
41.00 28.66
42.00 27.27
43.00 28.18
44.00 31.46
45.00 37.15
46.00 38.42
47.00 34.62
48.00 32.11
49.00 30.43
50.00 29.53
51.00 29.70
52.00 31.07
53.00 33.19
54.00 34.10
55.00 32.40
56.00 29.95
57.00 27.97
58.00 26.66
59.00 26.02
60.00 26.00
61.00 26.47
62.00 27.22
63.00 28.03
64.00 28.77
65.00 29.54
66.00 30.63
67.00 32.21
68.00 34.01
69.00 35.28
70.00 35.57
71.00 35.17
72.00 34.58
73.00 34.14
74.00 33.80
75.00 33.25
76.00 32.25
77.00 30.98
78.00 29.76
79.00 28.82
80.00 28.10
81.00 27.39
82.00 26.59
83.00 25.83
84.00 25.41
85.00 25.57
86.00 26.38
87.00 27.64
88.00 28.90
89.00 29.88
90.00 30.57
91.00 30.81
92.00 30.42
93.00 29.84
94.00 29.59
95.00 29.85
96.00 30.62
97.00 31.92
98.00 33.77
99.00 36.20
100.00 38.97
101.00 41.37
102.00 42.64
103.00 43.53
104.00 45.58
105.00 49.91
106.00 49.99
107.00 44.65
108.00 41.68
109.00 40.42
110.00 39.93
111.00 39.58
112.00 39.17
113.00 39.01
114.00 39.69
115.00 41.68
116.00 45.31
117.00 50.54
118.00 55.16
119.00 55.12
120.00 51.80
121.00 47.56
122.00 44.02
123.00 41.82
124.00 40.94
125.00 41.00
126.00 41.79
127.00 43.62
128.00 47.25
129.00 51.46
130.00 50.52
131.00 49.35
132.00 50.19
133.00 48.59
134.00 44.22
135.00 40.78
136.00 38.65
137.00 37.47
138.00 36.89
139.00 36.52
140.00 36.15
141.00 35.80
142.00 35.55
143.00 35.48
144.00 35.63
145.00 36.01
146.00 36.66
147.00 37.63
148.00 38.74
149.00 39.14
150.00 38.77
151.00 39.14
152.00 41.74
153.00 47.11
154.00 45.12
155.00 39.70
156.00 36.69
157.00 35.07
158.00 34.33
159.00 33.99
160.00 33.72
161.00 33.86
162.00 35.12
163.00 37.92
164.00 42.01
165.00 45.48
166.00 44.22
167.00 40.01
168.00 36.97
169.00 35.10
170.00 33.61
171.00 32.49
172.00 32.30
173.00 33.54
174.00 36.09
175.00 38.44
176.00 39.49
177.00 40.34
178.00 40.52
179.00 40.07
180.00 41.82
181.00 46.76
182.00 42.57
183.00 37.77
184.00 36.68
185.00 38.23
186.00 42.37
187.00 49.73
188.00 45.49
189.00 39.10
190.00 36.94
191.00 38.17
192.00 44.59
193.00 51.60
194.00 42.09
195.00 40.03
196.00 40.09
197.00 40.10
198.00 39.72
199.00 38.41
200.00 36.15
201.00 34.47
202.00 33.95
203.00 34.22
204.00 34.66
205.00 35.09
206.00 35.70
207.00 36.48
208.00 37.36
209.00 38.76
210.00 41.79
211.00 49.91
212.00 49.10
213.00 39.88
214.00 35.88
215.00 33.92
216.00 33.28
217.00 33.73
218.00 35.34
219.00 38.32
220.00 42.58
221.00 45.48
222.00 45.63
223.00 47.29
224.00 52.28
225.00 55.09
226.00 53.78
227.00 54.83
228.00 51.46
229.00 48.81
230.00 51.97
231.00 63.31
232.00 45.78
233.00 40.82
234.00 39.17
235.00 39.58
236.00 41.73
237.00 45.57
238.00 47.86
239.00 43.64
240.00 39.41
241.00 36.84
242.00 35.71
243.00 35.91
244.00 37.39
245.00 40.09
246.00 43.89
247.00 48.50
248.00 52.74
249.00 50.69
250.00 45.28
251.00 41.55
252.00 39.58
253.00 38.93
254.00 38.90
255.00 38.76
256.00 38.16
257.00 36.89
258.00 35.30
259.00 34.18
260.00 33.91
261.00 34.36
262.00 35.14
263.00 35.46
264.00 34.31
265.00 32.55
266.00 31.67
267.00 32.07
268.00 33.24
269.00 34.02
270.00 33.83
271.00 33.04
272.00 32.31
273.00 32.63
274.00 34.97
275.00 39.73
276.00 40.36
277.00 36.37
278.00 34.14
279.00 33.02
280.00 32.53
281.00 32.50
282.00 32.47
283.00 32.07
284.00 31.21
285.00 29.83
286.00 28.18
287.00 26.72
288.00 25.65
289.00 24.85
290.00 24.13
291.00 23.44
292.00 22.89
293.00 22.63
294.00 22.80
295.00 23.41
296.00 24.47
297.00 25.96
298.00 27.93
299.00 30.03
300.00 30.81
301.00 29.76
302.00 28.68
303.00 28.48
304.00 28.90
305.00 29.06
306.00 28.49
307.00 27.76
308.00 27.73
309.00 29.05
310.00 32.40
311.00 35.35
312.00 30.76
313.00 26.05
314.00 22.97
315.00 20.94
316.00 19.72
317.00 19.19
318.00 19.30
319.00 20.03
320.00 21.34
321.00 23.06
322.00 24.20
323.00 23.11
324.00 20.79
325.00 19.04
326.00 18.32
327.00 18.55
328.00 19.32
329.00 20.06
330.00 20.57
331.00 21.26
332.00 22.62
333.00 24.94
334.00 28.04
335.00 29.59
336.00 26.98
337.00 23.71
338.00 21.69
339.00 21.27
340.00 23.04
341.00 29.32
342.00 34.82
343.00 24.16
344.00 20.74
345.00 20.50
346.00 23.09
347.00 28.97
348.00 26.98
349.00 21.28
350.00 18.72
351.00 18.24
352.00 19.76
353.00 24.31
354.00 35.85
355.00 28.82
356.00 24.35
357.00 24.20
358.00 20.80
359.00 14.13
