NAME ATR4518R7_1850_X_CO_P45_00T_yL
FREQUENCY 1850
GAIN 15.20 dBd
TILT	ELECTRICAL
COMMENT DATE 05.08.2013 +45 degrees polarized system Lever position 00T deg
HORIZONTAL 360
0.00 0.00
1.00 0.00
2.00 0.01
3.00 0.02
4.00 0.04
5.00 0.06
6.00 0.08
7.00 0.11
8.00 0.14
9.00 0.17
10.00 0.21
11.00 0.25
12.00 0.29
13.00 0.34
14.00 0.39
15.00 0.45
16.00 0.51
17.00 0.58
18.00 0.65
19.00 0.72
20.00 0.80
21.00 0.89
22.00 0.98
23.00 1.08
24.00 1.19
25.00 1.30
26.00 1.42
27.00 1.55
28.00 1.68
29.00 1.82
30.00 1.97
31.00 2.13
32.00 2.29
33.00 2.46
34.00 2.64
35.00 2.82
36.00 3.02
37.00 3.21
38.00 3.41
39.00 3.62
40.00 3.84
41.00 4.05
42.00 4.27
43.00 4.50
44.00 4.72
45.00 4.95
46.00 5.18
47.00 5.41
48.00 5.65
49.00 5.88
50.00 6.12
51.00 6.35
52.00 6.58
53.00 6.82
54.00 7.05
55.00 7.29
56.00 7.52
57.00 7.76
58.00 7.99
59.00 8.23
60.00 8.46
61.00 8.70
62.00 8.94
63.00 9.19
64.00 9.43
65.00 9.68
66.00 9.93
67.00 10.19
68.00 10.45
69.00 10.72
70.00 10.99
71.00 11.27
72.00 11.55
73.00 11.84
74.00 12.14
75.00 12.44
76.00 12.74
77.00 13.05
78.00 13.37
79.00 13.68
80.00 14.00
81.00 14.32
82.00 14.64
83.00 14.95
84.00 15.26
85.00 15.56
86.00 15.86
87.00 16.15
88.00 16.42
89.00 16.69
90.00 16.96
91.00 17.21
92.00 17.46
93.00 17.70
94.00 17.95
95.00 18.19
96.00 18.44
97.00 18.71
98.00 18.98
99.00 19.27
100.00 19.58
101.00 19.91
102.00 20.26
103.00 20.64
104.00 21.05
105.00 21.49
106.00 21.95
107.00 22.44
108.00 22.96
109.00 23.50
110.00 24.06
111.00 24.63
112.00 25.21
113.00 25.78
114.00 26.35
115.00 26.89
116.00 27.42
117.00 27.93
118.00 28.42
119.00 28.91
120.00 29.41
121.00 29.92
122.00 30.47
123.00 31.07
124.00 31.74
125.00 32.50
126.00 33.34
127.00 34.28
128.00 35.26
129.00 36.22
130.00 37.00
131.00 37.40
132.00 37.27
133.00 36.67
134.00 35.79
135.00 34.81
136.00 33.87
137.00 33.01
138.00 32.28
139.00 31.67
140.00 31.18
141.00 30.81
142.00 30.54
143.00 30.38
144.00 30.31
145.00 30.33
146.00 30.42
147.00 30.59
148.00 30.81
149.00 31.07
150.00 31.34
151.00 31.60
152.00 31.81
153.00 31.95
154.00 31.99
155.00 31.94
156.00 31.80
157.00 31.59
158.00 31.33
159.00 31.07
160.00 30.82
161.00 30.61
162.00 30.44
163.00 30.34
164.00 30.30
165.00 30.34
166.00 30.46
167.00 30.66
168.00 30.94
169.00 31.30
170.00 31.73
171.00 32.22
172.00 32.78
173.00 33.37
174.00 33.96
175.00 34.52
176.00 34.99
177.00 35.33
178.00 35.50
179.00 35.51
180.00 35.39
181.00 35.18
182.00 34.94
183.00 34.69
184.00 34.50
185.00 34.36
186.00 34.29
187.00 34.32
188.00 34.44
189.00 34.66
190.00 34.99
191.00 35.43
192.00 35.99
193.00 36.69
194.00 37.53
195.00 38.55
196.00 39.76
197.00 41.22
198.00 43.00
199.00 45.22
200.00 48.10
201.00 52.03
202.00 56.91
203.00 56.54
204.00 52.13
205.00 48.85
206.00 46.54
207.00 44.84
208.00 43.54
209.00 42.52
210.00 41.72
211.00 41.09
212.00 40.61
213.00 40.27
214.00 40.04
215.00 39.93
216.00 39.94
217.00 40.07
218.00 40.33
219.00 40.73
220.00 41.29
221.00 42.01
222.00 42.89
223.00 43.87
224.00 44.79
225.00 45.32
226.00 45.06
227.00 43.99
228.00 42.45
229.00 40.82
230.00 39.26
231.00 37.86
232.00 36.61
233.00 35.52
234.00 34.55
235.00 33.71
236.00 32.98
237.00 32.34
238.00 31.78
239.00 31.29
240.00 30.86
241.00 30.48
242.00 30.15
243.00 29.84
244.00 29.55
245.00 29.26
246.00 28.97
247.00 28.67
248.00 28.35
249.00 28.01
250.00 27.64
251.00 27.25
252.00 26.84
253.00 26.41
254.00 25.98
255.00 25.55
256.00 25.12
257.00 24.70
258.00 24.30
259.00 23.91
260.00 23.54
261.00 23.19
262.00 22.85
263.00 22.53
264.00 22.24
265.00 21.95
266.00 21.68
267.00 21.41
268.00 21.15
269.00 20.90
270.00 20.64
271.00 20.38
272.00 20.12
273.00 19.85
274.00 19.57
275.00 19.27
276.00 18.97
277.00 18.66
278.00 18.33
279.00 17.99
280.00 17.65
281.00 17.29
282.00 16.93
283.00 16.57
284.00 16.20
285.00 15.84
286.00 15.47
287.00 15.11
288.00 14.75
289.00 14.40
290.00 14.05
291.00 13.70
292.00 13.37
293.00 13.04
294.00 12.72
295.00 12.40
296.00 12.10
297.00 11.81
298.00 11.52
299.00 11.23
300.00 10.96
301.00 10.70
302.00 10.44
303.00 10.19
304.00 9.94
305.00 9.70
306.00 9.47
307.00 9.24
308.00 9.01
309.00 8.79
310.00 8.57
311.00 8.35
312.00 8.13
313.00 7.91
314.00 7.70
315.00 7.48
316.00 7.26
317.00 7.03
318.00 6.80
319.00 6.57
320.00 6.33
321.00 6.09
322.00 5.84
323.00 5.59
324.00 5.34
325.00 5.08
326.00 4.82
327.00 4.56
328.00 4.30
329.00 4.04
330.00 3.79
331.00 3.53
332.00 3.29
333.00 3.04
334.00 2.81
335.00 2.58
336.00 2.36
337.00 2.15
338.00 1.95
339.00 1.75
340.00 1.57
341.00 1.40
342.00 1.24
343.00 1.09
344.00 0.96
345.00 0.83
346.00 0.71
347.00 0.60
348.00 0.51
349.00 0.42
350.00 0.34
351.00 0.28
352.00 0.22
353.00 0.16
354.00 0.12
355.00 0.08
356.00 0.06
357.00 0.03
358.00 0.02
359.00 0.01
VERTICAL 360
0.00 0.00
1.00 0.32
2.00 1.34
3.00 3.20
4.00 6.16
5.00 10.88
6.00 19.54
7.00 23.63
8.00 16.97
9.00 15.60
10.00 17.19
11.00 22.47
12.00 28.44
13.00 19.39
14.00 15.30
15.00 13.55
16.00 13.25
17.00 14.09
18.00 15.88
19.00 17.87
20.00 18.43
21.00 17.67
22.00 17.19
23.00 17.64
24.00 19.15
25.00 21.92
26.00 26.60
27.00 28.62
28.00 22.73
29.00 18.77
30.00 16.64
31.00 15.77
32.00 15.83
33.00 16.51
34.00 17.38
35.00 18.06
36.00 18.42
37.00 18.56
38.00 18.52
39.00 18.34
40.00 18.11
41.00 17.97
42.00 18.07
43.00 18.52
44.00 19.42
45.00 20.83
46.00 22.73
47.00 25.03
48.00 27.46
49.00 29.63
50.00 31.03
51.00 31.01
52.00 29.83
53.00 28.63
54.00 27.87
55.00 27.52
56.00 27.57
57.00 28.19
58.00 29.59
59.00 31.87
60.00 35.04
61.00 38.80
62.00 41.42
63.00 40.66
64.00 38.10
65.00 35.60
66.00 33.94
67.00 33.28
68.00 33.41
69.00 33.90
70.00 34.40
71.00 34.70
72.00 34.75
73.00 34.76
74.00 34.84
75.00 34.68
76.00 34.30
77.00 34.49
78.00 35.89
79.00 38.54
80.00 41.17
81.00 41.42
82.00 39.90
83.00 38.53
84.00 38.55
85.00 40.75
86.00 45.03
87.00 45.47
88.00 43.63
89.00 44.11
90.00 44.75
91.00 43.55
92.00 43.39
93.00 45.66
94.00 47.87
95.00 45.30
96.00 43.13
97.00 42.70
98.00 43.66
99.00 45.95
100.00 48.54
101.00 47.64
102.00 45.57
103.00 45.17
104.00 46.47
105.00 48.79
106.00 50.79
107.00 51.13
108.00 49.56
109.00 47.65
110.00 46.65
111.00 46.63
112.00 46.89
113.00 46.17
114.00 43.99
115.00 41.40
116.00 39.38
117.00 38.20
118.00 37.78
119.00 37.77
120.00 37.73
121.00 37.51
122.00 37.59
123.00 38.51
124.00 40.44
125.00 42.14
126.00 41.88
127.00 41.71
128.00 43.83
129.00 50.58
130.00 51.31
131.00 43.75
132.00 39.85
133.00 36.92
134.00 34.57
135.00 32.99
136.00 32.27
137.00 32.30
138.00 32.93
139.00 33.96
140.00 35.23
141.00 36.69
142.00 38.23
143.00 39.78
144.00 41.01
145.00 41.13
146.00 39.72
147.00 37.74
148.00 36.21
149.00 35.64
150.00 36.13
151.00 37.16
152.00 37.50
153.00 37.31
154.00 37.96
155.00 39.30
156.00 39.15
157.00 38.44
158.00 39.83
159.00 42.56
160.00 38.62
161.00 34.67
162.00 33.10
163.00 33.19
164.00 34.19
165.00 35.54
166.00 37.60
167.00 41.56
168.00 45.49
169.00 41.06
170.00 38.01
171.00 37.19
172.00 37.55
173.00 37.73
174.00 37.03
175.00 36.15
176.00 35.61
177.00 35.32
178.00 35.14
179.00 35.10
180.00 35.30
181.00 35.76
182.00 36.43
183.00 37.38
184.00 38.76
185.00 40.88
186.00 44.10
187.00 49.15
188.00 55.37
189.00 51.67
190.00 47.75
191.00 44.77
192.00 41.57
193.00 39.03
194.00 38.04
195.00 39.05
196.00 41.91
197.00 41.79
198.00 38.19
199.00 36.14
200.00 35.76
201.00 36.53
202.00 38.00
203.00 39.84
204.00 41.24
205.00 40.78
206.00 39.26
207.00 38.28
208.00 38.15
209.00 38.45
210.00 38.43
211.00 37.74
212.00 36.59
213.00 35.09
214.00 33.50
215.00 32.34
216.00 32.01
217.00 32.60
218.00 33.90
219.00 35.41
220.00 36.74
221.00 38.33
222.00 40.87
223.00 43.36
224.00 42.43
225.00 40.52
226.00 39.84
227.00 40.27
228.00 41.25
229.00 42.24
230.00 43.13
231.00 44.19
232.00 45.49
233.00 46.54
234.00 46.99
235.00 47.56
236.00 48.80
237.00 49.54
238.00 48.00
239.00 45.32
240.00 42.93
241.00 41.50
242.00 41.34
243.00 42.40
244.00 44.09
245.00 44.91
246.00 43.68
247.00 41.43
248.00 39.81
249.00 39.44
250.00 39.88
251.00 39.60
252.00 38.36
253.00 37.74
254.00 38.40
255.00 40.16
256.00 42.16
257.00 42.98
258.00 42.05
259.00 40.59
260.00 39.82
261.00 40.07
262.00 40.92
263.00 41.52
264.00 41.35
265.00 40.73
266.00 40.10
267.00 39.92
268.00 40.25
269.00 40.56
270.00 40.05
271.00 39.00
272.00 38.11
273.00 37.61
274.00 37.35
275.00 37.09
276.00 36.60
277.00 35.81
278.00 34.83
279.00 33.90
280.00 33.29
281.00 33.22
282.00 33.80
283.00 35.08
284.00 37.04
285.00 39.57
286.00 42.56
287.00 46.22
288.00 51.92
289.00 50.10
290.00 42.50
291.00 37.77
292.00 34.56
293.00 32.20
294.00 30.45
295.00 29.24
296.00 28.57
297.00 28.48
298.00 29.07
299.00 30.62
300.00 33.75
301.00 40.58
302.00 45.89
303.00 35.02
304.00 30.17
305.00 27.21
306.00 25.30
307.00 24.14
308.00 23.54
309.00 23.33
310.00 23.33
311.00 23.31
312.00 23.04
313.00 22.37
314.00 21.33
315.00 20.07
316.00 18.80
317.00 17.63
318.00 16.63
319.00 15.82
320.00 15.24
321.00 14.97
322.00 15.09
323.00 15.69
324.00 16.88
325.00 18.89
326.00 22.25
327.00 28.93
328.00 36.04
329.00 24.66
330.00 20.12
331.00 17.93
332.00 17.30
333.00 18.16
334.00 20.97
335.00 27.53
336.00 30.33
337.00 22.27
338.00 18.95
339.00 18.07
340.00 19.33
341.00 23.63
342.00 30.36
343.00 22.26
344.00 17.89
345.00 16.24
346.00 16.42
347.00 18.38
348.00 22.97
349.00 34.14
350.00 27.28
351.00 22.62
352.00 21.58
353.00 19.41
354.00 14.02
355.00 9.16
356.00 5.58
357.00 3.04
358.00 1.34
359.00 0.34
