NAME ATR4518R7_1750_X_CO_P45_07T_yL
FREQUENCY 1750
GAIN 15.03 dBd
TILT	ELECTRICAL
COMMENT DATE 05.08.2013 +45 degrees polarized system Lever position 07T deg
HORIZONTAL 360
0.00 0.01
1.00 0.00
2.00 0.01
3.00 0.02
4.00 0.03
5.00 0.06
6.00 0.09
7.00 0.12
8.00 0.17
9.00 0.22
10.00 0.27
11.00 0.33
12.00 0.40
13.00 0.47
14.00 0.54
15.00 0.62
16.00 0.70
17.00 0.79
18.00 0.88
19.00 0.98
20.00 1.07
21.00 1.18
22.00 1.28
23.00 1.39
24.00 1.51
25.00 1.63
26.00 1.76
27.00 1.88
28.00 2.02
29.00 2.16
30.00 2.31
31.00 2.46
32.00 2.61
33.00 2.77
34.00 2.94
35.00 3.11
36.00 3.29
37.00 3.47
38.00 3.66
39.00 3.85
40.00 4.05
41.00 4.25
42.00 4.45
43.00 4.66
44.00 4.87
45.00 5.09
46.00 5.30
47.00 5.52
48.00 5.75
49.00 5.97
50.00 6.20
51.00 6.43
52.00 6.66
53.00 6.90
54.00 7.14
55.00 7.38
56.00 7.63
57.00 7.88
58.00 8.13
59.00 8.39
60.00 8.65
61.00 8.92
62.00 9.19
63.00 9.47
64.00 9.75
65.00 10.05
66.00 10.34
67.00 10.65
68.00 10.96
69.00 11.28
70.00 11.61
71.00 11.95
72.00 12.29
73.00 12.64
74.00 13.00
75.00 13.37
76.00 13.74
77.00 14.12
78.00 14.50
79.00 14.89
80.00 15.28
81.00 15.67
82.00 16.07
83.00 16.45
84.00 16.84
85.00 17.23
86.00 17.61
87.00 17.99
88.00 18.35
89.00 18.72
90.00 19.07
91.00 19.42
92.00 19.77
93.00 20.10
94.00 20.44
95.00 20.77
96.00 21.10
97.00 21.43
98.00 21.76
99.00 22.09
100.00 22.43
101.00 22.78
102.00 23.12
103.00 23.47
104.00 23.83
105.00 24.19
106.00 24.56
107.00 24.92
108.00 25.29
109.00 25.66
110.00 26.03
111.00 26.41
112.00 26.78
113.00 27.17
114.00 27.56
115.00 27.97
116.00 28.39
117.00 28.82
118.00 29.28
119.00 29.75
120.00 30.23
121.00 30.72
122.00 31.19
123.00 31.62
124.00 31.99
125.00 32.24
126.00 32.37
127.00 32.34
128.00 32.17
129.00 31.88
130.00 31.51
131.00 31.10
132.00 30.69
133.00 30.29
134.00 29.94
135.00 29.64
136.00 29.41
137.00 29.25
138.00 29.18
139.00 29.19
140.00 29.30
141.00 29.50
142.00 29.81
143.00 30.24
144.00 30.79
145.00 31.49
146.00 32.35
147.00 33.41
148.00 34.72
149.00 36.34
150.00 38.39
151.00 41.09
152.00 44.76
153.00 49.28
154.00 49.39
155.00 45.25
156.00 42.01
157.00 39.74
158.00 38.12
159.00 36.95
160.00 36.12
161.00 35.56
162.00 35.24
163.00 35.15
164.00 35.26
165.00 35.58
166.00 36.14
167.00 36.94
168.00 38.04
169.00 39.52
170.00 41.45
171.00 43.95
172.00 46.64
173.00 47.45
174.00 45.14
175.00 42.24
176.00 39.84
177.00 37.95
178.00 36.47
179.00 35.30
180.00 34.37
181.00 33.67
182.00 33.14
183.00 32.79
184.00 32.58
185.00 32.53
186.00 32.61
187.00 32.85
188.00 33.24
189.00 33.79
190.00 34.51
191.00 35.43
192.00 36.55
193.00 37.87
194.00 39.30
195.00 40.58
196.00 41.15
197.00 40.60
198.00 39.22
199.00 37.60
200.00 36.06
201.00 34.70
202.00 33.53
203.00 32.53
204.00 31.69
205.00 30.99
206.00 30.41
207.00 29.94
208.00 29.57
209.00 29.29
210.00 29.10
211.00 29.00
212.00 28.97
213.00 29.03
214.00 29.17
215.00 29.39
216.00 29.70
217.00 30.11
218.00 30.62
219.00 31.26
220.00 32.03
221.00 32.98
222.00 34.13
223.00 35.58
224.00 37.43
225.00 39.91
226.00 43.54
227.00 49.90
228.00 56.34
229.00 46.58
230.00 41.56
231.00 38.38
232.00 36.07
233.00 34.28
234.00 32.83
235.00 31.64
236.00 30.63
237.00 29.78
238.00 29.05
239.00 28.43
240.00 27.90
241.00 27.45
242.00 27.05
243.00 26.72
244.00 26.43
245.00 26.19
246.00 25.97
247.00 25.78
248.00 25.61
249.00 25.44
250.00 25.28
251.00 25.11
252.00 24.93
253.00 24.74
254.00 24.53
255.00 24.30
256.00 24.05
257.00 23.78
258.00 23.50
259.00 23.21
260.00 22.91
261.00 22.60
262.00 22.29
263.00 21.97
264.00 21.65
265.00 21.34
266.00 21.02
267.00 20.70
268.00 20.38
269.00 20.06
270.00 19.74
271.00 19.42
272.00 19.09
273.00 18.76
274.00 18.42
275.00 18.07
276.00 17.72
277.00 17.37
278.00 17.01
279.00 16.65
280.00 16.28
281.00 15.91
282.00 15.54
283.00 15.17
284.00 14.80
285.00 14.43
286.00 14.07
287.00 13.71
288.00 13.35
289.00 13.00
290.00 12.66
291.00 12.31
292.00 11.98
293.00 11.66
294.00 11.34
295.00 11.02
296.00 10.72
297.00 10.43
298.00 10.14
299.00 9.86
300.00 9.59
301.00 9.32
302.00 9.06
303.00 8.81
304.00 8.57
305.00 8.33
306.00 8.11
307.00 7.88
308.00 7.66
309.00 7.45
310.00 7.25
311.00 7.05
312.00 6.85
313.00 6.66
314.00 6.48
315.00 6.29
316.00 6.11
317.00 5.94
318.00 5.76
319.00 5.59
320.00 5.42
321.00 5.24
322.00 5.07
323.00 4.90
324.00 4.73
325.00 4.56
326.00 4.38
327.00 4.21
328.00 4.03
329.00 3.85
330.00 3.67
331.00 3.49
332.00 3.30
333.00 3.12
334.00 2.94
335.00 2.76
336.00 2.58
337.00 2.40
338.00 2.23
339.00 2.06
340.00 1.89
341.00 1.73
342.00 1.57
343.00 1.42
344.00 1.27
345.00 1.13
346.00 1.00
347.00 0.87
348.00 0.76
349.00 0.65
350.00 0.55
351.00 0.45
352.00 0.37
353.00 0.29
354.00 0.23
355.00 0.17
356.00 0.12
357.00 0.08
358.00 0.05
359.00 0.02
VERTICAL 360
0.00 21.98
1.00 15.18
2.00 9.65
3.00 5.84
4.00 3.20
5.00 1.42
6.00 0.38
7.00 0.00
8.00 0.28
9.00 1.25
10.00 3.03
11.00 5.91
12.00 10.62
13.00 20.29
14.00 22.15
15.00 14.20
16.00 11.76
17.00 11.53
18.00 13.04
19.00 16.70
20.00 25.19
21.00 28.41
22.00 19.37
23.00 16.35
24.00 15.44
25.00 15.95
26.00 17.73
27.00 20.53
28.00 22.02
29.00 20.12
30.00 18.04
31.00 17.05
32.00 17.13
33.00 18.28
34.00 20.83
35.00 25.38
36.00 26.44
37.00 21.26
38.00 18.03
39.00 16.52
40.00 16.11
41.00 16.32
42.00 16.76
43.00 17.34
44.00 18.35
45.00 20.23
46.00 23.58
47.00 29.31
48.00 33.37
49.00 28.79
50.00 26.04
51.00 24.51
52.00 23.27
53.00 22.25
54.00 21.77
55.00 21.94
56.00 22.58
57.00 23.20
58.00 23.42
59.00 23.48
60.00 23.83
61.00 24.63
62.00 25.64
63.00 26.47
64.00 26.90
65.00 27.16
66.00 27.58
67.00 28.31
68.00 29.22
69.00 30.01
70.00 30.44
71.00 30.58
72.00 30.80
73.00 31.42
74.00 32.56
75.00 33.90
76.00 34.92
77.00 35.28
78.00 35.37
79.00 35.97
80.00 37.74
81.00 41.24
82.00 47.03
83.00 55.05
84.00 52.72
85.00 47.02
86.00 43.83
87.00 42.06
88.00 40.68
89.00 39.30
90.00 38.06
91.00 36.99
92.00 36.30
93.00 36.40
94.00 37.53
95.00 39.32
96.00 40.43
97.00 40.18
98.00 39.41
99.00 38.70
100.00 38.36
101.00 38.67
102.00 39.63
103.00 40.93
104.00 42.22
105.00 43.13
106.00 43.36
107.00 43.14
108.00 43.07
109.00 43.45
110.00 44.16
111.00 44.74
112.00 44.60
113.00 43.62
114.00 42.37
115.00 41.45
116.00 41.14
117.00 41.34
118.00 41.63
119.00 41.42
120.00 40.41
121.00 38.92
122.00 37.52
123.00 36.50
124.00 35.84
125.00 35.36
126.00 34.89
127.00 34.42
128.00 34.17
129.00 34.38
130.00 35.06
131.00 35.95
132.00 36.91
133.00 38.13
134.00 39.80
135.00 41.47
136.00 42.50
137.00 43.45
138.00 45.24
139.00 48.49
140.00 54.88
141.00 66.35
142.00 49.71
143.00 43.55
144.00 39.66
145.00 37.06
146.00 35.42
147.00 34.53
148.00 34.27
149.00 34.69
150.00 36.05
151.00 38.97
152.00 45.24
153.00 50.62
154.00 41.09
155.00 36.76
156.00 34.46
157.00 33.33
158.00 33.05
159.00 33.51
160.00 34.47
161.00 35.41
162.00 35.75
163.00 35.64
164.00 35.58
165.00 35.84
166.00 36.43
167.00 37.10
168.00 37.07
169.00 35.84
170.00 34.26
171.00 33.19
172.00 32.88
173.00 33.38
174.00 34.68
175.00 36.77
176.00 39.70
177.00 43.82
178.00 50.83
179.00 54.98
180.00 46.84
181.00 43.75
182.00 43.71
183.00 46.97
184.00 51.11
185.00 44.22
186.00 39.92
187.00 37.91
188.00 37.05
189.00 36.75
190.00 36.97
191.00 38.35
192.00 41.67
193.00 42.93
194.00 38.17
195.00 35.19
196.00 34.44
197.00 35.66
198.00 39.01
199.00 45.36
200.00 51.70
201.00 43.93
202.00 38.62
203.00 35.21
204.00 33.24
205.00 32.58
206.00 33.24
207.00 35.45
208.00 39.39
209.00 41.13
210.00 37.56
211.00 35.05
212.00 34.06
213.00 34.04
214.00 34.45
215.00 34.91
216.00 35.41
217.00 36.17
218.00 37.32
219.00 38.61
220.00 39.50
221.00 39.58
222.00 38.93
223.00 38.33
224.00 38.64
225.00 40.50
226.00 44.46
227.00 48.02
228.00 43.92
229.00 40.21
230.00 38.29
231.00 37.86
232.00 38.93
233.00 41.62
234.00 46.32
235.00 52.33
236.00 48.03
237.00 42.66
238.00 39.32
239.00 37.45
240.00 36.86
241.00 37.52
242.00 39.57
243.00 43.35
244.00 49.91
245.00 52.17
246.00 45.02
247.00 40.91
248.00 38.62
249.00 37.55
250.00 37.31
251.00 37.34
252.00 37.11
253.00 36.82
254.00 37.17
255.00 38.70
256.00 41.83
257.00 47.54
258.00 54.17
259.00 46.92
260.00 43.76
261.00 44.41
262.00 50.09
263.00 53.22
264.00 45.30
265.00 43.02
266.00 42.67
267.00 41.89
268.00 39.76
269.00 36.95
270.00 34.41
271.00 32.87
272.00 32.66
273.00 33.91
274.00 36.70
275.00 40.80
276.00 43.58
277.00 42.05
278.00 39.52
279.00 37.07
280.00 34.61
281.00 32.20
282.00 30.05
283.00 28.29
284.00 26.92
285.00 25.88
286.00 25.02
287.00 24.20
288.00 23.42
289.00 22.78
290.00 22.45
291.00 22.57
292.00 23.22
293.00 24.45
294.00 26.27
295.00 28.70
296.00 31.53
297.00 33.38
298.00 31.89
299.00 28.91
300.00 26.32
301.00 24.39
302.00 23.13
303.00 22.54
304.00 22.66
305.00 23.53
306.00 25.30
307.00 28.41
308.00 34.60
309.00 44.37
310.00 30.60
311.00 25.13
312.00 21.99
313.00 20.25
314.00 19.66
315.00 20.19
316.00 21.97
317.00 25.40
318.00 30.86
319.00 29.38
320.00 23.54
321.00 19.71
322.00 17.27
323.00 15.89
324.00 15.51
325.00 16.12
326.00 17.79
327.00 20.65
328.00 24.38
329.00 25.49
330.00 23.05
331.00 21.30
332.00 21.07
333.00 22.44
334.00 25.71
335.00 31.70
336.00 34.70
337.00 29.79
338.00 27.43
339.00 27.00
340.00 27.98
341.00 29.40
342.00 28.31
343.00 25.35
344.00 23.27
345.00 22.65
346.00 23.42
347.00 24.71
348.00 23.41
349.00 20.01
350.00 17.32
351.00 15.91
352.00 15.86
353.00 17.40
354.00 21.41
355.00 32.94
356.00 28.12
357.00 21.57
358.00 20.10
359.00 21.63
