NAME ATR4518R7_2140_X_CO_P45_05T_yyR
FREQUENCY 2140
GAIN 15.70 dBd
TILT	ELECTRICAL
COMMENT DATE 05.08.2013 +45 degrees polarized system Lever position 05T deg
HORIZONTAL 360
0.00 0.07
1.00 0.05
2.00 0.03
3.00 0.02
4.00 0.01
5.00 0.00
6.00 0.01
7.00 0.02
8.00 0.03
9.00 0.05
10.00 0.08
11.00 0.12
12.00 0.16
13.00 0.21
14.00 0.27
15.00 0.33
16.00 0.41
17.00 0.50
18.00 0.59
19.00 0.69
20.00 0.81
21.00 0.93
22.00 1.07
23.00 1.21
24.00 1.37
25.00 1.54
26.00 1.72
27.00 1.91
28.00 2.11
29.00 2.32
30.00 2.54
31.00 2.78
32.00 3.02
33.00 3.28
34.00 3.55
35.00 3.82
36.00 4.11
37.00 4.40
38.00 4.71
39.00 5.02
40.00 5.34
41.00 5.67
42.00 6.01
43.00 6.35
44.00 6.71
45.00 7.06
46.00 7.43
47.00 7.80
48.00 8.18
49.00 8.56
50.00 8.95
51.00 9.34
52.00 9.74
53.00 10.15
54.00 10.55
55.00 10.97
56.00 11.38
57.00 11.81
58.00 12.23
59.00 12.66
60.00 13.09
61.00 13.53
62.00 13.95
63.00 14.38
64.00 14.81
65.00 15.23
66.00 15.65
67.00 16.06
68.00 16.46
69.00 16.85
70.00 17.23
71.00 17.60
72.00 17.96
73.00 18.30
74.00 18.64
75.00 18.96
76.00 19.28
77.00 19.59
78.00 19.90
79.00 20.21
80.00 20.52
81.00 20.83
82.00 21.15
83.00 21.47
84.00 21.81
85.00 22.16
86.00 22.52
87.00 22.90
88.00 23.29
89.00 23.70
90.00 24.13
91.00 24.58
92.00 25.04
93.00 25.52
94.00 26.02
95.00 26.53
96.00 27.06
97.00 27.60
98.00 28.15
99.00 28.71
100.00 29.28
101.00 29.86
102.00 30.44
103.00 31.02
104.00 31.62
105.00 32.22
106.00 32.84
107.00 33.47
108.00 34.11
109.00 34.79
110.00 35.49
111.00 36.22
112.00 36.98
113.00 37.78
114.00 38.62
115.00 39.47
116.00 40.31
117.00 41.11
118.00 41.82
119.00 42.36
120.00 42.68
121.00 42.77
122.00 42.63
123.00 42.33
124.00 41.93
125.00 41.49
126.00 41.07
127.00 40.66
128.00 40.31
129.00 40.01
130.00 39.78
131.00 39.60
132.00 39.47
133.00 39.40
134.00 39.38
135.00 39.41
136.00 39.47
137.00 39.56
138.00 39.68
139.00 39.82
140.00 39.96
141.00 40.11
142.00 40.25
143.00 40.39
144.00 40.51
145.00 40.61
146.00 40.69
147.00 40.74
148.00 40.77
149.00 40.77
150.00 40.76
151.00 40.72
152.00 40.66
153.00 40.58
154.00 40.48
155.00 40.36
156.00 40.21
157.00 40.05
158.00 39.87
159.00 39.67
160.00 39.46
161.00 39.24
162.00 39.01
163.00 38.78
164.00 38.55
165.00 38.34
166.00 38.13
167.00 37.94
168.00 37.76
169.00 37.60
170.00 37.46
171.00 37.34
172.00 37.24
173.00 37.15
174.00 37.06
175.00 36.98
176.00 36.91
177.00 36.82
178.00 36.73
179.00 36.62
180.00 36.49
181.00 36.34
182.00 36.17
183.00 35.98
184.00 35.77
185.00 35.55
186.00 35.32
187.00 35.09
188.00 34.87
189.00 34.66
190.00 34.46
191.00 34.28
192.00 34.13
193.00 34.01
194.00 33.92
195.00 33.87
196.00 33.84
197.00 33.86
198.00 33.91
199.00 34.00
200.00 34.12
201.00 34.29
202.00 34.49
203.00 34.72
204.00 35.00
205.00 35.30
206.00 35.64
207.00 36.01
208.00 36.40
209.00 36.83
210.00 37.28
211.00 37.75
212.00 38.25
213.00 38.78
214.00 39.33
215.00 39.92
216.00 40.54
217.00 41.22
218.00 41.95
219.00 42.76
220.00 43.68
221.00 44.72
222.00 45.93
223.00 47.37
224.00 49.14
225.00 51.38
226.00 54.35
227.00 58.44
228.00 62.06
229.00 59.09
230.00 54.91
231.00 51.86
232.00 49.60
233.00 47.87
234.00 46.49
235.00 45.37
236.00 44.46
237.00 43.70
238.00 43.09
239.00 42.56
240.00 42.13
241.00 41.77
242.00 41.47
243.00 41.19
244.00 40.92
245.00 40.65
246.00 40.36
247.00 40.01
248.00 39.62
249.00 39.15
250.00 38.61
251.00 38.02
252.00 37.37
253.00 36.68
254.00 35.97
255.00 35.23
256.00 34.50
257.00 33.77
258.00 33.04
259.00 32.33
260.00 31.63
261.00 30.94
262.00 30.27
263.00 29.62
264.00 28.99
265.00 28.37
266.00 27.76
267.00 27.17
268.00 26.59
269.00 26.03
270.00 25.47
271.00 24.93
272.00 24.40
273.00 23.88
274.00 23.36
275.00 22.86
276.00 22.37
277.00 21.88
278.00 21.40
279.00 20.93
280.00 20.46
281.00 20.00
282.00 19.55
283.00 19.11
284.00 18.67
285.00 18.24
286.00 17.81
287.00 17.39
288.00 16.97
289.00 16.56
290.00 16.16
291.00 15.77
292.00 15.37
293.00 14.99
294.00 14.61
295.00 14.24
296.00 13.87
297.00 13.51
298.00 13.15
299.00 12.80
300.00 12.46
301.00 12.12
302.00 11.79
303.00 11.47
304.00 11.14
305.00 10.83
306.00 10.52
307.00 10.21
308.00 9.91
309.00 9.62
310.00 9.32
311.00 9.03
312.00 8.75
313.00 8.47
314.00 8.19
315.00 7.92
316.00 7.64
317.00 7.37
318.00 7.10
319.00 6.84
320.00 6.57
321.00 6.31
322.00 6.06
323.00 5.80
324.00 5.54
325.00 5.29
326.00 5.04
327.00 4.80
328.00 4.56
329.00 4.32
330.00 4.08
331.00 3.85
332.00 3.62
333.00 3.40
334.00 3.19
335.00 2.98
336.00 2.77
337.00 2.57
338.00 2.38
339.00 2.20
340.00 2.02
341.00 1.85
342.00 1.69
343.00 1.54
344.00 1.39
345.00 1.25
346.00 1.12
347.00 1.00
348.00 0.88
349.00 0.78
350.00 0.68
351.00 0.58
352.00 0.50
353.00 0.42
354.00 0.36
355.00 0.29
356.00 0.24
357.00 0.19
358.00 0.14
359.00 0.11
VERTICAL 360
0.00 10.68
1.00 6.71
2.00 3.75
3.00 1.67
4.00 0.43
5.00 0.00
6.00 0.43
7.00 1.80
8.00 4.33
9.00 8.53
10.00 16.19
11.00 24.99
12.00 17.17
13.00 15.17
14.00 16.74
15.00 21.01
16.00 21.17
17.00 17.12
18.00 15.45
19.00 16.01
20.00 18.70
21.00 24.03
22.00 26.72
23.00 21.48
24.00 18.33
25.00 17.30
26.00 17.95
27.00 20.26
28.00 23.53
29.00 23.84
30.00 21.40
31.00 19.98
32.00 20.05
33.00 21.32
34.00 23.26
35.00 24.81
36.00 25.53
37.00 26.53
38.00 29.10
39.00 33.08
40.00 31.86
41.00 27.44
42.00 24.81
43.00 23.67
44.00 23.70
45.00 24.78
46.00 26.85
47.00 29.49
48.00 31.16
49.00 30.41
50.00 28.92
51.00 28.11
52.00 27.88
53.00 27.40
54.00 26.54
55.00 26.15
56.00 26.92
57.00 29.14
58.00 33.02
59.00 38.91
60.00 44.60
61.00 41.68
62.00 37.78
63.00 35.36
64.00 34.08
65.00 33.87
66.00 34.56
67.00 35.52
68.00 35.88
69.00 35.41
70.00 34.27
71.00 32.90
72.00 31.86
73.00 31.34
74.00 31.10
75.00 30.74
76.00 29.93
77.00 28.82
78.00 27.89
79.00 27.43
80.00 27.36
81.00 27.34
82.00 27.02
83.00 26.46
84.00 26.10
85.00 26.40
86.00 27.55
87.00 29.46
88.00 31.56
89.00 32.44
90.00 31.19
91.00 29.52
92.00 28.70
93.00 28.82
94.00 29.49
95.00 30.11
96.00 30.10
97.00 29.59
98.00 29.47
99.00 30.27
100.00 32.03
101.00 34.51
102.00 36.86
103.00 37.01
104.00 36.02
105.00 36.35
106.00 38.26
107.00 40.89
108.00 44.42
109.00 49.15
110.00 46.40
111.00 43.45
112.00 43.68
113.00 45.07
114.00 44.86
115.00 42.90
116.00 41.29
117.00 40.82
118.00 40.39
119.00 38.74
120.00 36.82
121.00 35.58
122.00 35.19
123.00 35.58
124.00 36.36
125.00 37.20
126.00 38.40
127.00 40.04
128.00 41.06
129.00 40.53
130.00 38.83
131.00 37.47
132.00 37.79
133.00 40.49
134.00 46.10
135.00 52.73
136.00 47.33
137.00 41.70
138.00 39.20
139.00 38.76
140.00 39.33
141.00 39.64
142.00 39.00
143.00 38.36
144.00 39.17
145.00 41.74
146.00 42.75
147.00 40.79
148.00 39.68
149.00 39.58
150.00 40.21
151.00 42.41
152.00 46.79
153.00 50.02
154.00 45.77
155.00 39.41
156.00 35.18
157.00 33.39
158.00 34.03
159.00 37.48
160.00 43.01
161.00 42.90
162.00 40.14
163.00 36.97
164.00 34.03
165.00 32.71
166.00 33.11
167.00 35.16
168.00 38.94
169.00 41.22
170.00 39.42
171.00 40.43
172.00 45.50
173.00 40.66
174.00 36.25
175.00 35.55
176.00 36.83
177.00 39.15
178.00 42.95
179.00 47.73
180.00 51.50
181.00 46.39
182.00 38.74
183.00 35.65
184.00 35.73
185.00 38.12
186.00 41.06
187.00 43.14
188.00 45.82
189.00 51.68
190.00 58.11
191.00 45.27
192.00 42.14
193.00 42.03
194.00 40.18
195.00 38.31
196.00 40.01
197.00 46.60
198.00 44.63
199.00 41.61
200.00 44.77
201.00 55.42
202.00 44.22
203.00 37.37
204.00 34.40
205.00 34.31
206.00 37.09
207.00 40.33
208.00 39.39
209.00 39.82
210.00 45.99
211.00 61.99
212.00 42.18
213.00 38.56
214.00 37.50
215.00 37.11
216.00 36.22
217.00 35.40
218.00 35.51
219.00 36.45
220.00 37.55
221.00 37.93
222.00 37.32
223.00 36.63
224.00 36.54
225.00 37.07
226.00 38.50
227.00 40.25
228.00 38.72
229.00 35.66
230.00 34.31
231.00 35.29
232.00 40.08
233.00 51.94
234.00 39.32
235.00 34.73
236.00 33.97
237.00 35.91
238.00 41.29
239.00 46.85
240.00 40.28
241.00 36.69
242.00 35.79
243.00 37.16
244.00 42.17
245.00 53.32
246.00 43.27
247.00 39.38
248.00 39.30
249.00 40.72
250.00 40.60
251.00 38.12
252.00 35.74
253.00 34.19
254.00 32.96
255.00 31.68
256.00 30.56
257.00 29.79
258.00 29.16
259.00 28.37
260.00 27.39
261.00 26.41
262.00 25.64
263.00 25.10
264.00 24.70
265.00 24.33
266.00 23.94
267.00 23.52
268.00 23.10
269.00 22.75
270.00 22.60
271.00 22.69
272.00 22.99
273.00 23.32
274.00 23.49
275.00 23.43
276.00 23.26
277.00 23.10
278.00 22.95
279.00 22.72
280.00 22.41
281.00 22.14
282.00 22.02
283.00 22.13
284.00 22.45
285.00 22.95
286.00 23.62
287.00 24.56
288.00 25.89
289.00 27.58
290.00 29.39
291.00 31.01
292.00 32.64
293.00 34.89
294.00 38.09
295.00 41.47
296.00 40.63
297.00 36.26
298.00 32.84
299.00 30.91
300.00 30.05
301.00 29.34
302.00 28.02
303.00 26.50
304.00 25.49
305.00 25.11
306.00 25.06
307.00 25.11
308.00 25.56
309.00 27.23
310.00 31.56
311.00 36.41
312.00 30.30
313.00 26.27
314.00 24.87
315.00 25.07
316.00 26.64
317.00 30.51
318.00 36.72
319.00 28.20
320.00 21.59
321.00 17.98
322.00 16.09
323.00 15.51
324.00 16.14
325.00 18.07
326.00 21.51
327.00 25.05
328.00 23.39
329.00 20.16
330.00 18.37
331.00 17.82
332.00 18.17
333.00 19.10
334.00 20.19
335.00 21.34
336.00 23.24
337.00 27.56
338.00 35.36
339.00 28.59
340.00 23.23
341.00 21.24
342.00 21.53
343.00 24.68
344.00 33.77
345.00 28.90
346.00 22.54
347.00 20.73
348.00 21.58
349.00 25.10
350.00 28.65
351.00 24.17
352.00 20.10
353.00 18.28
354.00 18.23
355.00 19.83
356.00 23.01
357.00 25.52
358.00 21.85
359.00 15.79
