NAME ATR4518R7_0947_X_CO_M45_06T
FREQUENCY 0947
GAIN 15.23 dBd
TILT	ELECTRICAL
COMMENT DATE 05.08.2013 -45 degrees polarized system Lever position 06T deg
HORIZONTAL 360
0.00 0.02
1.00 0.00
2.00 0.00
3.00 0.00
4.00 0.00
5.00 0.02
6.00 0.04
7.00 0.06
8.00 0.10
9.00 0.14
10.00 0.19
11.00 0.24
12.00 0.31
13.00 0.38
14.00 0.45
15.00 0.54
16.00 0.63
17.00 0.73
18.00 0.83
19.00 0.94
20.00 1.07
21.00 1.19
22.00 1.33
23.00 1.47
24.00 1.62
25.00 1.78
26.00 1.94
27.00 2.11
28.00 2.29
29.00 2.48
30.00 2.67
31.00 2.87
32.00 3.08
33.00 3.30
34.00 3.52
35.00 3.75
36.00 3.99
37.00 4.24
38.00 4.49
39.00 4.75
40.00 5.02
41.00 5.30
42.00 5.58
43.00 5.87
44.00 6.17
45.00 6.48
46.00 6.80
47.00 7.12
48.00 7.46
49.00 7.80
50.00 8.15
51.00 8.51
52.00 8.87
53.00 9.25
54.00 9.64
55.00 10.03
56.00 10.43
57.00 10.85
58.00 11.28
59.00 11.72
60.00 12.16
61.00 12.62
62.00 13.10
63.00 13.58
64.00 14.08
65.00 14.59
66.00 15.11
67.00 15.65
68.00 16.21
69.00 16.78
70.00 17.37
71.00 17.97
72.00 18.59
73.00 19.23
74.00 19.89
75.00 20.56
76.00 21.25
77.00 21.96
78.00 22.68
79.00 23.42
80.00 24.16
81.00 24.90
82.00 25.64
83.00 26.36
84.00 27.05
85.00 27.70
86.00 28.29
87.00 28.82
88.00 29.26
89.00 29.62
90.00 29.89
91.00 30.08
92.00 30.21
93.00 30.28
94.00 30.32
95.00 30.33
96.00 30.33
97.00 30.33
98.00 30.33
99.00 30.35
100.00 30.39
101.00 30.45
102.00 30.54
103.00 30.65
104.00 30.79
105.00 30.96
106.00 31.16
107.00 31.38
108.00 31.64
109.00 31.93
110.00 32.24
111.00 32.59
112.00 32.97
113.00 33.37
114.00 33.81
115.00 34.27
116.00 34.75
117.00 35.28
118.00 35.82
119.00 36.38
120.00 36.96
121.00 37.57
122.00 38.18
123.00 38.80
124.00 39.43
125.00 40.04
126.00 40.63
127.00 41.19
128.00 41.70
129.00 42.14
130.00 42.51
131.00 42.78
132.00 42.94
133.00 43.00
134.00 42.93
135.00 42.75
136.00 42.48
137.00 42.13
138.00 41.71
139.00 41.23
140.00 40.72
141.00 40.18
142.00 39.63
143.00 39.06
144.00 38.50
145.00 37.94
146.00 37.40
147.00 36.86
148.00 36.35
149.00 35.85
150.00 35.37
151.00 34.91
152.00 34.48
153.00 34.06
154.00 33.67
155.00 33.30
156.00 32.95
157.00 32.63
158.00 32.33
159.00 32.04
160.00 31.79
161.00 31.55
162.00 31.33
163.00 31.13
164.00 30.96
165.00 30.80
166.00 30.66
167.00 30.55
168.00 30.45
169.00 30.37
170.00 30.31
171.00 30.27
172.00 30.25
173.00 30.24
174.00 30.25
175.00 30.28
176.00 30.33
177.00 30.40
178.00 30.49
179.00 30.59
180.00 30.71
181.00 30.85
182.00 31.01
183.00 31.18
184.00 31.38
185.00 31.60
186.00 31.84
187.00 32.09
188.00 32.37
189.00 32.67
190.00 32.99
191.00 33.34
192.00 33.71
193.00 34.11
194.00 34.53
195.00 34.99
196.00 35.47
197.00 35.99
198.00 36.55
199.00 37.14
200.00 37.77
201.00 38.44
202.00 39.16
203.00 39.92
204.00 40.72
205.00 41.54
206.00 42.38
207.00 43.19
208.00 43.92
209.00 44.49
210.00 44.81
211.00 44.82
212.00 44.53
213.00 44.01
214.00 43.30
215.00 42.53
216.00 41.71
217.00 40.92
218.00 40.14
219.00 39.40
220.00 38.70
221.00 38.04
222.00 37.42
223.00 36.84
224.00 36.28
225.00 35.76
226.00 35.27
227.00 34.81
228.00 34.36
229.00 33.94
230.00 33.54
231.00 33.16
232.00 32.80
233.00 32.45
234.00 32.11
235.00 31.79
236.00 31.48
237.00 31.18
238.00 30.88
239.00 30.60
240.00 30.32
241.00 30.04
242.00 29.77
243.00 29.50
244.00 29.24
245.00 28.97
246.00 28.69
247.00 28.42
248.00 28.14
249.00 27.86
250.00 27.57
251.00 27.27
252.00 26.97
253.00 26.65
254.00 26.33
255.00 26.00
256.00 25.67
257.00 25.32
258.00 24.97
259.00 24.61
260.00 24.24
261.00 23.87
262.00 23.49
263.00 23.11
264.00 22.73
265.00 22.35
266.00 21.96
267.00 21.58
268.00 21.20
269.00 20.81
270.00 20.43
271.00 20.05
272.00 19.68
273.00 19.31
274.00 18.94
275.00 18.57
276.00 18.21
277.00 17.86
278.00 17.50
279.00 17.16
280.00 16.81
281.00 16.47
282.00 16.14
283.00 15.81
284.00 15.48
285.00 15.16
286.00 14.84
287.00 14.53
288.00 14.22
289.00 13.91
290.00 13.61
291.00 13.31
292.00 13.01
293.00 12.71
294.00 12.42
295.00 12.13
296.00 11.84
297.00 11.56
298.00 11.27
299.00 10.99
300.00 10.71
301.00 10.43
302.00 10.16
303.00 9.88
304.00 9.61
305.00 9.34
306.00 9.07
307.00 8.80
308.00 8.54
309.00 8.27
310.00 8.01
311.00 7.75
312.00 7.49
313.00 7.24
314.00 6.99
315.00 6.74
316.00 6.49
317.00 6.24
318.00 6.00
319.00 5.76
320.00 5.53
321.00 5.29
322.00 5.06
323.00 4.84
324.00 4.62
325.00 4.40
326.00 4.18
327.00 3.97
328.00 3.77
329.00 3.56
330.00 3.37
331.00 3.17
332.00 2.99
333.00 2.80
334.00 2.62
335.00 2.45
336.00 2.28
337.00 2.12
338.00 1.96
339.00 1.81
340.00 1.67
341.00 1.53
342.00 1.39
343.00 1.26
344.00 1.14
345.00 1.02
346.00 0.91
347.00 0.81
348.00 0.71
349.00 0.61
350.00 0.53
351.00 0.45
352.00 0.37
353.00 0.31
354.00 0.24
355.00 0.19
356.00 0.14
357.00 0.10
358.00 0.07
359.00 0.04
VERTICAL 360
0.00 7.39
1.00 4.96
2.00 3.09
3.00 1.69
4.00 0.72
5.00 0.16
6.00 0.00
7.00 0.23
8.00 0.85
9.00 1.89
10.00 3.36
11.00 5.34
12.00 7.96
13.00 11.38
14.00 15.78
15.00 20.48
16.00 22.40
17.00 22.24
18.00 22.93
19.00 25.24
20.00 30.08
21.00 45.67
22.00 33.76
23.00 27.49
24.00 24.98
25.00 24.38
26.00 25.35
27.00 28.03
28.00 33.32
29.00 40.61
30.00 33.74
31.00 29.52
32.00 27.78
33.00 27.77
34.00 29.24
35.00 30.36
36.00 27.61
37.00 24.12
38.00 21.69
39.00 20.19
40.00 19.30
41.00 18.81
42.00 18.68
43.00 18.96
44.00 19.77
45.00 21.21
46.00 23.44
47.00 26.80
48.00 32.49
49.00 45.93
50.00 34.34
51.00 29.12
52.00 26.93
53.00 26.27
54.00 26.42
55.00 26.78
56.00 26.95
57.00 27.03
58.00 27.51
59.00 29.00
60.00 32.08
61.00 37.50
62.00 44.26
63.00 41.71
64.00 39.49
65.00 40.43
66.00 46.46
67.00 48.20
68.00 38.78
69.00 35.21
70.00 34.19
71.00 34.19
72.00 32.16
73.00 28.80
74.00 26.51
75.00 25.61
76.00 25.98
77.00 27.70
78.00 30.46
79.00 30.31
80.00 28.28
81.00 26.32
82.00 25.30
83.00 25.63
84.00 26.50
85.00 26.92
86.00 26.86
87.00 26.47
88.00 25.75
89.00 25.36
90.00 25.96
91.00 26.68
92.00 27.09
93.00 27.20
94.00 26.84
95.00 26.06
96.00 25.70
97.00 26.45
98.00 28.03
99.00 29.67
100.00 30.30
101.00 29.17
102.00 27.91
103.00 27.62
104.00 28.56
105.00 30.56
106.00 32.39
107.00 31.99
108.00 30.62
109.00 30.12
110.00 31.08
111.00 33.77
112.00 37.86
113.00 38.55
114.00 35.85
115.00 34.86
116.00 36.42
117.00 41.76
118.00 58.76
119.00 45.22
120.00 43.00
121.00 45.57
122.00 47.00
123.00 39.43
124.00 34.77
125.00 32.43
126.00 31.63
127.00 31.74
128.00 31.98
129.00 31.73
130.00 31.25
131.00 31.30
132.00 32.36
133.00 34.66
134.00 38.38
135.00 44.25
136.00 56.42
137.00 47.87
138.00 41.59
139.00 38.41
140.00 37.04
141.00 37.20
142.00 38.71
143.00 41.19
144.00 44.12
145.00 46.87
146.00 48.38
147.00 48.06
148.00 47.37
149.00 48.26
150.00 52.27
151.00 51.39
152.00 45.57
153.00 42.93
154.00 42.43
155.00 43.21
156.00 44.18
157.00 42.88
158.00 39.25
159.00 35.84
160.00 33.56
161.00 32.52
162.00 32.58
163.00 33.24
164.00 33.35
165.00 31.91
166.00 29.77
167.00 27.97
168.00 26.77
169.00 26.09
170.00 25.81
171.00 26.27
172.00 27.41
173.00 29.02
174.00 31.10
175.00 32.57
176.00 32.99
177.00 32.29
178.00 31.52
179.00 31.12
180.00 30.92
181.00 30.77
182.00 30.85
183.00 31.61
184.00 33.58
185.00 37.46
186.00 44.75
187.00 49.48
188.00 43.20
189.00 40.05
190.00 38.04
191.00 36.73
192.00 36.27
193.00 36.78
194.00 38.04
195.00 39.41
196.00 40.19
197.00 40.55
198.00 41.52
199.00 44.39
200.00 50.59
201.00 56.09
202.00 53.51
203.00 53.37
204.00 52.27
205.00 47.97
206.00 43.01
207.00 40.12
208.00 39.62
209.00 41.17
210.00 42.56
211.00 40.75
212.00 38.05
213.00 35.71
214.00 33.79
215.00 32.30
216.00 31.31
217.00 30.86
218.00 30.82
219.00 30.83
220.00 30.68
221.00 30.45
222.00 30.31
223.00 30.56
224.00 31.47
225.00 32.98
226.00 34.61
227.00 35.56
228.00 35.27
229.00 34.37
230.00 33.90
231.00 34.12
232.00 34.54
233.00 34.49
234.00 33.76
235.00 32.93
236.00 32.57
237.00 32.82
238.00 33.33
239.00 33.56
240.00 33.15
241.00 32.38
242.00 31.87
243.00 31.93
244.00 32.38
245.00 32.78
246.00 32.70
247.00 32.27
248.00 32.10
249.00 32.60
250.00 33.70
251.00 34.98
252.00 35.54
253.00 34.91
254.00 34.13
255.00 34.12
256.00 34.85
257.00 35.63
258.00 35.87
259.00 35.84
260.00 36.46
261.00 38.76
262.00 43.83
263.00 53.92
264.00 51.05
265.00 44.24
266.00 41.08
267.00 39.95
268.00 38.62
269.00 36.83
270.00 36.51
271.00 38.39
272.00 42.18
273.00 48.45
274.00 52.49
275.00 40.61
276.00 36.38
277.00 35.25
278.00 36.03
279.00 38.36
280.00 43.06
281.00 45.42
282.00 40.42
283.00 39.00
284.00 41.02
285.00 45.06
286.00 41.66
287.00 36.70
288.00 34.14
289.00 33.98
290.00 36.66
291.00 44.47
292.00 50.26
293.00 40.75
294.00 38.08
295.00 38.38
296.00 43.22
297.00 54.58
298.00 39.37
299.00 35.83
300.00 35.57
301.00 37.27
302.00 39.09
303.00 37.82
304.00 35.73
305.00 35.18
306.00 36.59
307.00 40.42
308.00 48.89
309.00 53.55
310.00 45.32
311.00 43.01
312.00 42.24
313.00 42.17
314.00 44.83
315.00 66.69
316.00 41.27
317.00 34.57
318.00 30.85
319.00 28.22
320.00 25.90
321.00 23.71
322.00 21.85
323.00 20.56
324.00 19.99
325.00 20.19
326.00 21.20
327.00 23.00
328.00 25.56
329.00 28.80
330.00 32.58
331.00 34.55
332.00 32.20
333.00 29.76
334.00 28.70
335.00 29.02
336.00 30.56
337.00 32.29
338.00 31.82
339.00 30.07
340.00 29.05
341.00 28.82
342.00 28.43
343.00 27.01
344.00 24.92
345.00 22.96
346.00 21.51
347.00 20.68
348.00 20.57
349.00 21.34
350.00 23.31
351.00 27.18
352.00 33.35
353.00 30.45
354.00 26.09
355.00 24.14
356.00 22.51
357.00 18.92
358.00 14.42
359.00 10.50
