NAME ATR4518R7_2535_X_CO_P45_01T_yyR
FREQUENCY 2535
GAIN 15.59 dBd
TILT	ELECTRICAL
COMMENT DATE 05.08.2013 +45 degrees polarized system Lever position 01T deg
HORIZONTAL 360
0.00 0.02
1.00 0.04
2.00 0.06
3.00 0.10
4.00 0.14
5.00 0.19
6.00 0.25
7.00 0.32
8.00 0.39
9.00 0.47
10.00 0.56
11.00 0.65
12.00 0.75
13.00 0.85
14.00 0.95
15.00 1.06
16.00 1.17
17.00 1.29
18.00 1.40
19.00 1.51
20.00 1.63
21.00 1.74
22.00 1.86
23.00 1.98
24.00 2.09
25.00 2.21
26.00 2.34
27.00 2.46
28.00 2.59
29.00 2.72
30.00 2.87
31.00 3.01
32.00 3.17
33.00 3.34
34.00 3.51
35.00 3.70
36.00 3.90
37.00 4.12
38.00 4.35
39.00 4.59
40.00 4.85
41.00 5.12
42.00 5.41
43.00 5.71
44.00 6.04
45.00 6.38
46.00 6.73
47.00 7.11
48.00 7.50
49.00 7.92
50.00 8.35
51.00 8.80
52.00 9.27
53.00 9.77
54.00 10.28
55.00 10.82
56.00 11.39
57.00 11.98
58.00 12.59
59.00 13.24
60.00 13.92
61.00 14.63
62.00 15.37
63.00 16.15
64.00 16.97
65.00 17.83
66.00 18.73
67.00 19.67
68.00 20.66
69.00 21.69
70.00 22.78
71.00 23.92
72.00 25.12
73.00 26.37
74.00 27.70
75.00 29.10
76.00 30.60
77.00 32.23
78.00 34.03
79.00 36.08
80.00 38.47
81.00 41.32
82.00 44.46
83.00 46.11
84.00 44.25
85.00 41.37
86.00 38.90
87.00 36.92
88.00 35.33
89.00 34.03
90.00 32.97
91.00 32.10
92.00 31.38
93.00 30.82
94.00 30.37
95.00 30.04
96.00 29.82
97.00 29.70
98.00 29.67
99.00 29.74
100.00 29.88
101.00 30.10
102.00 30.39
103.00 30.73
104.00 31.11
105.00 31.50
106.00 31.88
107.00 32.24
108.00 32.53
109.00 32.76
110.00 32.91
111.00 33.01
112.00 33.07
113.00 33.12
114.00 33.19
115.00 33.30
116.00 33.47
117.00 33.70
118.00 34.01
119.00 34.36
120.00 34.73
121.00 35.07
122.00 35.30
123.00 35.35
124.00 35.18
125.00 34.79
126.00 34.25
127.00 33.64
128.00 33.04
129.00 32.49
130.00 32.03
131.00 31.69
132.00 31.48
133.00 31.43
134.00 31.53
135.00 31.81
136.00 32.30
137.00 33.01
138.00 34.00
139.00 35.34
140.00 37.17
141.00 39.71
142.00 43.43
143.00 48.56
144.00 48.00
145.00 42.89
146.00 39.29
147.00 36.81
148.00 35.02
149.00 33.70
150.00 32.73
151.00 32.04
152.00 31.60
153.00 31.37
154.00 31.34
155.00 31.49
156.00 31.84
157.00 32.36
158.00 33.06
159.00 33.91
160.00 34.86
161.00 35.78
162.00 36.49
163.00 36.73
164.00 36.43
165.00 35.72
166.00 34.85
167.00 33.99
168.00 33.24
169.00 32.65
170.00 32.23
171.00 31.99
172.00 31.93
173.00 32.05
174.00 32.36
175.00 32.87
176.00 33.61
177.00 34.60
178.00 35.88
179.00 37.55
180.00 39.74
181.00 42.64
182.00 46.45
183.00 49.52
184.00 47.41
185.00 43.97
186.00 41.41
187.00 39.61
188.00 38.34
189.00 37.48
190.00 36.94
191.00 36.65
192.00 36.60
193.00 36.75
194.00 37.08
195.00 37.57
196.00 38.18
197.00 38.86
198.00 39.54
199.00 40.09
200.00 40.40
201.00 40.41
202.00 40.17
203.00 39.77
204.00 39.31
205.00 38.90
206.00 38.57
207.00 38.36
208.00 38.27
209.00 38.30
210.00 38.45
211.00 38.68
212.00 38.95
213.00 39.20
214.00 39.37
215.00 39.37
216.00 39.17
217.00 38.77
218.00 38.21
219.00 37.56
220.00 36.88
221.00 36.22
222.00 35.61
223.00 35.07
224.00 34.61
225.00 34.22
226.00 33.90
227.00 33.65
228.00 33.46
229.00 33.33
230.00 33.26
231.00 33.22
232.00 33.22
233.00 33.26
234.00 33.32
235.00 33.40
236.00 33.50
237.00 33.62
238.00 33.76
239.00 33.91
240.00 34.08
241.00 34.27
242.00 34.49
243.00 34.73
244.00 35.01
245.00 35.33
246.00 35.69
247.00 36.11
248.00 36.57
249.00 37.08
250.00 37.65
251.00 38.25
252.00 38.88
253.00 39.47
254.00 39.98
255.00 40.29
256.00 40.33
257.00 40.04
258.00 39.45
259.00 38.63
260.00 37.68
261.00 36.67
262.00 35.67
263.00 34.70
264.00 33.76
265.00 32.88
266.00 32.05
267.00 31.26
268.00 30.51
269.00 29.79
270.00 29.11
271.00 28.46
272.00 27.83
273.00 27.22
274.00 26.63
275.00 26.05
276.00 25.49
277.00 24.93
278.00 24.39
279.00 23.85
280.00 23.32
281.00 22.80
282.00 22.29
283.00 21.79
284.00 21.29
285.00 20.80
286.00 20.31
287.00 19.83
288.00 19.36
289.00 18.89
290.00 18.42
291.00 17.96
292.00 17.50
293.00 17.05
294.00 16.59
295.00 16.13
296.00 15.68
297.00 15.22
298.00 14.77
299.00 14.31
300.00 13.85
301.00 13.40
302.00 12.94
303.00 12.49
304.00 12.03
305.00 11.58
306.00 11.13
307.00 10.68
308.00 10.24
309.00 9.80
310.00 9.37
311.00 8.95
312.00 8.53
313.00 8.12
314.00 7.72
315.00 7.33
316.00 6.95
317.00 6.58
318.00 6.22
319.00 5.88
320.00 5.54
321.00 5.22
322.00 4.90
323.00 4.60
324.00 4.31
325.00 4.03
326.00 3.77
327.00 3.51
328.00 3.27
329.00 3.03
330.00 2.81
331.00 2.60
332.00 2.40
333.00 2.21
334.00 2.03
335.00 1.85
336.00 1.69
337.00 1.54
338.00 1.40
339.00 1.26
340.00 1.13
341.00 1.01
342.00 0.90
343.00 0.80
344.00 0.70
345.00 0.60
346.00 0.52
347.00 0.44
348.00 0.37
349.00 0.30
350.00 0.24
351.00 0.19
352.00 0.14
353.00 0.10
354.00 0.07
355.00 0.04
356.00 0.02
357.00 0.01
358.00 0.00
359.00 0.01
VERTICAL 360
0.00 0.43
1.00 0.00
2.00 0.81
3.00 3.12
4.00 7.75
5.00 18.96
6.00 20.70
7.00 13.03
8.00 12.63
9.00 15.92
10.00 19.66
11.00 16.03
12.00 13.53
13.00 13.97
14.00 16.89
15.00 20.41
16.00 19.15
17.00 16.61
18.00 15.97
19.00 17.91
20.00 24.35
21.00 26.53
22.00 19.68
23.00 17.34
24.00 17.09
25.00 17.60
26.00 18.06
27.00 18.04
28.00 17.31
29.00 15.97
30.00 14.55
31.00 13.65
32.00 13.77
33.00 15.31
34.00 18.71
35.00 23.85
36.00 24.06
37.00 20.54
38.00 19.10
39.00 19.86
40.00 22.96
41.00 28.52
42.00 28.41
43.00 23.58
44.00 20.94
45.00 20.29
46.00 21.82
47.00 26.50
48.00 31.14
49.00 26.43
50.00 23.63
51.00 23.00
52.00 23.44
53.00 24.92
54.00 28.56
55.00 33.58
56.00 28.99
57.00 25.26
58.00 24.59
59.00 25.62
60.00 27.07
61.00 27.71
62.00 27.35
63.00 26.71
64.00 25.94
65.00 25.10
66.00 24.63
67.00 24.75
68.00 25.28
69.00 25.92
70.00 26.50
71.00 27.35
72.00 28.86
73.00 30.61
74.00 31.56
75.00 31.33
76.00 30.63
77.00 31.29
78.00 35.62
79.00 48.21
80.00 37.33
81.00 33.06
82.00 32.10
83.00 31.71
84.00 30.80
85.00 29.99
86.00 30.26
87.00 31.54
88.00 32.73
89.00 35.70
90.00 39.59
91.00 30.41
92.00 26.19
93.00 26.24
94.00 30.13
95.00 34.68
96.00 33.91
97.00 36.08
98.00 37.49
99.00 36.67
100.00 43.49
101.00 36.91
102.00 31.91
103.00 32.98
104.00 37.89
105.00 38.28
106.00 38.45
107.00 46.77
108.00 46.99
109.00 37.64
110.00 34.24
111.00 32.98
112.00 32.72
113.00 32.68
114.00 33.11
115.00 33.61
116.00 33.51
117.00 33.92
118.00 35.55
119.00 37.09
120.00 36.94
121.00 36.99
122.00 39.43
123.00 40.93
124.00 37.44
125.00 35.50
126.00 35.09
127.00 35.59
128.00 38.32
129.00 43.25
130.00 43.69
131.00 41.73
132.00 37.78
133.00 36.05
134.00 38.86
135.00 40.40
136.00 35.36
137.00 32.98
138.00 32.29
139.00 33.04
140.00 36.89
141.00 44.45
142.00 41.38
143.00 39.33
144.00 36.74
145.00 33.29
146.00 31.86
147.00 32.10
148.00 32.65
149.00 32.64
150.00 33.22
151.00 35.97
152.00 40.52
153.00 40.45
154.00 39.60
155.00 40.40
156.00 41.41
157.00 44.67
158.00 43.03
159.00 38.89
160.00 37.27
161.00 34.88
162.00 33.47
163.00 35.90
164.00 48.71
165.00 45.11
166.00 43.49
167.00 50.61
168.00 41.58
169.00 39.43
170.00 38.59
171.00 36.55
172.00 37.09
173.00 41.21
174.00 45.22
175.00 43.62
176.00 39.99
177.00 37.71
178.00 36.68
179.00 35.88
180.00 36.02
181.00 36.77
182.00 36.01
183.00 35.49
184.00 37.27
185.00 40.42
186.00 38.96
187.00 36.13
188.00 36.09
189.00 39.95
190.00 45.33
191.00 40.20
192.00 37.59
193.00 37.88
194.00 38.97
195.00 39.04
196.00 38.96
197.00 40.86
198.00 47.77
199.00 55.24
200.00 44.41
201.00 41.97
202.00 43.46
203.00 52.43
204.00 47.39
205.00 41.18
206.00 41.44
207.00 46.61
208.00 49.37
209.00 45.80
210.00 44.14
211.00 45.26
212.00 51.69
213.00 48.57
214.00 43.78
215.00 40.70
216.00 38.17
217.00 38.01
218.00 38.64
219.00 36.98
220.00 35.78
221.00 36.21
222.00 37.24
223.00 38.76
224.00 40.88
225.00 41.36
226.00 38.71
227.00 35.82
228.00 34.82
229.00 35.59
230.00 36.30
231.00 35.97
232.00 36.22
233.00 37.57
234.00 38.88
235.00 38.80
236.00 38.13
237.00 38.32
238.00 39.43
239.00 40.57
240.00 41.60
241.00 42.27
242.00 41.34
243.00 39.49
244.00 37.22
245.00 35.01
246.00 33.02
247.00 30.68
248.00 28.56
249.00 27.54
250.00 27.81
251.00 28.96
252.00 29.98
253.00 29.95
254.00 29.32
255.00 29.47
256.00 31.60
257.00 36.80
258.00 46.47
259.00 51.65
260.00 43.83
261.00 39.75
262.00 40.41
263.00 39.31
264.00 35.43
265.00 35.16
266.00 40.30
267.00 53.61
268.00 46.44
269.00 46.73
270.00 39.34
271.00 35.22
272.00 34.77
273.00 35.70
274.00 37.86
275.00 51.14
276.00 40.69
277.00 34.19
278.00 34.04
279.00 37.87
280.00 44.89
281.00 52.17
282.00 48.74
283.00 41.55
284.00 33.77
285.00 28.21
286.00 24.77
287.00 22.45
288.00 20.55
289.00 18.87
290.00 17.47
291.00 16.41
292.00 15.64
293.00 15.13
294.00 14.93
295.00 15.22
296.00 16.07
297.00 17.49
298.00 19.47
299.00 22.28
300.00 27.05
301.00 34.54
302.00 30.11
303.00 25.14
304.00 22.83
305.00 21.69
306.00 21.21
307.00 21.36
308.00 22.33
309.00 24.28
310.00 27.14
311.00 28.59
312.00 26.30
313.00 24.35
314.00 24.76
315.00 27.23
316.00 26.89
317.00 23.81
318.00 22.38
319.00 22.59
320.00 24.11
321.00 27.65
322.00 30.84
323.00 25.76
324.00 21.80
325.00 20.30
326.00 20.37
327.00 21.16
328.00 21.89
329.00 22.38
330.00 22.91
331.00 23.69
332.00 24.36
333.00 23.32
334.00 20.93
335.00 19.22
336.00 18.96
337.00 20.55
338.00 25.32
339.00 34.77
340.00 25.70
341.00 21.05
342.00 20.39
343.00 23.25
344.00 36.49
345.00 29.29
346.00 22.39
347.00 21.21
348.00 22.74
349.00 25.13
350.00 26.26
351.00 27.64
352.00 27.45
353.00 24.12
354.00 24.16
355.00 31.88
356.00 17.99
357.00 9.67
358.00 4.95
359.00 2.03
