NAME ATR4518R7_2350_X_CO_M45_09T_yyR
FREQUENCY 2350
GAIN 14.73 dBd
TILT	ELECTRICAL
COMMENT DATE 05.08.2013 -45 degrees polarized system Lever position 09T deg
HORIZONTAL 360
0.00 0.01
1.00 0.02
2.00 0.05
3.00 0.08
4.00 0.11
5.00 0.16
6.00 0.22
7.00 0.28
8.00 0.35
9.00 0.43
10.00 0.52
11.00 0.61
12.00 0.71
13.00 0.82
14.00 0.94
15.00 1.06
16.00 1.19
17.00 1.33
18.00 1.48
19.00 1.63
20.00 1.78
21.00 1.95
22.00 2.12
23.00 2.29
24.00 2.47
25.00 2.66
26.00 2.85
27.00 3.05
28.00 3.26
29.00 3.47
30.00 3.69
31.00 3.92
32.00 4.15
33.00 4.39
34.00 4.64
35.00 4.89
36.00 5.15
37.00 5.42
38.00 5.70
39.00 5.99
40.00 6.28
41.00 6.58
42.00 6.89
43.00 7.21
44.00 7.53
45.00 7.86
46.00 8.20
47.00 8.54
48.00 8.89
49.00 9.25
50.00 9.62
51.00 9.99
52.00 10.37
53.00 10.75
54.00 11.14
55.00 11.53
56.00 11.94
57.00 12.35
58.00 12.76
59.00 13.18
60.00 13.61
61.00 14.05
62.00 14.50
63.00 14.96
64.00 15.43
65.00 15.92
66.00 16.42
67.00 16.93
68.00 17.46
69.00 18.01
70.00 18.58
71.00 19.18
72.00 19.80
73.00 20.44
74.00 21.12
75.00 21.83
76.00 22.58
77.00 23.36
78.00 24.19
79.00 25.06
80.00 25.99
81.00 26.96
82.00 28.00
83.00 29.11
84.00 30.28
85.00 31.54
86.00 32.89
87.00 34.35
88.00 35.92
89.00 37.61
90.00 39.41
91.00 41.27
92.00 42.96
93.00 44.08
94.00 44.20
95.00 43.39
96.00 42.13
97.00 40.81
98.00 39.56
99.00 38.45
100.00 37.46
101.00 36.58
102.00 35.82
103.00 35.17
104.00 34.61
105.00 34.15
106.00 33.77
107.00 33.49
108.00 33.29
109.00 33.17
110.00 33.15
111.00 33.21
112.00 33.35
113.00 33.59
114.00 33.91
115.00 34.32
116.00 34.81
117.00 35.38
118.00 35.99
119.00 36.63
120.00 37.24
121.00 37.76
122.00 38.11
123.00 38.22
124.00 38.09
125.00 37.76
126.00 37.30
127.00 36.78
128.00 36.26
129.00 35.77
130.00 35.34
131.00 34.98
132.00 34.69
133.00 34.46
134.00 34.31
135.00 34.21
136.00 34.16
137.00 34.15
138.00 34.18
139.00 34.23
140.00 34.31
141.00 34.39
142.00 34.49
143.00 34.60
144.00 34.72
145.00 34.85
146.00 35.01
147.00 35.20
148.00 35.43
149.00 35.72
150.00 36.07
151.00 36.50
152.00 36.99
153.00 37.57
154.00 38.21
155.00 38.90
156.00 39.61
157.00 40.26
158.00 40.77
159.00 41.03
160.00 40.99
161.00 40.69
162.00 40.22
163.00 39.67
164.00 39.14
165.00 38.68
166.00 38.32
167.00 38.09
168.00 37.99
169.00 38.05
170.00 38.26
171.00 38.65
172.00 39.23
173.00 40.02
174.00 41.06
175.00 42.38
176.00 43.97
177.00 45.78
178.00 47.40
179.00 47.93
180.00 46.94
181.00 45.22
182.00 43.51
183.00 42.07
184.00 40.94
185.00 40.09
186.00 39.48
187.00 39.11
188.00 38.97
189.00 39.04
190.00 39.36
191.00 39.93
192.00 40.81
193.00 42.06
194.00 43.83
195.00 46.40
196.00 50.40
197.00 57.03
198.00 55.44
199.00 49.04
200.00 45.13
201.00 42.46
202.00 40.52
203.00 39.04
204.00 37.91
205.00 37.05
206.00 36.41
207.00 35.97
208.00 35.71
209.00 35.62
210.00 35.70
211.00 35.95
212.00 36.37
213.00 36.98
214.00 37.81
215.00 38.90
216.00 40.31
217.00 42.14
218.00 44.60
219.00 48.11
220.00 53.72
221.00 59.18
222.00 52.39
223.00 47.76
224.00 44.87
225.00 42.89
226.00 41.47
227.00 40.43
228.00 39.67
229.00 39.13
230.00 38.75
231.00 38.49
232.00 38.32
233.00 38.18
234.00 38.04
235.00 37.85
236.00 37.59
237.00 37.24
238.00 36.82
239.00 36.33
240.00 35.81
241.00 35.29
242.00 34.79
243.00 34.33
244.00 33.92
245.00 33.55
246.00 33.24
247.00 32.97
248.00 32.73
249.00 32.50
250.00 32.26
251.00 32.00
252.00 31.68
253.00 31.28
254.00 30.80
255.00 30.25
256.00 29.63
257.00 28.96
258.00 28.26
259.00 27.55
260.00 26.84
261.00 26.16
262.00 25.51
263.00 24.89
264.00 24.31
265.00 23.77
266.00 23.26
267.00 22.79
268.00 22.36
269.00 21.96
270.00 21.58
271.00 21.22
272.00 20.89
273.00 20.57
274.00 20.25
275.00 19.94
276.00 19.62
277.00 19.30
278.00 18.97
279.00 18.62
280.00 18.25
281.00 17.87
282.00 17.47
283.00 17.06
284.00 16.64
285.00 16.20
286.00 15.76
287.00 15.31
288.00 14.85
289.00 14.40
290.00 13.95
291.00 13.50
292.00 13.07
293.00 12.63
294.00 12.21
295.00 11.79
296.00 11.39
297.00 10.99
298.00 10.60
299.00 10.22
300.00 9.86
301.00 9.49
302.00 9.14
303.00 8.80
304.00 8.47
305.00 8.14
306.00 7.83
307.00 7.52
308.00 7.21
309.00 6.92
310.00 6.63
311.00 6.35
312.00 6.07
313.00 5.80
314.00 5.54
315.00 5.29
316.00 5.04
317.00 4.80
318.00 4.57
319.00 4.34
320.00 4.12
321.00 3.91
322.00 3.70
323.00 3.50
324.00 3.31
325.00 3.12
326.00 2.94
327.00 2.77
328.00 2.60
329.00 2.44
330.00 2.29
331.00 2.14
332.00 2.00
333.00 1.86
334.00 1.73
335.00 1.60
336.00 1.48
337.00 1.36
338.00 1.25
339.00 1.14
340.00 1.03
341.00 0.93
342.00 0.84
343.00 0.75
344.00 0.66
345.00 0.58
346.00 0.51
347.00 0.43
348.00 0.37
349.00 0.30
350.00 0.25
351.00 0.19
352.00 0.15
353.00 0.11
354.00 0.07
355.00 0.04
356.00 0.02
357.00 0.01
358.00 0.00
359.00 0.00
VERTICAL 360
0.00 21.62
1.00 22.42
2.00 21.18
3.00 16.45
4.00 11.38
5.00 7.17
6.00 3.96
7.00 1.72
8.00 0.40
9.00 0.00
10.00 0.58
11.00 2.35
12.00 5.83
13.00 12.98
14.00 27.23
15.00 13.05
16.00 9.98
17.00 10.09
18.00 12.63
19.00 17.69
20.00 20.01
21.00 16.62
22.00 15.64
23.00 17.48
24.00 21.91
25.00 22.97
26.00 19.07
27.00 17.44
28.00 18.39
29.00 22.91
30.00 35.14
31.00 23.24
32.00 18.17
33.00 16.50
34.00 16.73
35.00 18.64
36.00 22.95
37.00 30.90
38.00 26.48
39.00 21.27
40.00 19.50
41.00 19.84
42.00 22.07
43.00 26.82
44.00 36.18
45.00 33.10
46.00 27.65
47.00 26.12
48.00 26.80
49.00 29.57
50.00 35.79
51.00 37.51
52.00 29.37
53.00 25.49
54.00 23.95
55.00 24.06
56.00 25.48
57.00 27.60
58.00 29.33
59.00 29.78
60.00 29.19
61.00 28.26
62.00 27.59
63.00 27.61
64.00 28.41
65.00 29.73
66.00 31.02
67.00 32.05
68.00 33.24
69.00 35.26
70.00 38.32
71.00 41.08
72.00 40.53
73.00 37.32
74.00 34.49
75.00 32.66
76.00 31.40
77.00 30.11
78.00 28.65
79.00 27.50
80.00 27.14
81.00 27.52
82.00 28.07
83.00 28.14
84.00 27.73
85.00 27.51
86.00 28.09
87.00 29.50
88.00 30.82
89.00 30.68
90.00 29.05
91.00 27.15
92.00 25.92
93.00 25.60
94.00 26.01
95.00 26.84
96.00 27.69
97.00 28.29
98.00 28.74
99.00 29.32
100.00 30.12
101.00 31.08
102.00 32.11
103.00 33.12
104.00 34.23
105.00 35.87
106.00 38.47
107.00 42.28
108.00 46.54
109.00 47.96
110.00 46.60
111.00 45.64
112.00 46.17
113.00 45.36
114.00 41.46
115.00 38.87
116.00 38.29
117.00 39.26
118.00 41.21
119.00 43.42
120.00 45.32
121.00 47.12
122.00 49.14
123.00 52.65
124.00 63.92
125.00 56.71
126.00 49.68
127.00 45.05
128.00 41.17
129.00 38.51
130.00 36.60
131.00 35.21
132.00 34.66
133.00 35.23
134.00 37.22
135.00 41.97
136.00 51.92
137.00 42.52
138.00 37.89
139.00 36.67
140.00 37.30
141.00 39.21
142.00 42.32
143.00 44.37
144.00 41.46
145.00 39.03
146.00 38.64
147.00 39.81
148.00 42.80
149.00 46.46
150.00 42.67
151.00 40.14
152.00 41.47
153.00 44.92
154.00 45.23
155.00 44.96
156.00 43.57
157.00 41.37
158.00 41.15
159.00 38.84
160.00 34.56
161.00 32.38
162.00 32.69
163.00 35.75
164.00 43.08
165.00 49.89
166.00 43.16
167.00 41.88
168.00 43.93
169.00 49.34
170.00 51.44
171.00 47.87
172.00 46.25
173.00 44.50
174.00 42.60
175.00 41.20
176.00 40.32
177.00 39.64
178.00 38.76
179.00 37.98
180.00 37.55
181.00 37.36
182.00 37.70
183.00 38.90
184.00 40.73
185.00 41.75
186.00 40.95
187.00 40.60
188.00 42.88
189.00 49.72
190.00 55.61
191.00 49.31
192.00 43.51
193.00 39.09
194.00 36.92
195.00 36.31
196.00 35.74
197.00 34.04
198.00 32.21
199.00 30.87
200.00 29.73
201.00 28.84
202.00 28.79
203.00 29.96
204.00 32.06
205.00 33.25
206.00 32.02
207.00 30.45
208.00 29.57
209.00 29.29
210.00 29.59
211.00 30.79
212.00 33.08
213.00 36.33
214.00 39.26
215.00 39.64
216.00 39.31
217.00 40.26
218.00 42.46
219.00 47.11
220.00 55.39
221.00 45.08
222.00 41.81
223.00 42.31
224.00 42.35
225.00 39.14
226.00 36.27
227.00 34.48
228.00 33.41
229.00 32.86
230.00 32.67
231.00 32.76
232.00 33.31
233.00 34.58
234.00 36.52
235.00 38.25
236.00 38.81
237.00 39.19
238.00 40.75
239.00 42.55
240.00 40.58
241.00 37.49
242.00 35.86
243.00 35.63
244.00 36.43
245.00 37.59
246.00 38.46
247.00 39.18
248.00 39.94
249.00 40.44
250.00 40.21
251.00 39.04
252.00 37.51
253.00 36.29
254.00 35.83
255.00 36.53
256.00 38.44
257.00 41.23
258.00 45.13
259.00 46.24
260.00 42.43
261.00 42.43
262.00 49.39
263.00 55.59
264.00 47.73
265.00 49.90
266.00 49.70
267.00 44.91
268.00 40.27
269.00 37.06
270.00 36.69
271.00 39.76
272.00 46.25
273.00 43.82
274.00 37.88
275.00 34.59
276.00 33.85
277.00 35.84
278.00 41.13
279.00 45.23
280.00 37.97
281.00 33.31
282.00 31.18
283.00 30.73
284.00 31.06
285.00 31.38
286.00 31.38
287.00 31.08
288.00 30.21
289.00 28.51
290.00 26.49
291.00 24.82
292.00 23.66
293.00 22.64
294.00 21.40
295.00 19.92
296.00 18.37
297.00 16.92
298.00 15.62
299.00 14.56
300.00 13.77
301.00 13.35
302.00 13.35
303.00 13.83
304.00 14.88
305.00 16.64
306.00 19.40
307.00 23.82
308.00 32.12
309.00 30.07
310.00 22.48
311.00 19.00
312.00 17.29
313.00 16.91
314.00 17.83
315.00 20.12
316.00 23.21
317.00 24.12
318.00 22.65
319.00 22.16
320.00 23.82
321.00 28.46
322.00 29.60
323.00 23.26
324.00 19.82
325.00 18.58
326.00 19.24
327.00 22.44
328.00 29.89
329.00 25.66
330.00 19.41
331.00 16.94
332.00 16.74
333.00 18.65
334.00 21.72
335.00 20.13
336.00 16.62
337.00 14.03
338.00 12.61
339.00 12.34
340.00 13.29
341.00 15.54
342.00 18.94
343.00 22.09
344.00 21.87
345.00 20.63
346.00 19.71
347.00 18.35
348.00 17.51
349.00 18.15
350.00 20.92
351.00 26.58
352.00 26.73
353.00 21.22
354.00 18.95
355.00 19.26
356.00 22.26
357.00 27.36
358.00 25.52
359.00 22.19
