NAME ATR4518R7_2535_X_CO_P45_06T_yyR
FREQUENCY 2535
GAIN 15.35 dBd
TILT	ELECTRICAL
COMMENT DATE 05.08.2013 +45 degrees polarized system Lever position 06T deg
HORIZONTAL 360
0.00 0.06
1.00 0.10
2.00 0.15
3.00 0.21
4.00 0.27
5.00 0.35
6.00 0.43
7.00 0.51
8.00 0.60
9.00 0.70
10.00 0.80
11.00 0.89
12.00 0.99
13.00 1.09
14.00 1.19
15.00 1.29
16.00 1.38
17.00 1.48
18.00 1.57
19.00 1.66
20.00 1.76
21.00 1.85
22.00 1.95
23.00 2.05
24.00 2.16
25.00 2.27
26.00 2.39
27.00 2.52
28.00 2.65
29.00 2.80
30.00 2.96
31.00 3.14
32.00 3.32
33.00 3.52
34.00 3.73
35.00 3.96
36.00 4.20
37.00 4.45
38.00 4.72
39.00 5.00
40.00 5.30
41.00 5.60
42.00 5.92
43.00 6.26
44.00 6.60
45.00 6.96
46.00 7.33
47.00 7.71
48.00 8.10
49.00 8.50
50.00 8.91
51.00 9.34
52.00 9.77
53.00 10.21
54.00 10.67
55.00 11.14
56.00 11.61
57.00 12.10
58.00 12.58
59.00 13.08
60.00 13.57
61.00 14.07
62.00 14.57
63.00 15.05
64.00 15.53
65.00 16.00
66.00 16.46
67.00 16.90
68.00 17.33
69.00 17.75
70.00 18.17
71.00 18.58
72.00 19.00
73.00 19.43
74.00 19.87
75.00 20.34
76.00 20.84
77.00 21.37
78.00 21.94
79.00 22.55
80.00 23.21
81.00 23.91
82.00 24.64
83.00 25.40
84.00 26.16
85.00 26.90
86.00 27.58
87.00 28.14
88.00 28.57
89.00 28.83
90.00 28.94
91.00 28.93
92.00 28.83
93.00 28.70
94.00 28.58
95.00 28.47
96.00 28.42
97.00 28.42
98.00 28.49
99.00 28.62
100.00 28.80
101.00 29.04
102.00 29.32
103.00 29.64
104.00 29.97
105.00 30.30
106.00 30.62
107.00 30.90
108.00 31.16
109.00 31.38
110.00 31.57
111.00 31.77
112.00 31.98
113.00 32.24
114.00 32.56
115.00 32.98
116.00 33.52
117.00 34.21
118.00 35.08
119.00 36.18
120.00 37.54
121.00 39.20
122.00 41.11
123.00 42.94
124.00 43.70
125.00 42.71
126.00 40.84
127.00 38.98
128.00 37.41
129.00 36.15
130.00 35.17
131.00 34.44
132.00 33.92
133.00 33.61
134.00 33.48
135.00 33.53
136.00 33.77
137.00 34.20
138.00 34.83
139.00 35.69
140.00 36.81
141.00 38.27
142.00 40.16
143.00 42.66
144.00 46.10
145.00 50.69
146.00 52.46
147.00 48.41
148.00 44.91
149.00 42.51
150.00 40.82
151.00 39.62
152.00 38.78
153.00 38.20
154.00 37.82
155.00 37.60
156.00 37.50
157.00 37.46
158.00 37.44
159.00 37.39
160.00 37.29
161.00 37.10
162.00 36.83
163.00 36.51
164.00 36.18
165.00 35.85
166.00 35.56
167.00 35.36
168.00 35.25
169.00 35.25
170.00 35.39
171.00 35.66
172.00 36.10
173.00 36.72
174.00 37.55
175.00 38.63
176.00 40.03
177.00 41.83
178.00 44.19
179.00 47.23
180.00 50.45
181.00 50.64
182.00 47.67
183.00 44.81
184.00 42.64
185.00 41.03
186.00 39.84
187.00 38.97
188.00 38.35
189.00 37.96
190.00 37.76
191.00 37.73
192.00 37.85
193.00 38.10
194.00 38.46
195.00 38.90
196.00 39.37
197.00 39.80
198.00 40.11
199.00 40.22
200.00 40.09
201.00 39.74
202.00 39.27
203.00 38.72
204.00 38.16
205.00 37.64
206.00 37.20
207.00 36.84
208.00 36.57
209.00 36.39
210.00 36.30
211.00 36.30
212.00 36.37
213.00 36.53
214.00 36.74
215.00 37.01
216.00 37.32
217.00 37.66
218.00 38.01
219.00 38.34
220.00 38.64
221.00 38.88
222.00 39.05
223.00 39.15
224.00 39.17
225.00 39.14
226.00 39.07
227.00 38.98
228.00 38.89
229.00 38.81
230.00 38.75
231.00 38.73
232.00 38.74
233.00 38.80
234.00 38.90
235.00 39.05
236.00 39.24
237.00 39.46
238.00 39.72
239.00 39.99
240.00 40.25
241.00 40.50
242.00 40.70
243.00 40.83
244.00 40.87
245.00 40.82
246.00 40.68
247.00 40.47
248.00 40.22
249.00 39.95
250.00 39.71
251.00 39.51
252.00 39.38
253.00 39.34
254.00 39.42
255.00 39.63
256.00 40.01
257.00 40.60
258.00 41.48
259.00 42.72
260.00 44.52
261.00 47.29
262.00 52.02
263.00 59.41
264.00 51.71
265.00 45.71
266.00 41.82
267.00 38.93
268.00 36.62
269.00 34.70
270.00 33.03
271.00 31.57
272.00 30.27
273.00 29.09
274.00 28.02
275.00 27.03
276.00 26.12
277.00 25.27
278.00 24.48
279.00 23.73
280.00 23.01
281.00 22.33
282.00 21.68
283.00 21.06
284.00 20.45
285.00 19.85
286.00 19.27
287.00 18.70
288.00 18.14
289.00 17.59
290.00 17.04
291.00 16.49
292.00 15.95
293.00 15.42
294.00 14.89
295.00 14.37
296.00 13.85
297.00 13.34
298.00 12.83
299.00 12.33
300.00 11.84
301.00 11.35
302.00 10.88
303.00 10.41
304.00 9.95
305.00 9.50
306.00 9.07
307.00 8.64
308.00 8.22
309.00 7.82
310.00 7.42
311.00 7.04
312.00 6.67
313.00 6.31
314.00 5.96
315.00 5.63
316.00 5.31
317.00 5.00
318.00 4.70
319.00 4.41
320.00 4.14
321.00 3.88
322.00 3.63
323.00 3.40
324.00 3.18
325.00 2.97
326.00 2.77
327.00 2.58
328.00 2.40
329.00 2.24
330.00 2.08
331.00 1.94
332.00 1.80
333.00 1.68
334.00 1.55
335.00 1.44
336.00 1.33
337.00 1.23
338.00 1.13
339.00 1.04
340.00 0.95
341.00 0.86
342.00 0.78
343.00 0.70
344.00 0.62
345.00 0.54
346.00 0.46
347.00 0.39
348.00 0.32
349.00 0.26
350.00 0.20
351.00 0.15
352.00 0.11
353.00 0.07
354.00 0.04
355.00 0.02
356.00 0.01
357.00 0.00
358.00 0.01
359.00 0.03
VERTICAL 360
0.00 20.26
1.00 15.51
2.00 9.31
3.00 4.90
4.00 2.05
5.00 0.46
6.00 0.00
7.00 0.73
8.00 2.90
9.00 7.34
10.00 17.65
11.00 18.84
12.00 11.97
13.00 11.25
14.00 13.91
15.00 19.46
16.00 17.72
17.00 13.44
18.00 12.23
19.00 13.51
20.00 17.83
21.00 29.68
22.00 24.27
23.00 18.95
24.00 19.07
25.00 24.35
26.00 35.57
27.00 21.71
28.00 18.42
29.00 18.44
30.00 20.51
31.00 23.36
32.00 24.95
33.00 25.69
34.00 25.80
35.00 23.56
36.00 20.81
37.00 19.01
38.00 18.15
39.00 18.15
40.00 19.38
41.00 22.87
42.00 29.84
43.00 26.71
44.00 22.15
45.00 21.33
46.00 22.91
47.00 26.44
48.00 32.41
49.00 39.45
50.00 30.84
51.00 26.33
52.00 24.95
53.00 25.72
54.00 27.96
55.00 29.68
56.00 28.79
57.00 27.11
58.00 25.72
59.00 24.70
60.00 24.54
61.00 25.83
62.00 29.05
63.00 34.85
64.00 40.64
65.00 37.04
66.00 33.94
67.00 32.22
68.00 31.13
69.00 30.59
70.00 30.51
71.00 30.60
72.00 30.71
73.00 30.92
74.00 31.49
75.00 32.70
76.00 34.22
77.00 35.37
78.00 37.14
79.00 38.91
80.00 34.86
81.00 31.40
82.00 30.46
83.00 31.06
84.00 31.74
85.00 31.03
86.00 29.25
87.00 28.53
88.00 30.12
89.00 34.37
90.00 38.28
91.00 35.17
92.00 30.51
93.00 28.32
94.00 29.19
95.00 32.95
96.00 35.93
97.00 34.45
98.00 31.89
99.00 30.26
100.00 31.60
101.00 37.43
102.00 42.55
103.00 41.48
104.00 50.24
105.00 43.09
106.00 39.92
107.00 43.13
108.00 50.76
109.00 60.95
110.00 45.07
111.00 40.06
112.00 38.70
113.00 38.41
114.00 38.95
115.00 40.61
116.00 40.72
117.00 40.10
118.00 41.70
119.00 43.86
120.00 42.06
121.00 40.69
122.00 42.53
123.00 42.87
124.00 38.40
125.00 36.76
126.00 36.91
127.00 36.33
128.00 36.14
129.00 37.64
130.00 38.95
131.00 38.92
132.00 38.16
133.00 36.98
134.00 37.10
135.00 37.17
136.00 35.68
137.00 35.50
138.00 37.43
139.00 40.35
140.00 42.71
141.00 39.08
142.00 35.44
143.00 34.64
144.00 34.96
145.00 34.55
146.00 34.39
147.00 35.21
148.00 36.15
149.00 36.17
150.00 35.70
151.00 36.00
152.00 37.27
153.00 37.92
154.00 37.21
155.00 36.87
156.00 37.83
157.00 39.71
158.00 40.47
159.00 40.78
160.00 43.37
161.00 48.07
162.00 51.00
163.00 57.63
164.00 57.53
165.00 51.48
166.00 49.48
167.00 47.08
168.00 45.80
169.00 44.94
170.00 43.56
171.00 43.38
172.00 46.02
173.00 48.23
174.00 41.83
175.00 37.06
176.00 34.74
177.00 33.74
178.00 34.11
179.00 35.58
180.00 38.21
181.00 37.81
182.00 35.17
183.00 34.58
184.00 36.14
185.00 39.26
186.00 42.14
187.00 40.82
188.00 37.94
189.00 36.48
190.00 36.67
191.00 37.72
192.00 37.22
193.00 35.63
194.00 35.45
195.00 36.94
196.00 38.45
197.00 39.29
198.00 42.74
199.00 48.79
200.00 41.55
201.00 38.15
202.00 37.17
203.00 36.88
204.00 37.52
205.00 39.57
206.00 42.41
207.00 43.53
208.00 42.40
209.00 43.78
210.00 54.71
211.00 48.71
212.00 42.72
213.00 41.95
214.00 43.63
215.00 50.16
216.00 53.15
217.00 45.45
218.00 44.44
219.00 44.53
220.00 44.41
221.00 43.56
222.00 41.33
223.00 40.72
224.00 41.74
225.00 41.18
226.00 37.83
227.00 34.63
228.00 33.07
229.00 33.12
230.00 33.81
231.00 34.15
232.00 34.25
233.00 34.35
234.00 34.43
235.00 34.21
236.00 33.48
237.00 32.64
238.00 32.28
239.00 32.88
240.00 34.51
241.00 36.53
242.00 38.58
243.00 41.60
244.00 45.40
245.00 47.47
246.00 50.15
247.00 45.63
248.00 39.22
249.00 36.78
250.00 36.90
251.00 37.48
252.00 36.48
253.00 34.38
254.00 32.53
255.00 32.31
256.00 34.55
257.00 38.90
258.00 41.81
259.00 44.20
260.00 49.22
261.00 51.46
262.00 47.61
263.00 39.73
264.00 35.95
265.00 35.11
266.00 36.51
267.00 39.34
268.00 39.67
269.00 36.76
270.00 34.09
271.00 32.22
272.00 31.10
273.00 30.57
274.00 31.03
275.00 33.26
276.00 36.95
277.00 38.33
278.00 37.52
279.00 36.34
280.00 36.39
281.00 40.21
282.00 43.38
283.00 39.66
284.00 41.41
285.00 46.18
286.00 43.29
287.00 44.85
288.00 51.91
289.00 45.97
290.00 43.30
291.00 41.78
292.00 36.65
293.00 31.18
294.00 26.95
295.00 23.70
296.00 21.17
297.00 19.14
298.00 17.33
299.00 15.62
300.00 14.09
301.00 12.85
302.00 11.92
303.00 11.26
304.00 10.92
305.00 11.08
306.00 11.95
307.00 13.79
308.00 17.05
309.00 23.26
310.00 33.94
311.00 23.27
312.00 18.81
313.00 17.32
314.00 17.70
315.00 19.89
316.00 24.40
317.00 28.24
318.00 23.55
319.00 20.23
320.00 19.39
321.00 20.90
322.00 25.96
323.00 35.18
324.00 25.33
325.00 21.14
326.00 20.29
327.00 22.20
328.00 27.39
329.00 26.29
330.00 20.54
331.00 18.14
332.00 18.29
333.00 21.68
334.00 32.90
335.00 23.61
336.00 17.26
337.00 14.61
338.00 14.09
339.00 15.48
340.00 18.98
341.00 24.08
342.00 24.44
343.00 22.55
344.00 24.15
345.00 29.49
346.00 28.53
347.00 23.26
348.00 21.34
349.00 21.88
350.00 24.75
351.00 29.75
352.00 32.19
353.00 30.64
354.00 28.60
355.00 25.41
356.00 22.63
357.00 20.84
358.00 19.87
359.00 19.96
