NAME ATR4518R7_0832_X_CO_P45_08T
FREQUENCY 0832
GAIN 14.43 dBd
TILT	ELECTRICAL
COMMENT DATE 05.08.2013 +45 degrees polarized system Lever position 08T deg
HORIZONTAL 360
0.00 0.00
1.00 0.00
2.00 0.01
3.00 0.03
4.00 0.05
5.00 0.07
6.00 0.10
7.00 0.14
8.00 0.18
9.00 0.23
10.00 0.28
11.00 0.34
12.00 0.40
13.00 0.47
14.00 0.55
15.00 0.63
16.00 0.71
17.00 0.80
18.00 0.90
19.00 1.00
20.00 1.11
21.00 1.22
22.00 1.34
23.00 1.46
24.00 1.59
25.00 1.72
26.00 1.86
27.00 2.00
28.00 2.15
29.00 2.30
30.00 2.46
31.00 2.63
32.00 2.79
33.00 2.97
34.00 3.15
35.00 3.33
36.00 3.52
37.00 3.71
38.00 3.91
39.00 4.12
40.00 4.33
41.00 4.54
42.00 4.76
43.00 4.98
44.00 5.21
45.00 5.45
46.00 5.68
47.00 5.93
48.00 6.18
49.00 6.43
50.00 6.69
51.00 6.95
52.00 7.21
53.00 7.48
54.00 7.76
55.00 8.04
56.00 8.32
57.00 8.62
58.00 8.91
59.00 9.21
60.00 9.51
61.00 9.81
62.00 10.12
63.00 10.44
64.00 10.75
65.00 11.08
66.00 11.40
67.00 11.73
68.00 12.07
69.00 12.41
70.00 12.75
71.00 13.09
72.00 13.44
73.00 13.80
74.00 14.15
75.00 14.51
76.00 14.88
77.00 15.24
78.00 15.62
79.00 15.99
80.00 16.37
81.00 16.75
82.00 17.14
83.00 17.52
84.00 17.92
85.00 18.31
86.00 18.71
87.00 19.11
88.00 19.51
89.00 19.92
90.00 20.33
91.00 20.74
92.00 21.15
93.00 21.56
94.00 21.97
95.00 22.38
96.00 22.79
97.00 23.19
98.00 23.59
99.00 23.98
100.00 24.36
101.00 24.73
102.00 25.09
103.00 25.44
104.00 25.76
105.00 26.07
106.00 26.35
107.00 26.61
108.00 26.84
109.00 27.05
110.00 27.23
111.00 27.38
112.00 27.51
113.00 27.61
114.00 27.69
115.00 27.75
116.00 27.80
117.00 27.83
118.00 27.84
119.00 27.85
120.00 27.85
121.00 27.84
122.00 27.83
123.00 27.83
124.00 27.82
125.00 27.81
126.00 27.81
127.00 27.82
128.00 27.82
129.00 27.84
130.00 27.86
131.00 27.89
132.00 27.93
133.00 27.97
134.00 28.02
135.00 28.08
136.00 28.15
137.00 28.22
138.00 28.30
139.00 28.38
140.00 28.48
141.00 28.57
142.00 28.67
143.00 28.78
144.00 28.89
145.00 29.00
146.00 29.11
147.00 29.22
148.00 29.34
149.00 29.45
150.00 29.56
151.00 29.67
152.00 29.78
153.00 29.88
154.00 29.97
155.00 30.07
156.00 30.16
157.00 30.24
158.00 30.32
159.00 30.39
160.00 30.47
161.00 30.53
162.00 30.60
163.00 30.66
164.00 30.72
165.00 30.77
166.00 30.83
167.00 30.89
168.00 30.94
169.00 31.00
170.00 31.06
171.00 31.12
172.00 31.19
173.00 31.26
174.00 31.33
175.00 31.41
176.00 31.49
177.00 31.58
178.00 31.67
179.00 31.76
180.00 31.86
181.00 31.97
182.00 32.07
183.00 32.19
184.00 32.30
185.00 32.42
186.00 32.54
187.00 32.66
188.00 32.78
189.00 32.90
190.00 33.02
191.00 33.14
192.00 33.25
193.00 33.36
194.00 33.47
195.00 33.58
196.00 33.68
197.00 33.78
198.00 33.88
199.00 33.97
200.00 34.05
201.00 34.14
202.00 34.21
203.00 34.29
204.00 34.36
205.00 34.44
206.00 34.51
207.00 34.58
208.00 34.65
209.00 34.72
210.00 34.79
211.00 34.86
212.00 34.94
213.00 35.01
214.00 35.08
215.00 35.15
216.00 35.22
217.00 35.29
218.00 35.36
219.00 35.41
220.00 35.46
221.00 35.50
222.00 35.52
223.00 35.53
224.00 35.52
225.00 35.48
226.00 35.41
227.00 35.31
228.00 35.18
229.00 35.02
230.00 34.82
231.00 34.58
232.00 34.31
233.00 34.00
234.00 33.67
235.00 33.31
236.00 32.92
237.00 32.51
238.00 32.09
239.00 31.65
240.00 31.20
241.00 30.74
242.00 30.28
243.00 29.81
244.00 29.34
245.00 28.88
246.00 28.41
247.00 27.95
248.00 27.49
249.00 27.03
250.00 26.58
251.00 26.13
252.00 25.69
253.00 25.26
254.00 24.83
255.00 24.41
256.00 23.99
257.00 23.58
258.00 23.18
259.00 22.79
260.00 22.40
261.00 22.02
262.00 21.64
263.00 21.28
264.00 20.91
265.00 20.56
266.00 20.20
267.00 19.86
268.00 19.52
269.00 19.18
270.00 18.85
271.00 18.53
272.00 18.21
273.00 17.89
274.00 17.57
275.00 17.26
276.00 16.95
277.00 16.65
278.00 16.34
279.00 16.04
280.00 15.74
281.00 15.44
282.00 15.14
283.00 14.85
284.00 14.55
285.00 14.25
286.00 13.95
287.00 13.66
288.00 13.36
289.00 13.07
290.00 12.77
291.00 12.47
292.00 12.18
293.00 11.88
294.00 11.58
295.00 11.28
296.00 10.99
297.00 10.70
298.00 10.40
299.00 10.11
300.00 9.81
301.00 9.52
302.00 9.23
303.00 8.94
304.00 8.66
305.00 8.37
306.00 8.09
307.00 7.81
308.00 7.53
309.00 7.26
310.00 6.99
311.00 6.73
312.00 6.46
313.00 6.20
314.00 5.95
315.00 5.70
316.00 5.45
317.00 5.21
318.00 4.98
319.00 4.74
320.00 4.52
321.00 4.29
322.00 4.08
323.00 3.87
324.00 3.66
325.00 3.46
326.00 3.26
327.00 3.07
328.00 2.89
329.00 2.71
330.00 2.54
331.00 2.37
332.00 2.21
333.00 2.05
334.00 1.90
335.00 1.76
336.00 1.62
337.00 1.48
338.00 1.36
339.00 1.23
340.00 1.12
341.00 1.01
342.00 0.90
343.00 0.80
344.00 0.71
345.00 0.62
346.00 0.54
347.00 0.47
348.00 0.40
349.00 0.33
350.00 0.27
351.00 0.22
352.00 0.17
353.00 0.13
354.00 0.10
355.00 0.07
356.00 0.04
357.00 0.02
358.00 0.01
359.00 0.00
VERTICAL 360
0.00 12.55
1.00 8.91
2.00 6.19
3.00 4.11
4.00 2.53
5.00 1.37
6.00 0.59
7.00 0.13
8.00 0.00
9.00 0.18
10.00 0.67
11.00 1.49
12.00 2.67
13.00 4.25
14.00 6.32
15.00 9.00
16.00 12.54
17.00 17.51
18.00 25.93
19.00 40.54
20.00 26.71
21.00 24.23
22.00 24.66
23.00 27.60
24.00 35.82
25.00 37.40
26.00 27.71
27.00 23.90
28.00 22.07
29.00 21.42
30.00 21.64
31.00 22.65
32.00 24.48
33.00 27.27
34.00 31.25
35.00 34.95
36.00 33.21
37.00 30.20
38.00 28.47
39.00 27.97
40.00 28.65
41.00 30.78
42.00 35.08
43.00 39.10
44.00 33.35
45.00 28.92
46.00 26.28
47.00 24.66
48.00 23.64
49.00 23.01
50.00 22.62
51.00 22.47
52.00 22.59
53.00 23.04
54.00 23.93
55.00 25.35
56.00 27.40
57.00 30.20
58.00 33.89
59.00 38.55
60.00 43.60
61.00 45.39
62.00 42.76
63.00 39.46
64.00 36.56
65.00 34.31
66.00 32.79
67.00 32.07
68.00 32.19
69.00 33.19
70.00 35.01
71.00 37.22
72.00 38.58
73.00 38.23
74.00 37.19
75.00 36.44
76.00 36.36
77.00 37.24
78.00 39.11
79.00 40.32
80.00 38.10
81.00 35.07
82.00 32.96
83.00 31.77
84.00 31.22
85.00 31.05
86.00 30.95
87.00 30.70
88.00 30.21
89.00 29.63
90.00 29.16
91.00 28.95
92.00 29.06
93.00 29.45
94.00 30.01
95.00 30.63
96.00 31.17
97.00 31.60
98.00 31.94
99.00 32.24
100.00 32.53
101.00 32.80
102.00 33.04
103.00 33.33
104.00 33.81
105.00 34.59
106.00 35.69
107.00 36.97
108.00 38.00
109.00 38.14
110.00 37.31
111.00 36.17
112.00 35.29
113.00 34.94
114.00 35.16
115.00 35.95
116.00 37.28
117.00 39.11
118.00 41.19
119.00 42.74
120.00 42.82
121.00 41.86
122.00 40.77
123.00 39.60
124.00 38.11
125.00 36.33
126.00 34.59
127.00 33.12
128.00 32.00
129.00 31.22
130.00 30.75
131.00 30.53
132.00 30.52
133.00 30.68
134.00 30.96
135.00 31.36
136.00 31.87
137.00 32.44
138.00 32.91
139.00 33.03
140.00 32.59
141.00 31.70
142.00 30.69
143.00 29.80
144.00 29.13
145.00 28.73
146.00 28.54
147.00 28.53
148.00 28.64
149.00 28.84
150.00 29.14
151.00 29.55
152.00 30.11
153.00 30.88
154.00 31.90
155.00 33.23
156.00 34.96
157.00 37.10
158.00 39.48
159.00 41.29
160.00 41.68
161.00 41.39
162.00 41.40
163.00 41.53
164.00 40.91
165.00 38.88
166.00 36.65
167.00 34.83
168.00 33.51
169.00 32.61
170.00 32.06
171.00 31.80
172.00 31.86
173.00 31.85
174.00 32.26
175.00 33.15
176.00 34.66
177.00 36.88
178.00 39.96
179.00 43.65
180.00 45.95
181.00 45.67
182.00 45.33
183.00 45.38
184.00 44.22
185.00 41.41
186.00 38.54
187.00 36.31
188.00 34.76
189.00 33.81
190.00 33.35
191.00 33.32
192.00 33.63
193.00 34.24
194.00 35.07
195.00 36.04
196.00 37.07
197.00 38.10
198.00 39.07
199.00 40.04
200.00 41.10
201.00 42.41
202.00 43.95
203.00 45.21
204.00 45.19
205.00 43.85
206.00 42.07
207.00 40.19
208.00 38.23
209.00 36.29
210.00 34.55
211.00 33.14
212.00 32.15
213.00 31.53
214.00 31.27
215.00 31.30
216.00 31.57
217.00 32.01
218.00 32.58
219.00 33.22
220.00 33.92
221.00 34.74
222.00 35.81
223.00 37.35
224.00 39.66
225.00 42.58
226.00 43.07
227.00 39.85
228.00 36.80
229.00 34.72
230.00 33.40
231.00 32.60
232.00 32.09
233.00 31.70
234.00 31.28
235.00 30.78
236.00 30.25
237.00 29.83
238.00 29.63
239.00 29.73
240.00 30.10
241.00 30.68
242.00 31.27
243.00 31.59
244.00 31.43
245.00 30.80
246.00 29.99
247.00 29.28
248.00 28.84
249.00 28.71
250.00 28.85
251.00 29.15
252.00 29.48
253.00 29.72
254.00 29.85
255.00 29.90
256.00 29.97
257.00 30.16
258.00 30.51
259.00 30.99
260.00 31.50
261.00 31.93
262.00 32.14
263.00 32.14
264.00 32.03
265.00 32.00
266.00 32.22
267.00 32.81
268.00 33.80
269.00 35.10
270.00 36.51
271.00 37.74
272.00 38.55
273.00 38.94
274.00 39.13
275.00 39.32
276.00 39.37
277.00 38.82
278.00 37.48
279.00 35.89
280.00 34.56
281.00 33.69
282.00 33.26
283.00 33.19
284.00 33.37
285.00 33.65
286.00 33.88
287.00 33.93
288.00 33.77
289.00 33.57
290.00 33.59
291.00 34.04
292.00 35.10
293.00 36.95
294.00 39.93
295.00 44.96
296.00 57.13
297.00 50.57
298.00 43.44
299.00 39.63
300.00 36.93
301.00 34.81
302.00 33.17
303.00 32.04
304.00 31.49
305.00 31.64
306.00 32.69
307.00 34.96
308.00 38.62
309.00 38.79
310.00 33.83
311.00 29.89
312.00 27.13
313.00 25.14
314.00 23.67
315.00 22.55
316.00 21.73
317.00 21.17
318.00 20.88
319.00 20.92
320.00 21.37
321.00 22.35
322.00 24.04
323.00 26.82
324.00 31.59
325.00 38.60
326.00 32.98
327.00 28.02
328.00 25.33
329.00 23.91
330.00 23.39
331.00 23.64
332.00 24.65
333.00 26.60
334.00 29.93
335.00 35.94
336.00 40.69
337.00 33.39
338.00 29.51
339.00 27.64
340.00 27.04
341.00 27.40
342.00 28.34
343.00 28.89
344.00 27.87
345.00 25.97
346.00 24.42
347.00 23.67
348.00 23.92
349.00 25.44
350.00 29.05
351.00 39.08
352.00 36.06
353.00 27.85
354.00 24.73
355.00 24.05
356.00 26.09
357.00 36.27
358.00 26.71
359.00 17.73
