NAME ATR4518R7_1750_X_CO_M45_06T_yL
FREQUENCY 1750
GAIN 14.69 dBd
TILT	ELECTRICAL
COMMENT DATE 05.08.2013 -45 degrees polarized system Lever position 06T deg
HORIZONTAL 360
0.00 0.02
1.00 0.01
2.00 0.00
3.00 0.00
4.00 0.00
5.00 0.01
6.00 0.02
7.00 0.04
8.00 0.06
9.00 0.09
10.00 0.13
11.00 0.16
12.00 0.21
13.00 0.26
14.00 0.31
15.00 0.37
16.00 0.44
17.00 0.51
18.00 0.58
19.00 0.67
20.00 0.75
21.00 0.85
22.00 0.94
23.00 1.05
24.00 1.15
25.00 1.27
26.00 1.38
27.00 1.50
28.00 1.63
29.00 1.76
30.00 1.90
31.00 2.03
32.00 2.18
33.00 2.32
34.00 2.47
35.00 2.63
36.00 2.79
37.00 2.95
38.00 3.12
39.00 3.29
40.00 3.46
41.00 3.64
42.00 3.82
43.00 4.00
44.00 4.19
45.00 4.38
46.00 4.58
47.00 4.77
48.00 4.98
49.00 5.18
50.00 5.39
51.00 5.60
52.00 5.82
53.00 6.03
54.00 6.26
55.00 6.48
56.00 6.72
57.00 6.95
58.00 7.20
59.00 7.45
60.00 7.70
61.00 7.96
62.00 8.23
63.00 8.50
64.00 8.78
65.00 9.07
66.00 9.37
67.00 9.68
68.00 10.00
69.00 10.32
70.00 10.66
71.00 11.00
72.00 11.35
73.00 11.72
74.00 12.08
75.00 12.46
76.00 12.84
77.00 13.23
78.00 13.62
79.00 14.01
80.00 14.40
81.00 14.79
82.00 15.17
83.00 15.55
84.00 15.92
85.00 16.28
86.00 16.62
87.00 16.96
88.00 17.28
89.00 17.59
90.00 17.89
91.00 18.17
92.00 18.44
93.00 18.71
94.00 18.97
95.00 19.23
96.00 19.48
97.00 19.74
98.00 20.00
99.00 20.26
100.00 20.53
101.00 20.80
102.00 21.07
103.00 21.35
104.00 21.63
105.00 21.90
106.00 22.16
107.00 22.41
108.00 22.65
109.00 22.86
110.00 23.06
111.00 23.23
112.00 23.37
113.00 23.50
114.00 23.60
115.00 23.70
116.00 23.78
117.00 23.87
118.00 23.95
119.00 24.04
120.00 24.14
121.00 24.26
122.00 24.38
123.00 24.51
124.00 24.64
125.00 24.77
126.00 24.89
127.00 24.99
128.00 25.06
129.00 25.10
130.00 25.10
131.00 25.06
132.00 24.98
133.00 24.88
134.00 24.76
135.00 24.63
136.00 24.50
137.00 24.40
138.00 24.31
139.00 24.26
140.00 24.25
141.00 24.29
142.00 24.37
143.00 24.51
144.00 24.70
145.00 24.94
146.00 25.23
147.00 25.55
148.00 25.90
149.00 26.25
150.00 26.58
151.00 26.87
152.00 27.08
153.00 27.19
154.00 27.19
155.00 27.09
156.00 26.92
157.00 26.68
158.00 26.42
159.00 26.17
160.00 25.95
161.00 25.77
162.00 25.65
163.00 25.61
164.00 25.64
165.00 25.76
166.00 25.96
167.00 26.26
168.00 26.65
169.00 27.12
170.00 27.67
171.00 28.28
172.00 28.90
173.00 29.47
174.00 29.91
175.00 30.11
176.00 30.03
177.00 29.68
178.00 29.12
179.00 28.46
180.00 27.78
181.00 27.13
182.00 26.56
183.00 26.06
184.00 25.67
185.00 25.37
186.00 25.17
187.00 25.08
188.00 25.09
189.00 25.21
190.00 25.45
191.00 25.80
192.00 26.29
193.00 26.92
194.00 27.71
195.00 28.69
196.00 29.88
197.00 31.34
198.00 33.11
199.00 35.20
200.00 37.34
201.00 38.56
202.00 37.77
203.00 35.79
204.00 33.76
205.00 32.03
206.00 30.61
207.00 29.46
208.00 28.54
209.00 27.82
210.00 27.26
211.00 26.86
212.00 26.58
213.00 26.44
214.00 26.43
215.00 26.53
216.00 26.77
217.00 27.15
218.00 27.67
219.00 28.36
220.00 29.25
221.00 30.38
222.00 31.83
223.00 33.67
224.00 36.05
225.00 38.91
226.00 40.88
227.00 39.33
228.00 36.20
229.00 33.44
230.00 31.22
231.00 29.44
232.00 27.97
233.00 26.74
234.00 25.72
235.00 24.85
236.00 24.11
237.00 23.49
238.00 22.97
239.00 22.53
240.00 22.18
241.00 21.91
242.00 21.70
243.00 21.55
244.00 21.45
245.00 21.41
246.00 21.40
247.00 21.43
248.00 21.49
249.00 21.56
250.00 21.62
251.00 21.68
252.00 21.72
253.00 21.71
254.00 21.65
255.00 21.54
256.00 21.37
257.00 21.14
258.00 20.86
259.00 20.54
260.00 20.20
261.00 19.83
262.00 19.45
263.00 19.07
264.00 18.70
265.00 18.34
266.00 17.99
267.00 17.65
268.00 17.32
269.00 17.01
270.00 16.71
271.00 16.41
272.00 16.13
273.00 15.84
274.00 15.56
275.00 15.28
276.00 15.00
277.00 14.71
278.00 14.41
279.00 14.10
280.00 13.79
281.00 13.47
282.00 13.15
283.00 12.81
284.00 12.48
285.00 12.14
286.00 11.80
287.00 11.46
288.00 11.12
289.00 10.78
290.00 10.45
291.00 10.13
292.00 9.81
293.00 9.50
294.00 9.20
295.00 8.91
296.00 8.63
297.00 8.35
298.00 8.09
299.00 7.83
300.00 7.59
301.00 7.35
302.00 7.12
303.00 6.90
304.00 6.68
305.00 6.47
306.00 6.27
307.00 6.08
308.00 5.89
309.00 5.70
310.00 5.53
311.00 5.35
312.00 5.18
313.00 5.02
314.00 4.86
315.00 4.71
316.00 4.55
317.00 4.41
318.00 4.26
319.00 4.12
320.00 3.99
321.00 3.85
322.00 3.72
323.00 3.59
324.00 3.45
325.00 3.32
326.00 3.19
327.00 3.06
328.00 2.93
329.00 2.80
330.00 2.66
331.00 2.53
332.00 2.39
333.00 2.26
334.00 2.12
335.00 1.98
336.00 1.85
337.00 1.71
338.00 1.58
339.00 1.45
340.00 1.33
341.00 1.21
342.00 1.09
343.00 0.98
344.00 0.87
345.00 0.77
346.00 0.68
347.00 0.59
348.00 0.51
349.00 0.44
350.00 0.37
351.00 0.31
352.00 0.26
353.00 0.21
354.00 0.17
355.00 0.13
356.00 0.10
357.00 0.07
358.00 0.05
359.00 0.03
VERTICAL 360
0.00 13.73
1.00 8.90
2.00 5.43
3.00 2.97
4.00 1.31
5.00 0.34
6.00 0.00
7.00 0.26
8.00 1.17
9.00 2.82
10.00 5.47
11.00 9.71
12.00 17.20
13.00 20.95
14.00 14.48
15.00 12.08
16.00 11.82
17.00 13.16
18.00 16.25
19.00 22.21
20.00 27.66
21.00 20.57
22.00 17.13
23.00 16.02
24.00 16.61
25.00 18.95
26.00 23.66
27.00 27.98
28.00 23.22
29.00 19.93
30.00 18.67
31.00 18.88
32.00 20.49
33.00 24.05
34.00 32.49
35.00 32.11
36.00 23.63
37.00 19.88
38.00 18.01
39.00 17.34
40.00 17.67
41.00 18.93
42.00 21.10
43.00 24.08
44.00 26.97
45.00 27.22
46.00 25.20
47.00 23.10
48.00 21.47
49.00 20.27
50.00 19.43
51.00 18.94
52.00 18.76
53.00 18.87
54.00 19.19
55.00 19.61
56.00 20.04
57.00 20.52
58.00 21.22
59.00 22.33
60.00 23.97
61.00 26.10
62.00 28.50
63.00 30.79
64.00 32.73
65.00 34.40
66.00 35.61
67.00 35.52
68.00 34.37
69.00 33.27
70.00 32.62
71.00 32.34
72.00 32.14
73.00 31.85
74.00 31.46
75.00 31.14
76.00 31.07
77.00 31.36
78.00 32.05
79.00 33.19
80.00 34.84
81.00 37.09
82.00 40.04
83.00 44.10
84.00 50.00
85.00 48.50
86.00 42.45
87.00 39.12
88.00 38.00
89.00 38.98
90.00 40.90
91.00 38.87
92.00 35.73
93.00 34.63
94.00 35.67
95.00 38.00
96.00 38.02
97.00 35.95
98.00 34.69
99.00 34.12
100.00 33.69
101.00 33.62
102.00 34.36
103.00 35.81
104.00 36.95
105.00 37.07
106.00 36.95
107.00 37.19
108.00 37.93
109.00 39.34
110.00 41.64
111.00 44.64
112.00 47.67
113.00 50.12
114.00 49.99
115.00 47.30
116.00 44.97
117.00 43.30
118.00 42.07
119.00 41.49
120.00 41.79
121.00 43.08
122.00 45.49
123.00 48.66
124.00 48.68
125.00 46.40
126.00 45.97
127.00 46.70
128.00 44.18
129.00 40.68
130.00 38.90
131.00 38.66
132.00 38.98
133.00 38.71
134.00 38.19
135.00 38.45
136.00 39.84
137.00 42.12
138.00 44.76
139.00 47.46
140.00 48.38
141.00 45.77
142.00 43.29
143.00 42.11
144.00 41.90
145.00 42.18
146.00 42.53
147.00 42.97
148.00 44.12
149.00 47.20
150.00 56.25
151.00 51.91
152.00 44.38
153.00 40.83
154.00 38.51
155.00 36.47
156.00 34.65
157.00 33.26
158.00 32.39
159.00 31.94
160.00 31.83
161.00 32.08
162.00 32.87
163.00 34.20
164.00 35.60
165.00 36.32
166.00 36.59
167.00 37.08
168.00 37.12
169.00 35.42
170.00 32.82
171.00 30.44
172.00 28.49
173.00 27.01
174.00 26.06
175.00 25.82
176.00 26.25
177.00 27.38
178.00 29.19
179.00 31.65
180.00 34.70
181.00 37.83
182.00 38.59
183.00 36.79
184.00 35.40
185.00 35.14
186.00 35.23
187.00 34.27
188.00 32.44
189.00 30.99
190.00 30.40
191.00 30.71
192.00 31.84
193.00 33.47
194.00 34.57
195.00 33.95
196.00 32.48
197.00 31.41
198.00 31.22
199.00 32.11
200.00 34.26
201.00 37.26
202.00 37.82
203.00 35.50
204.00 33.92
205.00 33.76
206.00 35.02
207.00 37.67
208.00 41.36
209.00 43.61
210.00 41.45
211.00 37.29
212.00 33.38
213.00 30.39
214.00 28.36
215.00 27.16
216.00 26.60
217.00 26.49
218.00 26.64
219.00 26.93
220.00 27.36
221.00 28.02
222.00 29.09
223.00 30.80
224.00 33.46
225.00 37.51
226.00 42.40
227.00 42.70
228.00 40.89
229.00 40.86
230.00 42.26
231.00 43.48
232.00 43.09
233.00 42.19
234.00 41.57
235.00 41.11
236.00 40.90
237.00 41.31
238.00 42.56
239.00 44.32
240.00 45.55
241.00 46.25
242.00 48.45
243.00 56.60
244.00 55.39
245.00 46.72
246.00 43.82
247.00 43.31
248.00 44.07
249.00 44.65
250.00 43.73
251.00 42.46
252.00 42.29
253.00 44.00
254.00 48.87
255.00 59.92
256.00 50.67
257.00 46.31
258.00 44.30
259.00 42.64
260.00 40.69
261.00 38.80
262.00 37.53
263.00 37.20
264.00 37.84
265.00 39.02
266.00 39.69
267.00 39.22
268.00 38.30
269.00 37.64
270.00 37.52
271.00 37.96
272.00 38.65
273.00 38.86
274.00 37.88
275.00 35.90
276.00 33.72
277.00 31.88
278.00 30.55
279.00 29.73
280.00 29.37
281.00 29.39
282.00 29.61
283.00 29.81
284.00 29.81
285.00 29.74
286.00 29.88
287.00 30.42
288.00 31.34
289.00 32.21
290.00 32.47
291.00 32.03
292.00 31.25
293.00 30.25
294.00 28.95
295.00 27.40
296.00 25.83
297.00 24.49
298.00 23.51
299.00 22.91
300.00 22.70
301.00 22.87
302.00 23.49
303.00 24.66
304.00 26.46
305.00 28.47
306.00 28.74
307.00 26.41
308.00 23.61
309.00 21.31
310.00 19.63
311.00 18.54
312.00 18.03
313.00 18.12
314.00 18.83
315.00 20.18
316.00 22.19
317.00 24.47
318.00 25.14
319.00 23.04
320.00 20.46
321.00 18.55
322.00 17.43
323.00 17.10
324.00 17.53
325.00 18.79
326.00 20.99
327.00 24.18
328.00 27.02
329.00 26.38
330.00 24.49
331.00 23.66
332.00 24.26
333.00 26.69
334.00 32.72
335.00 47.39
336.00 30.19
337.00 25.65
338.00 23.80
339.00 23.41
340.00 23.95
341.00 24.70
342.00 24.68
343.00 23.81
344.00 23.02
345.00 22.94
346.00 23.55
347.00 23.72
348.00 22.06
349.00 19.70
350.00 18.03
351.00 17.43
352.00 18.04
353.00 20.15
354.00 24.60
355.00 33.76
356.00 31.38
357.00 27.77
358.00 26.96
359.00 20.46
