NAME ATR4518R7_2535_X_CO_P45_07T_yyR
FREQUENCY 2535
GAIN 15.30 dBd
TILT	ELECTRICAL
COMMENT DATE 05.08.2013 +45 degrees polarized system Lever position 07T deg
HORIZONTAL 360
0.00 0.03
1.00 0.06
2.00 0.10
3.00 0.16
4.00 0.22
5.00 0.28
6.00 0.36
7.00 0.44
8.00 0.53
9.00 0.62
10.00 0.72
11.00 0.82
12.00 0.91
13.00 1.01
14.00 1.11
15.00 1.20
16.00 1.30
17.00 1.39
18.00 1.48
19.00 1.57
20.00 1.66
21.00 1.76
22.00 1.85
23.00 1.95
24.00 2.05
25.00 2.16
26.00 2.27
27.00 2.40
28.00 2.53
29.00 2.68
30.00 2.83
31.00 3.00
32.00 3.19
33.00 3.38
34.00 3.60
35.00 3.83
36.00 4.07
37.00 4.33
38.00 4.60
39.00 4.89
40.00 5.19
41.00 5.51
42.00 5.84
43.00 6.19
44.00 6.54
45.00 6.91
46.00 7.29
47.00 7.68
48.00 8.08
49.00 8.48
50.00 8.90
51.00 9.32
52.00 9.74
53.00 10.17
54.00 10.61
55.00 11.05
56.00 11.48
57.00 11.92
58.00 12.36
59.00 12.80
60.00 13.23
61.00 13.66
62.00 14.09
63.00 14.50
64.00 14.92
65.00 15.32
66.00 15.73
67.00 16.12
68.00 16.51
69.00 16.90
70.00 17.30
71.00 17.69
72.00 18.10
73.00 18.51
74.00 18.94
75.00 19.39
76.00 19.86
77.00 20.35
78.00 20.87
79.00 21.42
80.00 21.99
81.00 22.58
82.00 23.19
83.00 23.80
84.00 24.41
85.00 24.99
86.00 25.52
87.00 25.99
88.00 26.39
89.00 26.69
90.00 26.91
91.00 27.05
92.00 27.14
93.00 27.19
94.00 27.24
95.00 27.29
96.00 27.37
97.00 27.49
98.00 27.65
99.00 27.86
100.00 28.12
101.00 28.43
102.00 28.77
103.00 29.14
104.00 29.52
105.00 29.89
106.00 30.24
107.00 30.55
108.00 30.81
109.00 31.01
110.00 31.17
111.00 31.31
112.00 31.45
113.00 31.60
114.00 31.82
115.00 32.10
116.00 32.49
117.00 33.00
118.00 33.66
119.00 34.50
120.00 35.56
121.00 36.91
122.00 38.63
123.00 40.87
124.00 43.92
125.00 48.29
126.00 53.06
127.00 50.17
128.00 45.79
129.00 42.86
130.00 40.88
131.00 39.50
132.00 38.55
133.00 37.94
134.00 37.61
135.00 37.54
136.00 37.70
137.00 38.09
138.00 38.71
139.00 39.59
140.00 40.77
141.00 42.29
142.00 44.26
143.00 46.82
144.00 50.17
145.00 53.91
146.00 54.43
147.00 51.37
148.00 48.56
149.00 46.52
150.00 45.05
151.00 43.96
152.00 43.12
153.00 42.45
154.00 41.87
155.00 41.32
156.00 40.77
157.00 40.20
158.00 39.61
159.00 39.02
160.00 38.45
161.00 37.92
162.00 37.46
163.00 37.07
164.00 36.78
165.00 36.58
166.00 36.49
167.00 36.51
168.00 36.65
169.00 36.90
170.00 37.29
171.00 37.82
172.00 38.50
173.00 39.35
174.00 40.41
175.00 41.73
176.00 43.39
177.00 45.55
178.00 48.54
179.00 53.25
180.00 64.01
181.00 59.30
182.00 51.46
183.00 47.37
184.00 44.62
185.00 42.55
186.00 40.91
187.00 39.58
188.00 38.47
189.00 37.55
190.00 36.78
191.00 36.15
192.00 35.65
193.00 35.27
194.00 34.99
195.00 34.81
196.00 34.74
197.00 34.75
198.00 34.84
199.00 34.98
200.00 35.15
201.00 35.33
202.00 35.45
203.00 35.49
204.00 35.40
205.00 35.17
206.00 34.81
207.00 34.35
208.00 33.84
209.00 33.31
210.00 32.82
211.00 32.38
212.00 32.01
213.00 31.71
214.00 31.51
215.00 31.40
216.00 31.38
217.00 31.47
218.00 31.65
219.00 31.94
220.00 32.34
221.00 32.84
222.00 33.46
223.00 34.18
224.00 35.00
225.00 35.92
226.00 36.89
227.00 37.86
228.00 38.75
229.00 39.45
230.00 39.85
231.00 39.93
232.00 39.73
233.00 39.39
234.00 38.98
235.00 38.59
236.00 38.26
237.00 38.00
238.00 37.81
239.00 37.71
240.00 37.66
241.00 37.67
242.00 37.71
243.00 37.77
244.00 37.85
245.00 37.92
246.00 37.99
247.00 38.05
248.00 38.11
249.00 38.18
250.00 38.25
251.00 38.37
252.00 38.54
253.00 38.77
254.00 39.09
255.00 39.51
256.00 40.05
257.00 40.73
258.00 41.59
259.00 42.64
260.00 43.84
261.00 45.02
262.00 45.74
263.00 45.34
264.00 43.79
265.00 41.71
266.00 39.63
267.00 37.70
268.00 35.94
269.00 34.35
270.00 32.90
271.00 31.59
272.00 30.38
273.00 29.26
274.00 28.22
275.00 27.26
276.00 26.35
277.00 25.49
278.00 24.69
279.00 23.93
280.00 23.20
281.00 22.51
282.00 21.85
283.00 21.21
284.00 20.60
285.00 20.01
286.00 19.43
287.00 18.86
288.00 18.31
289.00 17.76
290.00 17.22
291.00 16.69
292.00 16.16
293.00 15.64
294.00 15.12
295.00 14.60
296.00 14.09
297.00 13.59
298.00 13.09
299.00 12.59
300.00 12.10
301.00 11.61
302.00 11.14
303.00 10.67
304.00 10.21
305.00 9.76
306.00 9.32
307.00 8.89
308.00 8.47
309.00 8.07
310.00 7.67
311.00 7.28
312.00 6.91
313.00 6.55
314.00 6.20
315.00 5.87
316.00 5.54
317.00 5.23
318.00 4.94
319.00 4.65
320.00 4.38
321.00 4.12
322.00 3.87
323.00 3.63
324.00 3.41
325.00 3.19
326.00 2.99
327.00 2.80
328.00 2.62
329.00 2.45
330.00 2.29
331.00 2.14
332.00 1.99
333.00 1.86
334.00 1.73
335.00 1.61
336.00 1.50
337.00 1.39
338.00 1.29
339.00 1.19
340.00 1.09
341.00 0.99
342.00 0.90
343.00 0.81
344.00 0.72
345.00 0.64
346.00 0.55
347.00 0.48
348.00 0.40
349.00 0.33
350.00 0.26
351.00 0.20
352.00 0.14
353.00 0.10
354.00 0.06
355.00 0.03
356.00 0.01
357.00 0.00
358.00 0.00
359.00 0.01
VERTICAL 360
0.00 22.27
1.00 21.84
2.00 15.42
3.00 9.37
4.00 5.13
5.00 2.28
6.00 0.59
7.00 0.00
8.00 0.59
9.00 2.60
10.00 6.67
11.00 15.53
12.00 21.81
13.00 12.80
14.00 11.42
15.00 13.57
16.00 19.86
17.00 21.69
18.00 15.49
19.00 13.52
20.00 14.36
21.00 18.41
22.00 29.42
23.00 23.77
24.00 19.01
25.00 19.75
26.00 26.79
27.00 32.36
28.00 21.52
29.00 19.06
30.00 19.48
31.00 21.79
32.00 24.93
33.00 26.73
34.00 27.12
35.00 27.79
36.00 28.01
37.00 25.90
38.00 22.48
39.00 19.78
40.00 18.64
41.00 19.54
42.00 23.24
43.00 30.23
44.00 28.20
45.00 24.41
46.00 23.39
47.00 23.55
48.00 24.79
49.00 28.66
50.00 40.57
51.00 32.57
52.00 27.01
53.00 25.75
54.00 26.05
55.00 26.34
56.00 26.13
57.00 26.33
58.00 26.77
59.00 25.92
60.00 24.71
61.00 24.83
62.00 26.54
63.00 29.51
64.00 33.09
65.00 36.67
66.00 41.52
67.00 43.90
68.00 38.21
69.00 35.64
70.00 34.87
71.00 34.43
72.00 33.92
73.00 33.49
74.00 33.71
75.00 34.97
76.00 36.04
77.00 36.24
78.00 38.50
79.00 43.25
80.00 37.41
81.00 33.41
82.00 32.08
83.00 31.19
84.00 30.13
85.00 28.91
86.00 27.47
87.00 27.03
88.00 28.93
89.00 34.22
90.00 43.11
91.00 38.20
92.00 31.07
93.00 28.12
94.00 28.66
95.00 32.39
96.00 35.68
97.00 34.04
98.00 31.20
99.00 29.31
100.00 30.38
101.00 35.95
102.00 41.60
103.00 39.78
104.00 47.04
105.00 42.61
106.00 38.48
107.00 40.25
108.00 43.96
109.00 50.27
110.00 48.84
111.00 41.45
112.00 39.67
113.00 38.62
114.00 37.98
115.00 39.02
116.00 39.84
117.00 39.58
118.00 41.08
119.00 43.86
120.00 41.61
121.00 38.29
122.00 37.81
123.00 39.22
124.00 38.53
125.00 36.88
126.00 35.92
127.00 34.73
128.00 34.57
129.00 35.72
130.00 36.46
131.00 37.47
132.00 38.23
133.00 36.46
134.00 36.69
135.00 38.27
136.00 35.72
137.00 34.31
138.00 35.92
139.00 39.19
140.00 42.35
141.00 41.08
142.00 37.28
143.00 36.15
144.00 36.31
145.00 36.15
146.00 36.54
147.00 37.72
148.00 38.14
149.00 37.27
150.00 36.23
151.00 36.22
152.00 36.95
153.00 37.03
154.00 37.05
155.00 38.36
156.00 41.17
157.00 43.83
158.00 42.67
159.00 41.87
160.00 43.95
161.00 45.64
162.00 44.31
163.00 46.04
164.00 53.74
165.00 49.10
166.00 45.16
167.00 46.04
168.00 48.85
169.00 48.68
170.00 44.89
171.00 42.80
172.00 44.76
173.00 46.91
174.00 40.04
175.00 36.40
176.00 35.47
177.00 36.00
178.00 36.51
179.00 37.46
180.00 39.64
181.00 39.56
182.00 36.94
183.00 36.41
184.00 38.61
185.00 43.30
186.00 45.17
187.00 40.52
188.00 37.30
189.00 36.07
190.00 36.70
191.00 37.52
192.00 34.74
193.00 31.97
194.00 31.61
195.00 33.65
196.00 36.83
197.00 38.65
198.00 41.51
199.00 44.70
200.00 39.97
201.00 37.68
202.00 37.41
203.00 37.64
204.00 39.06
205.00 42.30
206.00 44.75
207.00 42.76
208.00 40.87
209.00 43.30
210.00 56.13
211.00 43.45
212.00 39.95
213.00 40.79
214.00 43.80
215.00 51.89
216.00 48.46
217.00 41.90
218.00 40.86
219.00 41.51
220.00 42.36
221.00 42.11
222.00 40.34
223.00 40.31
224.00 42.18
225.00 41.56
226.00 37.25
227.00 33.75
228.00 32.40
229.00 32.96
230.00 34.24
231.00 34.69
232.00 34.30
233.00 33.87
234.00 33.91
235.00 34.18
236.00 34.15
237.00 34.01
238.00 34.19
239.00 35.26
240.00 37.37
241.00 39.19
242.00 41.10
243.00 48.01
244.00 55.84
245.00 45.59
246.00 47.80
247.00 50.16
248.00 40.90
249.00 38.35
250.00 39.51
251.00 41.47
252.00 39.87
253.00 36.43
254.00 33.88
255.00 33.86
256.00 37.50
257.00 44.12
258.00 42.81
259.00 43.49
260.00 46.92
261.00 47.61
262.00 43.85
263.00 38.26
264.00 35.79
265.00 35.63
266.00 36.95
267.00 39.06
268.00 38.60
269.00 36.07
270.00 34.70
271.00 33.92
272.00 32.86
273.00 31.70
274.00 31.23
275.00 32.08
276.00 33.86
277.00 34.78
278.00 33.98
279.00 32.28
280.00 31.58
281.00 33.27
282.00 37.37
283.00 40.36
284.00 38.84
285.00 35.22
286.00 33.33
287.00 34.42
288.00 38.90
289.00 48.61
290.00 60.06
291.00 58.44
292.00 56.09
293.00 44.41
294.00 38.89
295.00 33.82
296.00 29.48
297.00 26.22
298.00 23.43
299.00 20.68
300.00 18.13
301.00 15.98
302.00 14.25
303.00 12.85
304.00 11.77
305.00 11.11
306.00 11.03
307.00 11.60
308.00 12.91
309.00 15.11
310.00 18.73
311.00 25.12
312.00 27.87
313.00 21.06
314.00 18.21
315.00 17.63
316.00 18.87
317.00 22.43
318.00 28.78
319.00 25.92
320.00 21.27
321.00 20.01
322.00 21.38
323.00 26.36
324.00 36.92
325.00 25.52
326.00 20.93
327.00 19.95
328.00 22.05
329.00 29.95
330.00 29.07
331.00 20.73
332.00 17.86
333.00 17.88
334.00 21.55
335.00 34.13
336.00 22.53
337.00 16.90
338.00 14.40
339.00 13.88
340.00 15.10
341.00 17.97
342.00 22.39
343.00 25.97
344.00 24.43
345.00 24.57
346.00 29.05
347.00 31.62
348.00 25.14
349.00 22.89
350.00 23.84
351.00 27.97
352.00 36.95
353.00 54.52
354.00 39.91
355.00 29.60
356.00 24.27
357.00 21.75
358.00 20.97
359.00 21.19
