NAME ATR4518R7_0832_X_CO_P45_06T
FREQUENCY 0832
GAIN 14.49 dBd
TILT	ELECTRICAL
COMMENT DATE 05.08.2013 +45 degrees polarized system Lever position 06T deg
HORIZONTAL 360
0.00 0.00
1.00 0.00
2.00 0.01
3.00 0.02
4.00 0.04
5.00 0.07
6.00 0.10
7.00 0.14
8.00 0.18
9.00 0.23
10.00 0.28
11.00 0.34
12.00 0.40
13.00 0.47
14.00 0.55
15.00 0.63
16.00 0.72
17.00 0.81
18.00 0.91
19.00 1.01
20.00 1.12
21.00 1.23
22.00 1.35
23.00 1.47
24.00 1.61
25.00 1.74
26.00 1.88
27.00 2.03
28.00 2.18
29.00 2.33
30.00 2.50
31.00 2.66
32.00 2.83
33.00 3.01
34.00 3.19
35.00 3.38
36.00 3.58
37.00 3.77
38.00 3.98
39.00 4.18
40.00 4.40
41.00 4.61
42.00 4.84
43.00 5.07
44.00 5.30
45.00 5.54
46.00 5.78
47.00 6.03
48.00 6.28
49.00 6.53
50.00 6.79
51.00 7.06
52.00 7.33
53.00 7.60
54.00 7.88
55.00 8.16
56.00 8.45
57.00 8.74
58.00 9.03
59.00 9.33
60.00 9.64
61.00 9.94
62.00 10.25
63.00 10.57
64.00 10.88
65.00 11.20
66.00 11.53
67.00 11.85
68.00 12.18
69.00 12.51
70.00 12.85
71.00 13.19
72.00 13.53
73.00 13.87
74.00 14.22
75.00 14.57
76.00 14.92
77.00 15.28
78.00 15.63
79.00 15.99
80.00 16.35
81.00 16.72
82.00 17.08
83.00 17.45
84.00 17.82
85.00 18.20
86.00 18.57
87.00 18.95
88.00 19.33
89.00 19.72
90.00 20.10
91.00 20.49
92.00 20.88
93.00 21.27
94.00 21.66
95.00 22.06
96.00 22.45
97.00 22.84
98.00 23.24
99.00 23.63
100.00 24.01
101.00 24.40
102.00 24.77
103.00 25.14
104.00 25.51
105.00 25.86
106.00 26.19
107.00 26.52
108.00 26.82
109.00 27.11
110.00 27.38
111.00 27.62
112.00 27.85
113.00 28.05
114.00 28.23
115.00 28.38
116.00 28.51
117.00 28.63
118.00 28.72
119.00 28.80
120.00 28.87
121.00 28.92
122.00 28.96
123.00 29.00
124.00 29.03
125.00 29.06
126.00 29.09
127.00 29.11
128.00 29.14
129.00 29.17
130.00 29.21
131.00 29.26
132.00 29.30
133.00 29.36
134.00 29.42
135.00 29.50
136.00 29.57
137.00 29.66
138.00 29.76
139.00 29.86
140.00 29.97
141.00 30.09
142.00 30.22
143.00 30.36
144.00 30.50
145.00 30.65
146.00 30.80
147.00 30.96
148.00 31.13
149.00 31.30
150.00 31.47
151.00 31.65
152.00 31.83
153.00 32.01
154.00 32.19
155.00 32.37
156.00 32.56
157.00 32.74
158.00 32.92
159.00 33.09
160.00 33.26
161.00 33.44
162.00 33.61
163.00 33.77
164.00 33.93
165.00 34.09
166.00 34.24
167.00 34.39
168.00 34.54
169.00 34.69
170.00 34.83
171.00 34.97
172.00 35.11
173.00 35.24
174.00 35.37
175.00 35.50
176.00 35.62
177.00 35.73
178.00 35.84
179.00 35.95
180.00 36.05
181.00 36.14
182.00 36.22
183.00 36.29
184.00 36.35
185.00 36.40
186.00 36.43
187.00 36.45
188.00 36.46
189.00 36.45
190.00 36.43
191.00 36.40
192.00 36.35
193.00 36.29
194.00 36.22
195.00 36.14
196.00 36.06
197.00 35.97
198.00 35.88
199.00 35.79
200.00 35.69
201.00 35.60
202.00 35.50
203.00 35.41
204.00 35.33
205.00 35.25
206.00 35.18
207.00 35.11
208.00 35.06
209.00 35.00
210.00 34.96
211.00 34.93
212.00 34.90
213.00 34.88
214.00 34.87
215.00 34.85
216.00 34.85
217.00 34.85
218.00 34.86
219.00 34.86
220.00 34.86
221.00 34.85
222.00 34.85
223.00 34.83
224.00 34.80
225.00 34.76
226.00 34.70
227.00 34.62
228.00 34.51
229.00 34.38
230.00 34.22
231.00 34.03
232.00 33.81
233.00 33.56
234.00 33.28
235.00 32.97
236.00 32.63
237.00 32.26
238.00 31.88
239.00 31.48
240.00 31.07
241.00 30.64
242.00 30.20
243.00 29.75
244.00 29.30
245.00 28.84
246.00 28.39
247.00 27.93
248.00 27.48
249.00 27.02
250.00 26.58
251.00 26.13
252.00 25.69
253.00 25.26
254.00 24.83
255.00 24.41
256.00 23.99
257.00 23.59
258.00 23.18
259.00 22.79
260.00 22.40
261.00 22.02
262.00 21.64
263.00 21.28
264.00 20.91
265.00 20.56
266.00 20.21
267.00 19.86
268.00 19.52
269.00 19.19
270.00 18.86
271.00 18.54
272.00 18.22
273.00 17.90
274.00 17.59
275.00 17.28
276.00 16.98
277.00 16.67
278.00 16.37
279.00 16.07
280.00 15.78
281.00 15.48
282.00 15.18
283.00 14.89
284.00 14.60
285.00 14.30
286.00 14.01
287.00 13.72
288.00 13.43
289.00 13.13
290.00 12.84
291.00 12.54
292.00 12.25
293.00 11.95
294.00 11.66
295.00 11.37
296.00 11.07
297.00 10.78
298.00 10.48
299.00 10.19
300.00 9.90
301.00 9.60
302.00 9.31
303.00 9.02
304.00 8.74
305.00 8.46
306.00 8.17
307.00 7.89
308.00 7.61
309.00 7.34
310.00 7.07
311.00 6.80
312.00 6.54
313.00 6.28
314.00 6.02
315.00 5.77
316.00 5.52
317.00 5.28
318.00 5.04
319.00 4.81
320.00 4.58
321.00 4.35
322.00 4.13
323.00 3.92
324.00 3.71
325.00 3.51
326.00 3.31
327.00 3.12
328.00 2.93
329.00 2.75
330.00 2.58
331.00 2.41
332.00 2.24
333.00 2.08
334.00 1.93
335.00 1.79
336.00 1.64
337.00 1.51
338.00 1.38
339.00 1.26
340.00 1.14
341.00 1.03
342.00 0.92
343.00 0.82
344.00 0.72
345.00 0.64
346.00 0.55
347.00 0.48
348.00 0.40
349.00 0.34
350.00 0.28
351.00 0.22
352.00 0.18
353.00 0.13
354.00 0.10
355.00 0.07
356.00 0.04
357.00 0.02
358.00 0.01
359.00 0.00
VERTICAL 360
0.00 7.10
1.00 4.75
2.00 2.98
3.00 1.66
4.00 0.75
5.00 0.21
6.00 0.00
7.00 0.11
8.00 0.56
9.00 1.34
10.00 2.50
11.00 4.07
12.00 6.16
13.00 8.91
14.00 12.62
15.00 18.03
16.00 27.99
17.00 31.33
18.00 24.11
19.00 22.47
20.00 23.29
21.00 26.57
22.00 34.27
23.00 31.03
24.00 24.29
25.00 20.90
26.00 19.12
27.00 18.38
28.00 18.49
29.00 19.38
30.00 21.11
31.00 23.82
32.00 27.81
33.00 32.57
34.00 32.28
35.00 29.11
36.00 27.24
37.00 26.66
38.00 27.29
39.00 29.44
40.00 34.55
41.00 46.35
42.00 32.47
43.00 26.85
44.00 23.77
45.00 21.96
46.00 20.94
47.00 20.47
48.00 20.34
49.00 20.42
50.00 20.62
51.00 20.93
52.00 21.44
53.00 22.28
54.00 23.57
55.00 25.48
56.00 28.16
57.00 31.78
58.00 36.30
59.00 40.10
60.00 40.46
61.00 39.43
62.00 38.25
63.00 36.66
64.00 34.81
65.00 33.21
66.00 32.21
67.00 32.02
68.00 32.77
69.00 34.54
70.00 37.12
71.00 38.94
72.00 37.97
73.00 36.06
74.00 34.67
75.00 34.01
76.00 34.13
77.00 34.99
78.00 36.07
79.00 35.73
80.00 33.66
81.00 31.56
82.00 30.16
83.00 29.50
84.00 29.45
85.00 29.81
86.00 30.30
87.00 30.54
88.00 30.31
89.00 29.77
90.00 29.25
91.00 28.97
92.00 29.00
93.00 29.30
94.00 29.82
95.00 30.45
96.00 31.09
97.00 31.61
98.00 31.88
99.00 31.87
100.00 31.68
101.00 31.44
102.00 31.28
103.00 31.31
104.00 31.61
105.00 32.21
106.00 33.13
107.00 34.25
108.00 35.33
109.00 35.94
110.00 35.75
111.00 35.03
112.00 34.27
113.00 33.82
114.00 33.81
115.00 34.24
116.00 35.12
117.00 36.39
118.00 37.99
119.00 39.68
120.00 41.03
121.00 41.91
122.00 42.77
123.00 43.72
124.00 43.34
125.00 40.72
126.00 37.70
127.00 35.27
128.00 33.46
129.00 32.14
130.00 31.19
131.00 30.50
132.00 30.03
133.00 29.74
134.00 29.64
135.00 29.77
136.00 30.20
137.00 30.99
138.00 32.18
139.00 33.67
140.00 34.92
141.00 34.94
142.00 33.66
143.00 32.05
144.00 30.73
145.00 29.83
146.00 29.34
147.00 29.19
148.00 29.28
149.00 29.55
150.00 29.93
151.00 30.39
152.00 30.97
153.00 31.70
154.00 32.66
155.00 33.91
156.00 35.55
157.00 37.69
158.00 40.49
159.00 43.73
160.00 45.70
161.00 45.01
162.00 44.09
163.00 44.32
164.00 45.57
165.00 45.93
166.00 43.38
167.00 40.39
168.00 38.16
169.00 36.63
170.00 35.64
171.00 35.10
172.00 34.98
173.00 35.29
174.00 36.05
175.00 36.29
176.00 37.09
177.00 38.57
178.00 40.89
179.00 44.10
180.00 47.00
181.00 46.99
182.00 46.32
183.00 47.19
184.00 49.74
185.00 48.46
186.00 43.19
187.00 39.24
188.00 36.63
189.00 34.96
190.00 33.99
191.00 33.55
192.00 33.52
193.00 33.79
194.00 34.27
195.00 34.93
196.00 35.76
197.00 36.76
198.00 37.94
199.00 39.26
200.00 40.60
201.00 41.74
202.00 42.40
203.00 42.38
204.00 41.83
205.00 41.26
206.00 41.19
207.00 41.88
208.00 42.83
209.00 42.15
210.00 39.58
211.00 37.04
212.00 35.23
213.00 34.09
214.00 33.43
215.00 33.06
216.00 32.86
217.00 32.72
218.00 32.63
219.00 32.55
220.00 32.49
221.00 32.51
222.00 32.68
223.00 33.18
224.00 34.19
225.00 35.90
226.00 38.27
227.00 39.99
228.00 38.98
229.00 36.84
230.00 35.18
231.00 34.13
232.00 33.44
233.00 32.80
234.00 32.01
235.00 31.05
236.00 30.08
237.00 29.34
238.00 28.98
239.00 29.05
240.00 29.52
241.00 30.27
242.00 31.13
243.00 31.80
244.00 31.95
245.00 31.48
246.00 30.69
247.00 30.01
248.00 29.67
249.00 29.72
250.00 30.09
251.00 30.64
252.00 31.14
253.00 31.45
254.00 31.56
255.00 31.60
256.00 31.73
257.00 32.07
258.00 32.65
259.00 33.41
260.00 34.19
261.00 34.81
262.00 35.11
263.00 35.06
264.00 34.89
265.00 34.95
266.00 35.55
267.00 36.88
268.00 39.05
269.00 41.97
270.00 44.96
271.00 46.55
272.00 46.58
273.00 46.25
274.00 45.86
275.00 44.59
276.00 41.84
277.00 38.64
278.00 35.93
279.00 33.95
280.00 32.68
281.00 32.02
282.00 31.87
283.00 32.11
284.00 32.61
285.00 33.26
286.00 33.90
287.00 34.41
288.00 34.76
289.00 35.12
290.00 35.80
291.00 37.15
292.00 39.66
293.00 44.52
294.00 57.55
295.00 47.11
296.00 40.94
297.00 37.84
298.00 36.01
299.00 34.85
300.00 34.03
301.00 33.42
302.00 33.02
303.00 33.03
304.00 33.78
305.00 35.96
306.00 41.54
307.00 45.53
308.00 34.62
309.00 29.17
310.00 25.72
311.00 23.34
312.00 21.68
313.00 20.53
314.00 19.76
315.00 19.28
316.00 19.02
317.00 18.95
318.00 19.09
319.00 19.47
320.00 20.22
321.00 21.45
322.00 23.38
323.00 26.41
324.00 31.56
325.00 44.51
326.00 37.65
327.00 31.43
328.00 29.11
329.00 28.55
330.00 29.30
331.00 31.37
332.00 35.42
333.00 45.10
334.00 43.87
335.00 35.24
336.00 31.44
337.00 29.31
338.00 28.08
339.00 27.35
340.00 26.69
341.00 25.73
342.00 24.42
343.00 23.08
344.00 22.09
345.00 21.66
346.00 22.01
347.00 23.39
348.00 26.39
349.00 33.24
350.00 42.35
351.00 28.88
352.00 24.68
353.00 23.18
354.00 23.90
355.00 28.50
356.00 36.66
357.00 20.97
358.00 14.47
359.00 10.21
