NAME ATR4518R7_1880_X_CO_M45_08T_yL
FREQUENCY 1880
GAIN 14.84 dBd
TILT	ELECTRICAL
COMMENT DATE 05.08.2013 -45 degrees polarized system Lever position 08T deg
HORIZONTAL 360
0.00 0.01
1.00 0.00
2.00 0.00
3.00 0.00
4.00 0.01
5.00 0.02
6.00 0.04
7.00 0.07
8.00 0.10
9.00 0.14
10.00 0.19
11.00 0.24
12.00 0.30
13.00 0.36
14.00 0.42
15.00 0.50
16.00 0.57
17.00 0.65
18.00 0.74
19.00 0.83
20.00 0.92
21.00 1.02
22.00 1.12
23.00 1.23
24.00 1.34
25.00 1.46
26.00 1.58
27.00 1.71
28.00 1.84
29.00 1.98
30.00 2.13
31.00 2.28
32.00 2.44
33.00 2.61
34.00 2.79
35.00 2.97
36.00 3.16
37.00 3.36
38.00 3.57
39.00 3.79
40.00 4.02
41.00 4.25
42.00 4.50
43.00 4.75
44.00 5.01
45.00 5.29
46.00 5.57
47.00 5.86
48.00 6.15
49.00 6.46
50.00 6.77
51.00 7.09
52.00 7.42
53.00 7.75
54.00 8.09
55.00 8.44
56.00 8.79
57.00 9.15
58.00 9.51
59.00 9.88
60.00 10.25
61.00 10.62
62.00 11.00
63.00 11.38
64.00 11.76
65.00 12.15
66.00 12.53
67.00 12.92
68.00 13.30
69.00 13.69
70.00 14.07
71.00 14.45
72.00 14.82
73.00 15.19
74.00 15.56
75.00 15.92
76.00 16.27
77.00 16.62
78.00 16.95
79.00 17.28
80.00 17.60
81.00 17.91
82.00 18.22
83.00 18.52
84.00 18.81
85.00 19.11
86.00 19.40
87.00 19.69
88.00 19.98
89.00 20.28
90.00 20.58
91.00 20.89
92.00 21.21
93.00 21.53
94.00 21.86
95.00 22.20
96.00 22.54
97.00 22.88
98.00 23.22
99.00 23.55
100.00 23.87
101.00 24.17
102.00 24.45
103.00 24.69
104.00 24.91
105.00 25.08
106.00 25.23
107.00 25.34
108.00 25.43
109.00 25.51
110.00 25.57
111.00 25.64
112.00 25.70
113.00 25.79
114.00 25.88
115.00 26.00
116.00 26.15
117.00 26.31
118.00 26.49
119.00 26.70
120.00 26.92
121.00 27.14
122.00 27.36
123.00 27.58
124.00 27.78
125.00 27.96
126.00 28.12
127.00 28.25
128.00 28.37
129.00 28.47
130.00 28.57
131.00 28.69
132.00 28.82
133.00 29.00
134.00 29.22
135.00 29.49
136.00 29.84
137.00 30.27
138.00 30.78
139.00 31.38
140.00 32.08
141.00 32.87
142.00 33.73
143.00 34.62
144.00 35.45
145.00 36.10
146.00 36.42
147.00 36.35
148.00 35.91
149.00 35.23
150.00 34.47
151.00 33.71
152.00 33.01
153.00 32.40
154.00 31.88
155.00 31.44
156.00 31.09
157.00 30.82
158.00 30.61
159.00 30.47
160.00 30.38
161.00 30.33
162.00 30.32
163.00 30.35
164.00 30.40
165.00 30.47
166.00 30.56
167.00 30.68
168.00 30.80
169.00 30.94
170.00 31.09
171.00 31.22
172.00 31.34
173.00 31.42
174.00 31.44
175.00 31.37
176.00 31.20
177.00 30.94
178.00 30.58
179.00 30.14
180.00 29.66
181.00 29.17
182.00 28.68
183.00 28.23
184.00 27.82
185.00 27.49
186.00 27.23
187.00 27.06
188.00 26.98
189.00 27.00
190.00 27.14
191.00 27.40
192.00 27.81
193.00 28.36
194.00 29.10
195.00 30.05
196.00 31.24
197.00 32.74
198.00 34.55
199.00 36.51
200.00 37.92
201.00 37.58
202.00 35.74
203.00 33.59
204.00 31.67
205.00 30.07
206.00 28.76
207.00 27.69
208.00 26.83
209.00 26.15
210.00 25.63
211.00 25.25
212.00 25.02
213.00 24.91
214.00 24.93
215.00 25.09
216.00 25.38
217.00 25.82
218.00 26.43
219.00 27.22
220.00 28.23
221.00 29.52
222.00 31.19
223.00 33.40
224.00 36.50
225.00 41.19
226.00 46.65
227.00 41.91
228.00 36.93
229.00 33.67
230.00 31.34
231.00 29.58
232.00 28.21
233.00 27.11
234.00 26.22
235.00 25.50
236.00 24.93
237.00 24.48
238.00 24.13
239.00 23.88
240.00 23.72
241.00 23.62
242.00 23.59
243.00 23.62
244.00 23.70
245.00 23.80
246.00 23.93
247.00 24.06
248.00 24.18
249.00 24.26
250.00 24.28
251.00 24.24
252.00 24.12
253.00 23.92
254.00 23.65
255.00 23.32
256.00 22.95
257.00 22.55
258.00 22.15
259.00 21.75
260.00 21.37
261.00 21.01
262.00 20.67
263.00 20.36
264.00 20.08
265.00 19.82
266.00 19.59
267.00 19.37
268.00 19.17
269.00 18.97
270.00 18.78
271.00 18.58
272.00 18.37
273.00 18.15
274.00 17.90
275.00 17.63
276.00 17.33
277.00 17.01
278.00 16.66
279.00 16.29
280.00 15.90
281.00 15.50
282.00 15.09
283.00 14.68
284.00 14.28
285.00 13.87
286.00 13.47
287.00 13.08
288.00 12.71
289.00 12.34
290.00 11.98
291.00 11.63
292.00 11.30
293.00 10.98
294.00 10.66
295.00 10.36
296.00 10.06
297.00 9.78
298.00 9.50
299.00 9.22
300.00 8.95
301.00 8.69
302.00 8.44
303.00 8.18
304.00 7.94
305.00 7.70
306.00 7.46
307.00 7.23
308.00 7.01
309.00 6.79
310.00 6.58
311.00 6.37
312.00 6.18
313.00 5.99
314.00 5.80
315.00 5.62
316.00 5.44
317.00 5.27
318.00 5.10
319.00 4.93
320.00 4.77
321.00 4.61
322.00 4.44
323.00 4.28
324.00 4.11
325.00 3.95
326.00 3.78
327.00 3.61
328.00 3.43
329.00 3.26
330.00 3.09
331.00 2.91
332.00 2.74
333.00 2.57
334.00 2.40
335.00 2.24
336.00 2.08
337.00 1.92
338.00 1.77
339.00 1.63
340.00 1.49
341.00 1.36
342.00 1.23
343.00 1.11
344.00 1.00
345.00 0.89
346.00 0.80
347.00 0.70
348.00 0.62
349.00 0.53
350.00 0.46
351.00 0.39
352.00 0.32
353.00 0.27
354.00 0.21
355.00 0.16
356.00 0.12
357.00 0.09
358.00 0.05
359.00 0.03
VERTICAL 360
0.00 33.89
1.00 19.97
2.00 12.67
3.00 7.94
4.00 4.64
5.00 2.34
6.00 0.85
7.00 0.10
8.00 0.07
9.00 0.81
10.00 2.43
11.00 5.21
12.00 9.79
13.00 17.86
14.00 17.96
15.00 12.72
16.00 10.89
17.00 11.05
18.00 12.91
19.00 16.83
20.00 23.21
21.00 22.09
22.00 17.95
23.00 16.37
24.00 16.65
25.00 18.74
26.00 23.54
27.00 33.89
28.00 25.49
29.00 20.53
30.00 18.56
31.00 18.28
32.00 19.49
33.00 22.59
34.00 29.61
35.00 40.85
36.00 27.15
37.00 23.46
38.00 22.10
39.00 21.86
40.00 22.30
41.00 23.09
42.00 23.25
43.00 21.82
44.00 19.80
45.00 18.23
46.00 17.23
47.00 16.59
48.00 16.13
49.00 15.87
50.00 15.97
51.00 16.60
52.00 17.81
53.00 19.52
54.00 21.58
55.00 24.05
56.00 27.48
57.00 33.40
58.00 42.29
59.00 35.10
60.00 31.97
61.00 31.66
62.00 33.01
63.00 35.16
64.00 36.92
65.00 37.62
66.00 37.11
67.00 35.13
68.00 32.65
69.00 30.70
70.00 29.53
71.00 29.10
72.00 29.22
73.00 29.60
74.00 29.96
75.00 30.12
76.00 30.22
77.00 30.46
78.00 31.00
79.00 31.91
80.00 33.22
81.00 34.67
82.00 35.67
83.00 36.14
84.00 36.77
85.00 38.34
86.00 41.85
87.00 51.07
88.00 51.25
89.00 43.53
90.00 42.27
91.00 44.96
92.00 51.36
93.00 45.25
94.00 40.66
95.00 38.89
96.00 38.58
97.00 38.69
98.00 38.41
99.00 37.90
100.00 37.77
101.00 38.17
102.00 38.85
103.00 39.51
104.00 40.04
105.00 40.52
106.00 41.07
107.00 41.68
108.00 42.42
109.00 43.48
110.00 44.87
111.00 46.17
112.00 46.65
113.00 46.03
114.00 44.71
115.00 43.15
116.00 41.68
117.00 40.60
118.00 40.15
119.00 40.37
120.00 41.32
121.00 43.45
122.00 47.76
123.00 53.46
124.00 48.12
125.00 43.49
126.00 40.76
127.00 39.42
128.00 39.50
129.00 41.29
130.00 45.59
131.00 57.93
132.00 51.41
133.00 44.45
134.00 41.81
135.00 41.12
136.00 41.86
137.00 44.17
138.00 47.29
139.00 43.70
140.00 39.19
141.00 36.95
142.00 36.49
143.00 37.30
144.00 38.77
145.00 39.77
146.00 39.03
147.00 37.36
148.00 36.39
149.00 36.75
150.00 38.43
151.00 40.23
152.00 39.56
153.00 37.46
154.00 35.78
155.00 34.74
156.00 34.26
157.00 34.28
158.00 34.66
159.00 35.27
160.00 35.72
161.00 35.35
162.00 34.18
163.00 33.31
164.00 33.58
165.00 35.41
166.00 39.26
167.00 46.66
168.00 48.58
169.00 38.70
170.00 33.41
171.00 30.33
172.00 28.77
173.00 28.39
174.00 28.92
175.00 30.14
176.00 31.91
177.00 34.34
178.00 37.62
179.00 40.23
180.00 39.66
181.00 39.06
182.00 40.47
183.00 44.54
184.00 52.58
185.00 56.14
186.00 50.81
187.00 46.67
188.00 42.33
189.00 38.97
190.00 37.30
191.00 37.73
192.00 40.89
193.00 44.70
194.00 40.73
195.00 38.38
196.00 39.25
197.00 43.67
198.00 48.77
199.00 41.56
200.00 36.23
201.00 32.75
202.00 30.89
203.00 30.76
204.00 32.61
205.00 36.49
206.00 37.03
207.00 33.08
208.00 30.68
209.00 29.73
210.00 29.66
211.00 30.16
212.00 31.22
213.00 33.08
214.00 36.05
215.00 40.30
216.00 44.89
217.00 46.64
218.00 46.64
219.00 46.92
220.00 47.17
221.00 46.78
222.00 45.32
223.00 42.95
224.00 40.26
225.00 37.76
226.00 35.73
227.00 34.40
228.00 33.92
229.00 34.36
230.00 35.78
231.00 38.13
232.00 40.85
233.00 42.24
234.00 41.97
235.00 41.94
236.00 43.22
237.00 46.29
238.00 50.85
239.00 50.85
240.00 48.24
241.00 48.04
242.00 49.75
243.00 48.13
244.00 43.86
245.00 41.16
246.00 40.08
247.00 40.30
248.00 41.51
249.00 43.43
250.00 45.90
251.00 49.44
252.00 54.90
253.00 49.69
254.00 43.18
255.00 39.18
256.00 36.64
257.00 35.00
258.00 33.88
259.00 32.98
260.00 32.11
261.00 31.30
262.00 30.66
263.00 30.21
264.00 29.89
265.00 29.51
266.00 28.96
267.00 28.30
268.00 27.71
269.00 27.31
270.00 27.07
271.00 26.87
272.00 26.58
273.00 26.17
274.00 25.68
275.00 25.24
276.00 24.92
277.00 24.75
278.00 24.74
279.00 24.93
280.00 25.35
281.00 26.05
282.00 27.05
283.00 28.31
284.00 29.76
285.00 31.41
286.00 33.45
287.00 36.48
288.00 42.38
289.00 49.95
290.00 38.12
291.00 32.65
292.00 29.24
293.00 26.82
294.00 25.02
295.00 23.64
296.00 22.59
297.00 21.86
298.00 21.50
299.00 21.66
300.00 22.50
301.00 24.28
302.00 27.42
303.00 33.18
304.00 53.63
305.00 34.18
306.00 27.84
307.00 24.12
308.00 21.68
309.00 20.26
310.00 19.78
311.00 20.18
312.00 21.33
313.00 23.19
314.00 26.04
315.00 31.05
316.00 33.18
317.00 26.26
318.00 22.12
319.00 19.99
320.00 19.24
321.00 19.65
322.00 21.22
323.00 24.09
324.00 27.84
325.00 27.31
326.00 23.66
327.00 21.33
328.00 20.45
329.00 20.77
330.00 22.18
331.00 24.79
332.00 29.04
333.00 34.92
334.00 33.54
335.00 29.54
336.00 27.36
337.00 26.20
338.00 25.48
339.00 25.01
340.00 24.88
341.00 25.44
342.00 26.83
343.00 27.22
344.00 23.99
345.00 20.40
346.00 18.08
347.00 17.06
348.00 17.23
349.00 18.69
350.00 21.97
351.00 29.46
352.00 33.80
353.00 24.50
354.00 21.72
355.00 21.75
356.00 23.77
357.00 26.06
358.00 26.24
359.00 28.14
