NAME ATR4518R7_1750_X_CO_P45_10T_yyR
FREQUENCY 1750
GAIN 14.61 dBd
TILT	ELECTRICAL
COMMENT DATE 05.08.2013 +45 degrees polarized system Lever position 10T deg
HORIZONTAL 360
0.00 0.03
1.00 0.06
2.00 0.09
3.00 0.13
4.00 0.17
5.00 0.23
6.00 0.29
7.00 0.36
8.00 0.43
9.00 0.52
10.00 0.61
11.00 0.72
12.00 0.82
13.00 0.94
14.00 1.07
15.00 1.21
16.00 1.35
17.00 1.50
18.00 1.66
19.00 1.82
20.00 2.00
21.00 2.17
22.00 2.36
23.00 2.55
24.00 2.74
25.00 2.94
26.00 3.13
27.00 3.33
28.00 3.54
29.00 3.74
30.00 3.94
31.00 4.14
32.00 4.34
33.00 4.53
34.00 4.72
35.00 4.91
36.00 5.10
37.00 5.28
38.00 5.46
39.00 5.64
40.00 5.81
41.00 5.99
42.00 6.16
43.00 6.33
44.00 6.50
45.00 6.67
46.00 6.84
47.00 7.01
48.00 7.18
49.00 7.36
50.00 7.54
51.00 7.72
52.00 7.90
53.00 8.09
54.00 8.28
55.00 8.48
56.00 8.68
57.00 8.88
58.00 9.09
59.00 9.30
60.00 9.51
61.00 9.72
62.00 9.94
63.00 10.16
64.00 10.39
65.00 10.62
66.00 10.85
67.00 11.09
68.00 11.33
69.00 11.58
70.00 11.83
71.00 12.09
72.00 12.35
73.00 12.62
74.00 12.90
75.00 13.19
76.00 13.49
77.00 13.79
78.00 14.10
79.00 14.42
80.00 14.75
81.00 15.08
82.00 15.43
83.00 15.77
84.00 16.13
85.00 16.48
86.00 16.84
87.00 17.19
88.00 17.54
89.00 17.88
90.00 18.22
91.00 18.54
92.00 18.84
93.00 19.13
94.00 19.40
95.00 19.65
96.00 19.88
97.00 20.09
98.00 20.29
99.00 20.46
100.00 20.63
101.00 20.78
102.00 20.93
103.00 21.08
104.00 21.23
105.00 21.38
106.00 21.54
107.00 21.70
108.00 21.88
109.00 22.07
110.00 22.27
111.00 22.49
112.00 22.73
113.00 22.98
114.00 23.25
115.00 23.53
116.00 23.83
117.00 24.14
118.00 24.47
119.00 24.80
120.00 25.14
121.00 25.49
122.00 25.84
123.00 26.20
124.00 26.55
125.00 26.91
126.00 27.25
127.00 27.59
128.00 27.93
129.00 28.26
130.00 28.57
131.00 28.89
132.00 29.19
133.00 29.50
134.00 29.80
135.00 30.11
136.00 30.41
137.00 30.73
138.00 31.06
139.00 31.40
140.00 31.76
141.00 32.15
142.00 32.56
143.00 33.01
144.00 33.50
145.00 34.04
146.00 34.63
147.00 35.30
148.00 36.04
149.00 36.89
150.00 37.85
151.00 38.95
152.00 40.18
153.00 41.55
154.00 42.94
155.00 44.09
156.00 44.51
157.00 43.93
158.00 42.65
159.00 41.10
160.00 39.61
161.00 38.25
162.00 37.05
163.00 36.01
164.00 35.10
165.00 34.32
166.00 33.66
167.00 33.10
168.00 32.64
169.00 32.27
170.00 31.99
171.00 31.79
172.00 31.67
173.00 31.64
174.00 31.69
175.00 31.83
176.00 32.05
177.00 32.35
178.00 32.74
179.00 33.22
180.00 33.77
181.00 34.39
182.00 35.04
183.00 35.67
184.00 36.19
185.00 36.48
186.00 36.47
187.00 36.11
188.00 35.48
189.00 34.69
190.00 33.82
191.00 32.97
192.00 32.16
193.00 31.42
194.00 30.76
195.00 30.19
196.00 29.69
197.00 29.28
198.00 28.94
199.00 28.68
200.00 28.50
201.00 28.38
202.00 28.33
203.00 28.36
204.00 28.45
205.00 28.60
206.00 28.82
207.00 29.11
208.00 29.46
209.00 29.86
210.00 30.32
211.00 30.81
212.00 31.32
213.00 31.83
214.00 32.30
215.00 32.68
216.00 32.93
217.00 33.01
218.00 32.92
219.00 32.68
220.00 32.31
221.00 31.87
222.00 31.40
223.00 30.93
224.00 30.47
225.00 30.05
226.00 29.68
227.00 29.36
228.00 29.09
229.00 28.87
230.00 28.70
231.00 28.59
232.00 28.53
233.00 28.51
234.00 28.54
235.00 28.62
236.00 28.74
237.00 28.89
238.00 29.09
239.00 29.32
240.00 29.59
241.00 29.88
242.00 30.21
243.00 30.56
244.00 30.94
245.00 31.34
246.00 31.76
247.00 32.20
248.00 32.66
249.00 33.14
250.00 33.66
251.00 34.20
252.00 34.79
253.00 35.42
254.00 36.11
255.00 36.87
256.00 37.71
257.00 38.64
258.00 39.61
259.00 40.54
260.00 41.27
261.00 41.50
262.00 41.00
263.00 39.88
264.00 38.40
265.00 36.82
266.00 35.27
267.00 33.81
268.00 32.44
269.00 31.17
270.00 29.99
271.00 28.89
272.00 27.85
273.00 26.88
274.00 25.96
275.00 25.08
276.00 24.25
277.00 23.45
278.00 22.69
279.00 21.96
280.00 21.26
281.00 20.58
282.00 19.92
283.00 19.28
284.00 18.66
285.00 18.05
286.00 17.47
287.00 16.89
288.00 16.33
289.00 15.78
290.00 15.25
291.00 14.73
292.00 14.21
293.00 13.71
294.00 13.22
295.00 12.74
296.00 12.26
297.00 11.80
298.00 11.35
299.00 10.91
300.00 10.47
301.00 10.05
302.00 9.63
303.00 9.23
304.00 8.83
305.00 8.44
306.00 8.06
307.00 7.69
308.00 7.34
309.00 6.98
310.00 6.65
311.00 6.31
312.00 5.99
313.00 5.68
314.00 5.38
315.00 5.08
316.00 4.80
317.00 4.53
318.00 4.26
319.00 4.01
320.00 3.76
321.00 3.53
322.00 3.30
323.00 3.08
324.00 2.87
325.00 2.68
326.00 2.49
327.00 2.30
328.00 2.13
329.00 1.97
330.00 1.81
331.00 1.66
332.00 1.53
333.00 1.39
334.00 1.27
335.00 1.15
336.00 1.04
337.00 0.94
338.00 0.84
339.00 0.75
340.00 0.66
341.00 0.58
342.00 0.51
343.00 0.44
344.00 0.38
345.00 0.32
346.00 0.27
347.00 0.22
348.00 0.18
349.00 0.14
350.00 0.10
351.00 0.07
352.00 0.05
353.00 0.03
354.00 0.01
355.00 0.00
356.00 0.00
357.00 0.00
358.00 0.00
359.00 0.02
VERTICAL 360
0.00 41.92
1.00 30.25
2.00 22.22
3.00 15.86
4.00 10.84
5.00 7.03
6.00 4.20
7.00 2.18
8.00 0.84
9.00 0.13
10.00 0.03
11.00 0.55
12.00 1.78
13.00 3.85
14.00 7.07
15.00 12.23
16.00 23.77
17.00 25.93
18.00 17.89
19.00 16.57
20.00 18.11
21.00 22.91
22.00 31.11
23.00 23.07
24.00 17.97
25.00 15.50
26.00 14.45
27.00 14.54
28.00 15.83
29.00 18.70
30.00 24.40
31.00 33.63
32.00 25.70
33.00 21.36
34.00 19.99
35.00 20.66
36.00 23.87
37.00 34.84
38.00 31.92
39.00 23.39
40.00 20.34
41.00 19.15
42.00 18.83
43.00 18.92
44.00 19.34
45.00 20.41
46.00 22.67
47.00 26.81
48.00 30.95
49.00 27.96
50.00 24.56
51.00 22.47
52.00 20.78
53.00 19.04
54.00 17.35
55.00 15.95
56.00 15.05
57.00 14.70
58.00 14.93
59.00 15.76
60.00 16.85
61.00 17.96
62.00 19.07
63.00 20.25
64.00 21.53
65.00 22.83
66.00 24.12
67.00 25.37
68.00 26.62
69.00 27.86
70.00 29.07
71.00 30.10
72.00 30.72
73.00 30.80
74.00 30.68
75.00 30.52
76.00 30.41
77.00 30.31
78.00 30.13
79.00 29.77
80.00 29.12
81.00 28.00
82.00 26.55
83.00 25.48
84.00 25.86
85.00 26.53
86.00 26.75
87.00 26.82
88.00 26.83
89.00 25.47
90.00 27.04
91.00 30.68
92.00 32.86
93.00 31.64
94.00 27.66
95.00 25.56
96.00 26.32
97.00 27.89
98.00 29.73
99.00 31.12
100.00 31.30
101.00 30.68
102.00 30.84
103.00 32.39
104.00 35.35
105.00 39.09
106.00 41.51
107.00 40.94
108.00 39.39
109.00 38.71
110.00 39.20
111.00 40.29
112.00 40.67
113.00 38.97
114.00 36.77
115.00 35.90
116.00 36.68
117.00 38.40
118.00 38.97
119.00 37.19
120.00 34.69
121.00 32.85
122.00 32.06
123.00 32.27
124.00 33.30
125.00 35.08
126.00 37.61
127.00 40.51
128.00 42.67
129.00 43.13
130.00 42.29
131.00 40.76
132.00 39.39
133.00 38.96
134.00 38.98
135.00 38.02
136.00 36.81
137.00 36.92
138.00 38.79
139.00 42.08
140.00 43.81
141.00 40.58
142.00 37.80
143.00 37.51
144.00 40.10
145.00 44.48
146.00 41.95
147.00 37.94
148.00 35.91
149.00 34.99
150.00 34.04
151.00 32.60
152.00 31.66
153.00 32.13
154.00 34.45
155.00 38.95
156.00 46.04
157.00 51.45
158.00 43.73
159.00 38.02
160.00 35.00
161.00 34.06
162.00 35.11
163.00 38.49
164.00 45.44
165.00 48.40
166.00 41.42
167.00 37.45
168.00 34.79
169.00 33.03
170.00 32.21
171.00 32.44
172.00 33.73
173.00 36.14
174.00 39.89
175.00 42.92
176.00 41.11
177.00 39.73
178.00 40.88
179.00 44.85
180.00 53.97
181.00 52.21
182.00 44.49
183.00 41.14
184.00 37.95
185.00 34.16
186.00 31.33
187.00 29.94
188.00 29.80
189.00 30.51
190.00 31.75
191.00 33.41
192.00 35.41
193.00 37.53
194.00 39.18
195.00 38.78
196.00 37.36
197.00 37.64
198.00 41.20
199.00 47.43
200.00 43.03
201.00 40.26
202.00 40.55
203.00 41.25
204.00 40.49
205.00 39.87
206.00 40.99
207.00 43.86
208.00 40.84
209.00 35.20
210.00 32.07
211.00 30.82
212.00 30.60
213.00 30.53
214.00 30.34
215.00 30.70
216.00 32.27
217.00 35.35
218.00 39.02
219.00 39.24
220.00 37.38
221.00 36.89
222.00 37.49
223.00 36.85
224.00 34.66
225.00 33.10
226.00 32.65
227.00 32.91
228.00 33.41
229.00 34.02
230.00 35.08
231.00 37.15
232.00 40.49
233.00 43.81
234.00 43.41
235.00 40.57
236.00 38.60
237.00 38.48
238.00 39.88
239.00 40.56
240.00 39.39
241.00 38.22
242.00 37.14
243.00 36.06
244.00 35.54
245.00 35.76
246.00 36.76
247.00 38.67
248.00 40.83
249.00 41.08
250.00 40.55
251.00 41.66
252.00 43.73
253.00 42.42
254.00 40.09
255.00 39.92
256.00 41.90
257.00 44.15
258.00 42.76
259.00 38.83
260.00 35.46
261.00 33.85
262.00 34.36
263.00 37.29
264.00 43.43
265.00 51.20
266.00 48.37
267.00 44.55
268.00 40.04
269.00 35.49
270.00 32.26
271.00 30.74
272.00 30.98
273.00 33.09
274.00 37.34
275.00 44.80
276.00 53.19
277.00 42.49
278.00 37.36
279.00 35.16
280.00 35.01
281.00 36.50
282.00 38.71
283.00 38.18
284.00 34.52
285.00 31.33
286.00 29.29
287.00 28.12
288.00 27.36
289.00 26.51
290.00 25.29
291.00 23.94
292.00 22.90
293.00 22.42
294.00 22.66
295.00 23.71
296.00 25.71
297.00 28.89
298.00 33.84
299.00 40.28
300.00 36.64
301.00 31.03
302.00 27.39
303.00 24.94
304.00 23.49
305.00 22.95
306.00 23.20
307.00 23.99
308.00 25.06
309.00 26.45
310.00 28.87
311.00 34.82
312.00 44.76
313.00 29.28
314.00 23.67
315.00 20.31
316.00 18.08
317.00 16.64
318.00 15.94
319.00 16.04
320.00 17.10
321.00 19.52
322.00 24.38
323.00 34.03
324.00 26.73
325.00 20.55
326.00 17.36
327.00 15.57
328.00 14.72
329.00 14.69
330.00 15.44
331.00 16.98
332.00 19.26
333.00 22.19
334.00 25.88
335.00 30.74
336.00 30.51
337.00 24.38
338.00 20.18
339.00 17.43
340.00 15.63
341.00 14.60
342.00 14.39
343.00 15.26
344.00 17.76
345.00 23.61
346.00 41.64
347.00 24.51
348.00 20.43
349.00 20.04
350.00 22.54
351.00 31.28
352.00 33.62
353.00 23.00
354.00 19.48
355.00 18.23
356.00 18.42
357.00 19.93
358.00 23.06
359.00 29.21
