NAME ATR4518R7_2140_X_CO_P45_02T_yyR
FREQUENCY 2140
GAIN 15.66 dBd
TILT	ELECTRICAL
COMMENT DATE 05.08.2013 +45 degrees polarized system Lever position 02T deg
HORIZONTAL 360
0.00 0.12
1.00 0.09
2.00 0.06
3.00 0.04
4.00 0.02
5.00 0.01
6.00 0.00
7.00 0.00
8.00 0.00
9.00 0.00
10.00 0.02
11.00 0.03
12.00 0.06
13.00 0.10
14.00 0.14
15.00 0.19
16.00 0.26
17.00 0.33
18.00 0.42
19.00 0.51
20.00 0.62
21.00 0.75
22.00 0.88
23.00 1.03
24.00 1.19
25.00 1.36
26.00 1.55
27.00 1.75
28.00 1.97
29.00 2.19
30.00 2.43
31.00 2.68
32.00 2.95
33.00 3.22
34.00 3.51
35.00 3.81
36.00 4.11
37.00 4.43
38.00 4.76
39.00 5.09
40.00 5.43
41.00 5.78
42.00 6.14
43.00 6.50
44.00 6.87
45.00 7.24
46.00 7.62
47.00 8.01
48.00 8.41
49.00 8.81
50.00 9.22
51.00 9.63
52.00 10.06
53.00 10.50
54.00 10.94
55.00 11.40
56.00 11.87
57.00 12.34
58.00 12.83
59.00 13.32
60.00 13.83
61.00 14.34
62.00 14.85
63.00 15.37
64.00 15.89
65.00 16.41
66.00 16.93
67.00 17.44
68.00 17.94
69.00 18.42
70.00 18.90
71.00 19.35
72.00 19.79
73.00 20.22
74.00 20.64
75.00 21.04
76.00 21.44
77.00 21.84
78.00 22.24
79.00 22.65
80.00 23.07
81.00 23.51
82.00 23.97
83.00 24.45
84.00 24.97
85.00 25.51
86.00 26.10
87.00 26.72
88.00 27.38
89.00 28.08
90.00 28.83
91.00 29.62
92.00 30.46
93.00 31.34
94.00 32.26
95.00 33.21
96.00 34.20
97.00 35.21
98.00 36.24
99.00 37.28
100.00 38.33
101.00 39.40
102.00 40.48
103.00 41.59
104.00 42.74
105.00 43.93
106.00 45.13
107.00 46.25
108.00 47.10
109.00 47.42
110.00 47.06
111.00 46.18
112.00 45.07
113.00 43.93
114.00 42.87
115.00 41.95
116.00 41.16
117.00 40.52
118.00 40.02
119.00 39.65
120.00 39.42
121.00 39.31
122.00 39.32
123.00 39.46
124.00 39.72
125.00 40.11
126.00 40.64
127.00 41.28
128.00 42.05
129.00 42.92
130.00 43.86
131.00 44.80
132.00 45.64
133.00 46.20
134.00 46.40
135.00 46.23
136.00 45.80
137.00 45.26
138.00 44.73
139.00 44.27
140.00 43.94
141.00 43.70
142.00 43.60
143.00 43.59
144.00 43.65
145.00 43.74
146.00 43.81
147.00 43.78
148.00 43.57
149.00 43.18
150.00 42.62
151.00 41.92
152.00 41.15
153.00 40.37
154.00 39.62
155.00 38.94
156.00 38.33
157.00 37.81
158.00 37.38
159.00 37.05
160.00 36.81
161.00 36.67
162.00 36.63
163.00 36.69
164.00 36.86
165.00 37.13
166.00 37.52
167.00 38.04
168.00 38.69
169.00 39.49
170.00 40.45
171.00 41.58
172.00 42.89
173.00 44.30
174.00 45.64
175.00 46.47
176.00 46.37
177.00 45.39
178.00 43.99
179.00 42.56
180.00 41.24
181.00 40.09
182.00 39.10
183.00 38.26
184.00 37.54
185.00 36.94
186.00 36.45
187.00 36.04
188.00 35.72
189.00 35.47
190.00 35.29
191.00 35.17
192.00 35.12
193.00 35.11
194.00 35.17
195.00 35.28
196.00 35.43
197.00 35.64
198.00 35.90
199.00 36.20
200.00 36.55
201.00 36.95
202.00 37.39
203.00 37.89
204.00 38.44
205.00 39.04
206.00 39.70
207.00 40.42
208.00 41.20
209.00 42.05
210.00 42.97
211.00 43.98
212.00 45.06
213.00 46.25
214.00 47.53
215.00 48.91
216.00 50.39
217.00 51.93
218.00 53.46
219.00 54.88
220.00 55.98
221.00 56.62
222.00 56.78
223.00 56.56
224.00 56.13
225.00 55.62
226.00 55.08
227.00 54.50
228.00 53.89
229.00 53.24
230.00 52.56
231.00 51.83
232.00 51.06
233.00 50.30
234.00 49.56
235.00 48.83
236.00 48.13
237.00 47.46
238.00 46.82
239.00 46.19
240.00 45.55
241.00 44.90
242.00 44.20
243.00 43.47
244.00 42.67
245.00 41.81
246.00 40.93
247.00 40.00
248.00 39.07
249.00 38.13
250.00 37.21
251.00 36.31
252.00 35.44
253.00 34.61
254.00 33.82
255.00 33.07
256.00 32.37
257.00 31.71
258.00 31.09
259.00 30.51
260.00 29.98
261.00 29.47
262.00 29.00
263.00 28.56
264.00 28.15
265.00 27.76
266.00 27.39
267.00 27.03
268.00 26.69
269.00 26.35
270.00 26.01
271.00 25.66
272.00 25.31
273.00 24.95
274.00 24.58
275.00 24.20
276.00 23.79
277.00 23.38
278.00 22.95
279.00 22.50
280.00 22.04
281.00 21.58
282.00 21.10
283.00 20.62
284.00 20.14
285.00 19.66
286.00 19.18
287.00 18.70
288.00 18.22
289.00 17.75
290.00 17.28
291.00 16.82
292.00 16.37
293.00 15.93
294.00 15.49
295.00 15.06
296.00 14.64
297.00 14.22
298.00 13.82
299.00 13.41
300.00 13.02
301.00 12.64
302.00 12.26
303.00 11.89
304.00 11.53
305.00 11.17
306.00 10.81
307.00 10.47
308.00 10.14
309.00 9.80
310.00 9.47
311.00 9.15
312.00 8.83
313.00 8.52
314.00 8.21
315.00 7.91
316.00 7.61
317.00 7.32
318.00 7.03
319.00 6.75
320.00 6.46
321.00 6.19
322.00 5.91
323.00 5.64
324.00 5.38
325.00 5.12
326.00 4.86
327.00 4.61
328.00 4.36
329.00 4.12
330.00 3.88
331.00 3.65
332.00 3.42
333.00 3.20
334.00 2.99
335.00 2.79
336.00 2.59
337.00 2.40
338.00 2.21
339.00 2.04
340.00 1.87
341.00 1.72
342.00 1.56
343.00 1.42
344.00 1.29
345.00 1.16
346.00 1.05
347.00 0.94
348.00 0.84
349.00 0.74
350.00 0.66
351.00 0.58
352.00 0.51
353.00 0.44
354.00 0.38
355.00 0.33
356.00 0.27
357.00 0.23
358.00 0.19
359.00 0.15
VERTICAL 360
0.00 1.54
1.00 0.35
2.00 0.00
3.00 0.52
4.00 2.02
5.00 4.81
6.00 9.60
7.00 19.90
8.00 23.99
9.00 15.52
10.00 14.26
11.00 16.24
12.00 21.69
13.00 22.76
14.00 17.24
15.00 15.06
16.00 15.51
17.00 18.72
18.00 27.27
19.00 26.87
20.00 19.28
21.00 16.56
22.00 16.03
23.00 17.18
24.00 19.88
25.00 23.47
26.00 25.06
27.00 23.80
28.00 22.26
29.00 21.12
30.00 20.53
31.00 20.62
32.00 21.30
33.00 22.20
34.00 22.75
35.00 22.60
36.00 21.83
37.00 20.69
38.00 19.59
39.00 18.89
40.00 18.88
41.00 19.79
42.00 22.02
43.00 26.13
44.00 30.40
45.00 28.06
46.00 25.20
47.00 24.29
48.00 24.54
49.00 25.24
50.00 25.95
51.00 26.80
52.00 28.47
53.00 32.18
54.00 40.88
55.00 40.38
56.00 33.96
57.00 32.11
58.00 32.08
59.00 32.79
60.00 33.63
61.00 34.25
62.00 34.23
63.00 33.37
64.00 32.11
65.00 31.08
66.00 30.56
67.00 30.51
68.00 30.68
69.00 30.79
70.00 30.78
71.00 30.66
72.00 30.39
73.00 29.86
74.00 29.14
75.00 28.39
76.00 27.69
77.00 27.02
78.00 26.37
79.00 25.84
80.00 25.56
81.00 25.54
82.00 25.64
83.00 25.70
84.00 25.85
85.00 26.49
86.00 28.10
87.00 30.89
88.00 34.11
89.00 35.02
90.00 32.49
91.00 29.50
92.00 28.06
93.00 28.63
94.00 31.26
95.00 35.24
96.00 37.90
97.00 36.93
98.00 34.53
99.00 33.68
100.00 35.31
101.00 39.13
102.00 42.03
103.00 41.47
104.00 39.97
105.00 39.62
106.00 42.13
107.00 48.67
108.00 52.21
109.00 50.12
110.00 45.66
111.00 42.18
112.00 41.72
113.00 43.34
114.00 45.37
115.00 46.42
116.00 46.76
117.00 49.27
118.00 48.56
119.00 41.15
120.00 37.48
121.00 36.37
122.00 36.47
123.00 36.56
124.00 36.29
125.00 36.21
126.00 36.89
127.00 38.48
128.00 40.28
129.00 40.90
130.00 40.16
131.00 39.24
132.00 39.15
133.00 40.08
134.00 41.38
135.00 41.98
136.00 41.53
137.00 40.44
138.00 39.01
139.00 37.78
140.00 37.74
141.00 39.68
142.00 42.66
143.00 42.67
144.00 41.89
145.00 43.52
146.00 47.45
147.00 50.47
148.00 50.71
149.00 53.61
150.00 50.55
151.00 44.73
152.00 43.80
153.00 47.25
154.00 52.78
155.00 48.74
156.00 40.52
157.00 35.52
158.00 33.83
159.00 35.31
160.00 40.26
161.00 45.31
162.00 45.40
163.00 46.68
164.00 45.70
165.00 44.40
166.00 41.43
167.00 38.60
168.00 38.86
169.00 41.26
170.00 41.24
171.00 41.25
172.00 41.67
173.00 37.52
174.00 34.65
175.00 34.06
176.00 34.29
177.00 34.67
178.00 35.87
179.00 37.86
180.00 39.55
181.00 42.10
182.00 49.37
183.00 72.63
184.00 50.05
185.00 49.19
186.00 49.95
187.00 48.36
188.00 45.25
189.00 42.32
190.00 40.40
191.00 39.86
192.00 40.07
193.00 39.75
194.00 39.50
195.00 40.59
196.00 41.65
197.00 41.38
198.00 42.79
199.00 48.43
200.00 54.70
201.00 57.67
202.00 48.44
203.00 40.62
204.00 37.96
205.00 38.59
206.00 42.40
207.00 44.67
208.00 39.94
209.00 37.93
210.00 39.94
211.00 44.62
212.00 39.99
213.00 35.99
214.00 35.10
215.00 36.02
216.00 37.96
217.00 38.78
218.00 36.73
219.00 34.88
220.00 34.84
221.00 36.55
222.00 39.57
223.00 43.09
224.00 46.63
225.00 51.44
226.00 51.98
227.00 44.17
228.00 39.12
229.00 35.93
230.00 33.80
231.00 32.52
232.00 32.25
233.00 33.28
234.00 35.71
235.00 38.17
236.00 38.56
237.00 39.09
238.00 42.35
239.00 52.41
240.00 52.07
241.00 44.12
242.00 41.09
243.00 38.93
244.00 37.20
245.00 36.72
246.00 37.94
247.00 40.07
248.00 41.14
249.00 41.21
250.00 40.15
251.00 38.17
252.00 37.36
253.00 38.34
254.00 40.24
255.00 41.06
256.00 40.25
257.00 39.27
258.00 38.94
259.00 38.87
260.00 38.26
261.00 37.40
262.00 36.95
263.00 37.00
264.00 37.28
265.00 37.30
266.00 36.85
267.00 36.37
268.00 36.06
269.00 35.52
270.00 34.43
271.00 33.10
272.00 32.21
273.00 32.16
274.00 32.70
275.00 32.98
276.00 32.85
277.00 33.09
278.00 34.21
279.00 36.06
280.00 37.66
281.00 37.53
282.00 36.30
283.00 35.44
284.00 35.21
285.00 35.31
286.00 35.53
287.00 36.09
288.00 37.45
289.00 40.20
290.00 45.12
291.00 52.32
292.00 52.44
293.00 45.06
294.00 38.65
295.00 34.35
296.00 31.59
297.00 29.74
298.00 28.32
299.00 27.18
300.00 26.34
301.00 25.90
302.00 25.91
303.00 26.51
304.00 27.98
305.00 30.88
306.00 36.56
307.00 41.29
308.00 34.06
309.00 29.63
310.00 27.51
311.00 27.18
312.00 29.13
313.00 35.02
314.00 33.45
315.00 25.54
316.00 21.37
317.00 18.99
318.00 17.65
319.00 17.08
320.00 17.14
321.00 17.86
322.00 19.30
323.00 21.47
324.00 24.05
325.00 25.66
326.00 25.23
327.00 23.95
328.00 22.66
329.00 21.39
330.00 20.26
331.00 19.64
332.00 20.03
333.00 21.96
334.00 26.69
335.00 36.48
336.00 29.50
337.00 24.16
338.00 22.51
339.00 23.18
340.00 26.84
341.00 35.50
342.00 28.27
343.00 22.38
344.00 20.54
345.00 21.52
346.00 25.35
347.00 26.01
348.00 21.09
349.00 18.61
350.00 18.59
351.00 20.85
352.00 25.67
353.00 30.69
354.00 34.03
355.00 33.75
356.00 18.72
357.00 11.47
358.00 6.80
359.00 3.63
