NAME ATR4518R7_2350_X_CO_M45_03T_yL
FREQUENCY 2350
GAIN 15.54 dBd
TILT	ELECTRICAL
COMMENT DATE 05.08.2013 -45 degrees polarized system Lever position 03T deg
HORIZONTAL 360
0.00 0.00
1.00 0.02
2.00 0.04
3.00 0.07
4.00 0.11
5.00 0.16
6.00 0.22
7.00 0.29
8.00 0.37
9.00 0.46
10.00 0.56
11.00 0.67
12.00 0.78
13.00 0.90
14.00 1.03
15.00 1.16
16.00 1.30
17.00 1.44
18.00 1.58
19.00 1.73
20.00 1.87
21.00 2.02
22.00 2.17
23.00 2.32
24.00 2.47
25.00 2.62
26.00 2.78
27.00 2.94
28.00 3.11
29.00 3.28
30.00 3.46
31.00 3.64
32.00 3.84
33.00 4.04
34.00 4.26
35.00 4.48
36.00 4.72
37.00 4.96
38.00 5.21
39.00 5.47
40.00 5.75
41.00 6.02
42.00 6.31
43.00 6.60
44.00 6.89
45.00 7.19
46.00 7.49
47.00 7.78
48.00 8.08
49.00 8.36
50.00 8.64
51.00 8.91
52.00 9.18
53.00 9.43
54.00 9.68
55.00 9.91
56.00 10.14
57.00 10.36
58.00 10.57
59.00 10.77
60.00 10.97
61.00 11.17
62.00 11.37
63.00 11.57
64.00 11.78
65.00 11.99
66.00 12.20
67.00 12.43
68.00 12.66
69.00 12.90
70.00 13.16
71.00 13.42
72.00 13.69
73.00 13.97
74.00 14.27
75.00 14.57
76.00 14.87
77.00 15.19
78.00 15.51
79.00 15.83
80.00 16.17
81.00 16.50
82.00 16.84
83.00 17.18
84.00 17.52
85.00 17.87
86.00 18.23
87.00 18.59
88.00 18.96
89.00 19.34
90.00 19.74
91.00 20.14
92.00 20.56
93.00 20.99
94.00 21.44
95.00 21.90
96.00 22.38
97.00 22.86
98.00 23.35
99.00 23.85
100.00 24.33
101.00 24.81
102.00 25.26
103.00 25.68
104.00 26.06
105.00 26.40
106.00 26.68
107.00 26.91
108.00 27.09
109.00 27.22
110.00 27.32
111.00 27.38
112.00 27.42
113.00 27.45
114.00 27.47
115.00 27.50
116.00 27.54
117.00 27.59
118.00 27.67
119.00 27.78
120.00 27.92
121.00 28.09
122.00 28.31
123.00 28.57
124.00 28.87
125.00 29.21
126.00 29.60
127.00 30.02
128.00 30.48
129.00 30.95
130.00 31.43
131.00 31.89
132.00 32.32
133.00 32.71
134.00 33.03
135.00 33.27
136.00 33.46
137.00 33.57
138.00 33.63
139.00 33.64
140.00 33.59
141.00 33.49
142.00 33.31
143.00 33.06
144.00 32.72
145.00 32.31
146.00 31.82
147.00 31.29
148.00 30.75
149.00 30.22
150.00 29.72
151.00 29.28
152.00 28.90
153.00 28.61
154.00 28.41
155.00 28.30
156.00 28.29
157.00 28.38
158.00 28.58
159.00 28.89
160.00 29.29
161.00 29.78
162.00 30.33
163.00 30.91
164.00 31.44
165.00 31.86
166.00 32.08
167.00 32.06
168.00 31.84
169.00 31.47
170.00 31.03
171.00 30.62
172.00 30.27
173.00 30.03
174.00 29.91
175.00 29.92
176.00 30.08
177.00 30.37
178.00 30.80
179.00 31.35
180.00 31.98
181.00 32.60
182.00 33.11
183.00 33.35
184.00 33.24
185.00 32.78
186.00 32.11
187.00 31.36
188.00 30.64
189.00 30.02
190.00 29.54
191.00 29.20
192.00 29.03
193.00 29.02
194.00 29.19
195.00 29.53
196.00 30.06
197.00 30.79
198.00 31.71
199.00 32.81
200.00 33.98
201.00 35.02
202.00 35.53
203.00 35.24
204.00 34.29
205.00 33.08
206.00 31.89
207.00 30.86
208.00 30.01
209.00 29.36
210.00 28.90
211.00 28.62
212.00 28.52
213.00 28.60
214.00 28.86
215.00 29.31
216.00 29.97
217.00 30.86
218.00 32.03
219.00 33.56
220.00 35.57
221.00 38.32
222.00 42.42
223.00 49.71
224.00 51.79
225.00 43.93
226.00 39.79
227.00 37.21
228.00 35.42
229.00 34.16
230.00 33.25
231.00 32.62
232.00 32.20
233.00 31.97
234.00 31.89
235.00 31.93
236.00 32.08
237.00 32.29
238.00 32.54
239.00 32.77
240.00 32.94
241.00 32.99
242.00 32.89
243.00 32.62
244.00 32.20
245.00 31.68
246.00 31.09
247.00 30.49
248.00 29.89
249.00 29.33
250.00 28.82
251.00 28.36
252.00 27.95
253.00 27.61
254.00 27.32
255.00 27.08
256.00 26.88
257.00 26.72
258.00 26.59
259.00 26.46
260.00 26.32
261.00 26.16
262.00 25.95
263.00 25.68
264.00 25.35
265.00 24.95
266.00 24.49
267.00 23.99
268.00 23.47
269.00 22.93
270.00 22.39
271.00 21.87
272.00 21.37
273.00 20.89
274.00 20.44
275.00 20.02
276.00 19.63
277.00 19.27
278.00 18.93
279.00 18.60
280.00 18.30
281.00 17.99
282.00 17.70
283.00 17.40
284.00 17.10
285.00 16.79
286.00 16.47
287.00 16.14
288.00 15.79
289.00 15.44
290.00 15.07
291.00 14.70
292.00 14.32
293.00 13.93
294.00 13.55
295.00 13.16
296.00 12.77
297.00 12.39
298.00 12.01
299.00 11.64
300.00 11.27
301.00 10.90
302.00 10.54
303.00 10.17
304.00 9.81
305.00 9.46
306.00 9.10
307.00 8.75
308.00 8.39
309.00 8.04
310.00 7.70
311.00 7.35
312.00 7.01
313.00 6.68
314.00 6.35
315.00 6.03
316.00 5.72
317.00 5.42
318.00 5.13
319.00 4.85
320.00 4.57
321.00 4.31
322.00 4.06
323.00 3.81
324.00 3.58
325.00 3.35
326.00 3.13
327.00 2.91
328.00 2.71
329.00 2.51
330.00 2.31
331.00 2.12
332.00 1.94
333.00 1.77
334.00 1.60
335.00 1.44
336.00 1.29
337.00 1.15
338.00 1.02
339.00 0.90
340.00 0.78
341.00 0.68
342.00 0.59
343.00 0.51
344.00 0.43
345.00 0.37
346.00 0.31
347.00 0.26
348.00 0.22
349.00 0.18
350.00 0.15
351.00 0.12
352.00 0.09
353.00 0.07
354.00 0.04
355.00 0.03
356.00 0.01
357.00 0.00
358.00 0.00
359.00 0.00
VERTICAL 360
0.00 6.08
1.00 2.77
2.00 0.82
3.00 0.00
4.00 0.27
5.00 1.74
6.00 4.85
7.00 11.16
8.00 34.71
9.00 12.72
10.00 9.29
11.00 9.45
12.00 12.44
13.00 19.22
14.00 21.30
15.00 16.22
16.00 14.74
17.00 15.55
18.00 18.38
19.00 21.67
20.00 19.25
21.00 16.62
22.00 16.61
23.00 19.90
24.00 32.27
25.00 24.89
26.00 18.81
27.00 17.07
28.00 17.24
29.00 18.62
30.00 20.80
31.00 22.25
32.00 21.42
33.00 20.74
34.00 21.55
35.00 22.26
36.00 20.56
37.00 18.97
38.00 19.02
39.00 20.72
40.00 23.61
41.00 26.97
42.00 30.77
43.00 32.64
44.00 29.02
45.00 26.32
46.00 25.55
47.00 26.44
48.00 29.12
49.00 34.30
50.00 38.06
51.00 33.48
52.00 31.05
53.00 30.42
54.00 30.42
55.00 30.15
56.00 29.23
57.00 28.26
58.00 28.00
59.00 28.58
60.00 29.55
61.00 30.34
62.00 30.83
63.00 31.07
64.00 31.04
65.00 30.81
66.00 30.94
67.00 32.20
68.00 34.90
69.00 38.39
70.00 40.55
71.00 40.68
72.00 41.48
73.00 46.35
74.00 55.74
75.00 46.75
76.00 47.96
77.00 54.77
78.00 49.38
79.00 50.26
80.00 48.84
81.00 44.74
82.00 45.94
83.00 54.86
84.00 53.94
85.00 51.63
86.00 52.52
87.00 50.92
88.00 56.87
89.00 53.55
90.00 45.00
91.00 42.93
92.00 44.02
93.00 47.37
94.00 50.47
95.00 50.51
96.00 50.72
97.00 49.27
98.00 46.79
99.00 46.04
100.00 46.52
101.00 46.24
102.00 44.01
103.00 41.34
104.00 39.88
105.00 40.07
106.00 41.74
107.00 44.49
108.00 47.62
109.00 48.74
110.00 47.06
111.00 45.54
112.00 45.05
113.00 45.63
114.00 47.59
115.00 52.24
116.00 60.91
117.00 52.03
118.00 47.22
119.00 44.70
120.00 43.96
121.00 45.08
122.00 46.29
123.00 46.46
124.00 47.76
125.00 43.35
126.00 38.32
127.00 36.02
128.00 35.32
129.00 34.96
130.00 34.86
131.00 36.07
132.00 39.63
133.00 46.39
134.00 46.49
135.00 42.38
136.00 39.99
137.00 38.36
138.00 37.78
139.00 38.70
140.00 40.94
141.00 41.77
142.00 39.82
143.00 38.78
144.00 39.23
145.00 38.86
146.00 36.88
147.00 35.96
148.00 37.23
149.00 40.80
150.00 44.55
151.00 46.14
152.00 49.84
153.00 48.41
154.00 45.44
155.00 44.28
156.00 40.11
157.00 36.65
158.00 35.48
159.00 36.16
160.00 38.01
161.00 40.47
162.00 43.66
163.00 48.28
164.00 54.37
165.00 61.70
166.00 49.43
167.00 41.56
168.00 37.30
169.00 35.19
170.00 34.62
171.00 35.10
172.00 35.15
173.00 33.57
174.00 31.88
175.00 30.96
176.00 30.67
177.00 31.07
178.00 32.75
179.00 35.84
180.00 39.45
181.00 41.73
182.00 41.93
183.00 42.14
184.00 42.16
185.00 39.12
186.00 37.46
187.00 39.29
188.00 46.80
189.00 48.45
190.00 41.70
191.00 39.28
192.00 38.53
193.00 37.85
194.00 36.33
195.00 35.89
196.00 37.84
197.00 42.41
198.00 46.14
199.00 42.70
200.00 39.61
201.00 38.78
202.00 37.94
203.00 36.21
204.00 36.39
205.00 39.33
206.00 39.85
207.00 37.01
208.00 34.86
209.00 32.85
210.00 31.89
211.00 32.09
212.00 31.98
213.00 31.58
214.00 32.67
215.00 36.43
216.00 44.35
217.00 54.85
218.00 45.38
219.00 40.28
220.00 37.63
221.00 36.95
222.00 38.20
223.00 42.14
224.00 48.72
225.00 43.30
226.00 40.78
227.00 43.54
228.00 65.86
229.00 44.87
230.00 42.47
231.00 47.57
232.00 47.57
233.00 41.79
234.00 43.04
235.00 54.13
236.00 41.15
237.00 35.73
238.00 33.63
239.00 33.38
240.00 34.82
241.00 37.00
242.00 35.18
243.00 31.85
244.00 30.16
245.00 29.87
246.00 30.29
247.00 30.94
248.00 31.98
249.00 33.90
250.00 36.97
251.00 41.14
252.00 49.85
253.00 45.04
254.00 35.02
255.00 30.49
256.00 28.33
257.00 27.45
258.00 26.88
259.00 25.97
260.00 24.83
261.00 24.00
262.00 23.74
263.00 23.89
264.00 24.01
265.00 23.73
266.00 23.06
267.00 22.15
268.00 21.16
269.00 20.21
270.00 19.49
271.00 19.15
272.00 19.21
273.00 19.46
274.00 19.61
275.00 19.44
276.00 19.05
277.00 18.68
278.00 18.49
279.00 18.49
280.00 18.56
281.00 18.58
282.00 18.52
283.00 18.30
284.00 17.96
285.00 17.62
286.00 17.48
287.00 17.73
288.00 18.42
289.00 19.43
290.00 20.41
291.00 20.90
292.00 20.83
293.00 20.67
294.00 21.01
295.00 22.28
296.00 25.01
297.00 30.17
298.00 37.29
299.00 31.61
300.00 27.42
301.00 24.95
302.00 23.21
303.00 22.30
304.00 22.55
305.00 24.18
306.00 27.13
307.00 30.91
308.00 35.22
309.00 34.99
310.00 28.24
311.00 24.10
312.00 22.44
313.00 23.11
314.00 26.61
315.00 31.50
316.00 26.63
317.00 23.04
318.00 21.90
319.00 22.39
320.00 24.16
321.00 27.53
322.00 36.48
323.00 32.98
324.00 23.39
325.00 19.10
326.00 17.25
327.00 17.29
328.00 19.10
329.00 22.14
330.00 23.65
331.00 22.65
332.00 21.57
333.00 20.43
334.00 18.91
335.00 17.57
336.00 17.10
337.00 18.07
338.00 21.26
339.00 28.98
340.00 29.20
341.00 22.76
342.00 20.74
343.00 21.34
344.00 25.31
345.00 42.10
346.00 25.25
347.00 20.21
348.00 18.95
349.00 20.10
350.00 22.77
351.00 23.39
352.00 21.38
353.00 20.50
354.00 21.36
355.00 23.05
356.00 25.09
357.00 37.90
358.00 20.45
359.00 11.32
