NAME ATR4518R7_0880_X_CO_M45_05T
FREQUENCY 0880
GAIN 14.80 dBd
TILT	ELECTRICAL
COMMENT DATE 05.08.2013 -45 degrees polarized system Lever position 05T deg
HORIZONTAL 360
0.00 0.01
1.00 0.01
2.00 0.00
3.00 0.01
4.00 0.02
5.00 0.04
6.00 0.06
7.00 0.09
8.00 0.13
9.00 0.17
10.00 0.22
11.00 0.28
12.00 0.35
13.00 0.42
14.00 0.50
15.00 0.58
16.00 0.67
17.00 0.77
18.00 0.88
19.00 0.99
20.00 1.11
21.00 1.24
22.00 1.37
23.00 1.51
24.00 1.65
25.00 1.81
26.00 1.97
27.00 2.14
28.00 2.31
29.00 2.49
30.00 2.68
31.00 2.88
32.00 3.08
33.00 3.29
34.00 3.50
35.00 3.72
36.00 3.95
37.00 4.19
38.00 4.43
39.00 4.68
40.00 4.93
41.00 5.20
42.00 5.47
43.00 5.74
44.00 6.02
45.00 6.31
46.00 6.61
47.00 6.91
48.00 7.21
49.00 7.53
50.00 7.85
51.00 8.17
52.00 8.51
53.00 8.84
54.00 9.19
55.00 9.54
56.00 9.90
57.00 10.26
58.00 10.63
59.00 11.01
60.00 11.39
61.00 11.77
62.00 12.17
63.00 12.57
64.00 12.97
65.00 13.38
66.00 13.80
67.00 14.22
68.00 14.65
69.00 15.09
70.00 15.53
71.00 15.98
72.00 16.43
73.00 16.89
74.00 17.35
75.00 17.82
76.00 18.30
77.00 18.78
78.00 19.27
79.00 19.76
80.00 20.26
81.00 20.76
82.00 21.27
83.00 21.77
84.00 22.29
85.00 22.80
86.00 23.32
87.00 23.83
88.00 24.34
89.00 24.86
90.00 25.36
91.00 25.87
92.00 26.36
93.00 26.85
94.00 27.33
95.00 27.79
96.00 28.24
97.00 28.68
98.00 29.10
99.00 29.50
100.00 29.88
101.00 30.25
102.00 30.59
103.00 30.92
104.00 31.23
105.00 31.53
106.00 31.80
107.00 32.07
108.00 32.32
109.00 32.57
110.00 32.80
111.00 33.03
112.00 33.25
113.00 33.47
114.00 33.68
115.00 33.89
116.00 34.10
117.00 34.32
118.00 34.53
119.00 34.74
120.00 34.96
121.00 35.17
122.00 35.39
123.00 35.61
124.00 35.83
125.00 36.05
126.00 36.28
127.00 36.50
128.00 36.73
129.00 36.97
130.00 37.19
131.00 37.42
132.00 37.66
133.00 37.89
134.00 38.13
135.00 38.36
136.00 38.59
137.00 38.83
138.00 39.06
139.00 39.30
140.00 39.53
141.00 39.77
142.00 40.00
143.00 40.24
144.00 40.47
145.00 40.71
146.00 40.94
147.00 41.18
148.00 41.40
149.00 41.63
150.00 41.86
151.00 42.09
152.00 42.31
153.00 42.52
154.00 42.72
155.00 42.90
156.00 43.08
157.00 43.26
158.00 43.41
159.00 43.53
160.00 43.65
161.00 43.75
162.00 43.81
163.00 43.85
164.00 43.88
165.00 43.88
166.00 43.87
167.00 43.82
168.00 43.76
169.00 43.70
170.00 43.61
171.00 43.52
172.00 43.42
173.00 43.31
174.00 43.21
175.00 43.09
176.00 43.00
177.00 42.90
178.00 42.79
179.00 42.71
180.00 42.61
181.00 42.55
182.00 42.49
183.00 42.43
184.00 42.36
185.00 42.33
186.00 42.28
187.00 42.27
188.00 42.25
189.00 42.24
190.00 42.23
191.00 42.23
192.00 42.23
193.00 42.24
194.00 42.26
195.00 42.29
196.00 42.32
197.00 42.36
198.00 42.40
199.00 42.47
200.00 42.52
201.00 42.61
202.00 42.69
203.00 42.80
204.00 42.93
205.00 43.06
206.00 43.23
207.00 43.42
208.00 43.64
209.00 43.90
210.00 44.17
211.00 44.50
212.00 44.86
213.00 45.29
214.00 45.78
215.00 46.32
216.00 46.94
217.00 47.67
218.00 48.50
219.00 49.43
220.00 50.54
221.00 51.80
222.00 53.32
223.00 54.91
224.00 56.54
225.00 57.59
226.00 57.37
227.00 56.08
228.00 54.29
229.00 52.54
230.00 50.92
231.00 49.53
232.00 48.31
233.00 47.22
234.00 46.23
235.00 45.36
236.00 44.58
237.00 43.85
238.00 43.18
239.00 42.55
240.00 41.94
241.00 41.37
242.00 40.80
243.00 40.24
244.00 39.68
245.00 39.10
246.00 38.51
247.00 37.91
248.00 37.27
249.00 36.63
250.00 35.95
251.00 35.26
252.00 34.56
253.00 33.85
254.00 33.13
255.00 32.40
256.00 31.68
257.00 30.95
258.00 30.24
259.00 29.53
260.00 28.84
261.00 28.15
262.00 27.48
263.00 26.82
264.00 26.17
265.00 25.54
266.00 24.92
267.00 24.32
268.00 23.73
269.00 23.16
270.00 22.60
271.00 22.05
272.00 21.52
273.00 21.00
274.00 20.50
275.00 20.00
276.00 19.52
277.00 19.04
278.00 18.58
279.00 18.13
280.00 17.69
281.00 17.26
282.00 16.84
283.00 16.43
284.00 16.02
285.00 15.63
286.00 15.24
287.00 14.86
288.00 14.49
289.00 14.12
290.00 13.76
291.00 13.41
292.00 13.06
293.00 12.72
294.00 12.38
295.00 12.05
296.00 11.73
297.00 11.41
298.00 11.09
299.00 10.78
300.00 10.47
301.00 10.17
302.00 9.87
303.00 9.58
304.00 9.29
305.00 9.00
306.00 8.72
307.00 8.44
308.00 8.16
309.00 7.89
310.00 7.62
311.00 7.36
312.00 7.10
313.00 6.84
314.00 6.59
315.00 6.34
316.00 6.09
317.00 5.85
318.00 5.61
319.00 5.38
320.00 5.15
321.00 4.93
322.00 4.70
323.00 4.49
324.00 4.27
325.00 4.06
326.00 3.86
327.00 3.66
328.00 3.46
329.00 3.27
330.00 3.08
331.00 2.90
332.00 2.72
333.00 2.55
334.00 2.39
335.00 2.22
336.00 2.07
337.00 1.92
338.00 1.77
339.00 1.63
340.00 1.49
341.00 1.36
342.00 1.24
343.00 1.12
344.00 1.01
345.00 0.90
346.00 0.80
347.00 0.70
348.00 0.61
349.00 0.53
350.00 0.45
351.00 0.38
352.00 0.31
353.00 0.25
354.00 0.20
355.00 0.15
356.00 0.11
357.00 0.08
358.00 0.05
359.00 0.03
VERTICAL 360
0.00 5.03
1.00 3.17
2.00 1.78
3.00 0.80
4.00 0.22
5.00 0.00
6.00 0.14
7.00 0.63
8.00 1.48
9.00 2.73
10.00 4.44
11.00 6.74
12.00 9.81
13.00 14.06
14.00 20.50
15.00 31.07
16.00 26.20
17.00 22.73
18.00 22.23
19.00 23.68
20.00 27.40
21.00 34.98
22.00 30.97
23.00 24.99
24.00 22.03
25.00 20.71
26.00 20.56
27.00 21.47
28.00 23.47
29.00 26.86
30.00 32.56
31.00 38.42
32.00 32.34
33.00 28.44
34.00 26.61
35.00 26.08
36.00 26.38
37.00 26.61
38.00 25.44
39.00 23.18
40.00 21.06
41.00 19.51
42.00 18.51
43.00 17.90
44.00 17.57
45.00 17.48
46.00 17.69
47.00 18.32
48.00 19.47
49.00 21.28
50.00 23.83
51.00 27.20
52.00 31.43
53.00 36.65
54.00 40.79
55.00 37.03
56.00 32.65
57.00 29.75
58.00 28.05
59.00 27.43
60.00 27.82
61.00 29.14
62.00 31.02
63.00 32.45
64.00 32.52
65.00 31.89
66.00 31.47
67.00 31.53
68.00 31.76
69.00 31.36
70.00 30.28
71.00 29.34
72.00 29.08
73.00 29.61
74.00 30.70
75.00 31.56
76.00 30.82
77.00 28.78
78.00 26.89
79.00 25.73
80.00 25.39
81.00 25.78
82.00 26.56
83.00 26.82
84.00 26.72
85.00 26.44
86.00 25.95
87.00 25.52
88.00 25.70
89.00 26.15
90.00 26.45
91.00 26.60
92.00 26.64
93.00 26.40
94.00 25.91
95.00 25.74
96.00 26.04
97.00 26.78
98.00 27.91
99.00 29.37
100.00 30.81
101.00 31.57
102.00 31.48
103.00 31.08
104.00 30.82
105.00 30.99
106.00 31.83
107.00 33.41
108.00 35.26
109.00 36.22
110.00 35.78
111.00 34.70
112.00 33.73
113.00 33.32
114.00 33.72
115.00 34.91
116.00 36.52
117.00 37.59
118.00 37.32
119.00 36.23
120.00 35.33
121.00 35.12
122.00 35.63
123.00 36.57
124.00 37.22
125.00 36.88
126.00 35.82
127.00 34.82
128.00 34.43
129.00 34.78
130.00 35.75
131.00 36.91
132.00 37.63
133.00 37.58
134.00 37.05
135.00 36.66
136.00 36.84
137.00 37.63
138.00 38.58
139.00 38.90
140.00 38.38
141.00 37.49
142.00 36.71
143.00 36.28
144.00 36.30
145.00 36.72
146.00 37.24
147.00 37.34
148.00 36.58
149.00 35.26
150.00 34.05
151.00 33.31
152.00 32.99
153.00 32.84
154.00 32.61
155.00 32.24
156.00 31.91
157.00 31.97
158.00 32.70
159.00 34.13
160.00 35.39
161.00 34.87
162.00 33.28
163.00 32.15
164.00 31.90
165.00 32.44
166.00 33.60
167.00 35.11
168.00 36.90
169.00 39.34
170.00 43.54
171.00 51.47
172.00 47.95
173.00 43.48
174.00 42.11
175.00 42.49
176.00 42.79
177.00 43.72
178.00 44.25
179.00 43.44
180.00 41.78
181.00 40.03
182.00 38.72
183.00 38.03
184.00 37.97
185.00 38.22
186.00 38.12
187.00 37.13
188.00 35.67
189.00 34.26
190.00 33.11
191.00 32.21
192.00 31.54
193.00 31.06
194.00 30.74
195.00 30.62
196.00 30.75
197.00 31.25
198.00 32.24
199.00 33.87
200.00 36.28
201.00 39.34
202.00 41.14
203.00 39.41
204.00 36.89
205.00 35.12
206.00 34.12
207.00 33.72
208.00 33.76
209.00 34.15
210.00 34.88
211.00 36.02
212.00 37.67
213.00 39.91
214.00 42.82
215.00 46.48
216.00 51.77
217.00 57.34
218.00 48.35
219.00 42.98
220.00 40.05
221.00 38.54
222.00 37.90
223.00 37.62
224.00 37.22
225.00 36.45
226.00 35.51
227.00 34.80
228.00 34.60
229.00 34.95
230.00 35.73
231.00 36.67
232.00 37.59
233.00 38.57
234.00 39.99
235.00 42.54
236.00 47.42
237.00 52.78
238.00 47.62
239.00 44.79
240.00 44.42
241.00 45.41
242.00 46.46
243.00 46.13
244.00 44.35
245.00 42.64
246.00 42.17
247.00 43.51
248.00 47.19
249.00 52.06
250.00 49.96
251.00 45.77
252.00 42.07
253.00 39.25
254.00 37.59
255.00 36.91
256.00 36.76
257.00 36.78
258.00 36.82
259.00 36.71
260.00 36.28
261.00 35.77
262.00 35.62
263.00 35.86
264.00 36.09
265.00 36.24
266.00 36.81
267.00 38.21
268.00 40.35
269.00 42.66
270.00 45.17
271.00 47.91
272.00 47.73
273.00 46.23
274.00 46.89
275.00 49.65
276.00 49.85
277.00 48.53
278.00 50.83
279.00 52.99
280.00 45.45
281.00 41.23
282.00 39.22
283.00 38.21
284.00 37.44
285.00 36.64
286.00 35.90
287.00 35.29
288.00 34.79
289.00 34.47
290.00 34.34
291.00 34.30
292.00 34.23
293.00 34.29
294.00 34.86
295.00 36.30
296.00 38.03
297.00 37.45
298.00 34.91
299.00 32.89
300.00 31.76
301.00 31.17
302.00 30.66
303.00 29.94
304.00 29.08
305.00 28.43
306.00 28.37
307.00 29.24
308.00 31.18
309.00 33.28
310.00 32.13
311.00 28.82
312.00 25.93
313.00 23.66
314.00 21.79
315.00 20.18
316.00 18.80
317.00 17.70
318.00 16.92
319.00 16.52
320.00 16.51
321.00 16.92
322.00 17.76
323.00 19.09
324.00 20.96
325.00 23.45
326.00 26.68
327.00 30.91
328.00 35.91
329.00 36.69
330.00 33.70
331.00 31.82
332.00 31.33
333.00 32.13
334.00 34.54
335.00 39.77
336.00 51.02
337.00 40.85
338.00 35.93
339.00 33.14
340.00 30.62
341.00 27.95
342.00 25.49
343.00 23.55
344.00 22.25
345.00 21.68
346.00 21.96
347.00 23.35
348.00 26.48
349.00 32.89
350.00 33.42
351.00 26.99
352.00 24.22
353.00 23.83
354.00 25.42
355.00 25.54
356.00 19.84
357.00 14.52
358.00 10.52
359.00 7.44
