NAME ATR4518R7_1850_X_CO_M45_01T_yL
FREQUENCY 1850
GAIN 15.30 dBd
TILT	ELECTRICAL
COMMENT DATE 05.08.2013 -45 degrees polarized system Lever position 01T deg
HORIZONTAL 360
0.00 0.09
1.00 0.06
2.00 0.03
3.00 0.01
4.00 0.00
5.00 0.00
6.00 0.00
7.00 0.01
8.00 0.03
9.00 0.06
10.00 0.09
11.00 0.14
12.00 0.19
13.00 0.25
14.00 0.32
15.00 0.40
16.00 0.49
17.00 0.58
18.00 0.68
19.00 0.79
20.00 0.90
21.00 1.03
22.00 1.16
23.00 1.29
24.00 1.43
25.00 1.58
26.00 1.73
27.00 1.89
28.00 2.06
29.00 2.23
30.00 2.41
31.00 2.59
32.00 2.78
33.00 2.97
34.00 3.17
35.00 3.37
36.00 3.58
37.00 3.79
38.00 4.01
39.00 4.24
40.00 4.46
41.00 4.70
42.00 4.93
43.00 5.17
44.00 5.42
45.00 5.67
46.00 5.92
47.00 6.17
48.00 6.43
49.00 6.69
50.00 6.96
51.00 7.23
52.00 7.50
53.00 7.77
54.00 8.05
55.00 8.33
56.00 8.61
57.00 8.90
58.00 9.19
59.00 9.49
60.00 9.79
61.00 10.10
62.00 10.41
63.00 10.73
64.00 11.06
65.00 11.40
66.00 11.75
67.00 12.11
68.00 12.48
69.00 12.87
70.00 13.26
71.00 13.67
72.00 14.09
73.00 14.52
74.00 14.97
75.00 15.43
76.00 15.91
77.00 16.39
78.00 16.89
79.00 17.40
80.00 17.91
81.00 18.43
82.00 18.95
83.00 19.47
84.00 19.98
85.00 20.49
86.00 20.98
87.00 21.45
88.00 21.91
89.00 22.34
90.00 22.75
91.00 23.13
92.00 23.50
93.00 23.84
94.00 24.18
95.00 24.51
96.00 24.85
97.00 25.19
98.00 25.55
99.00 25.93
100.00 26.33
101.00 26.75
102.00 27.20
103.00 27.66
104.00 28.14
105.00 28.60
106.00 29.04
107.00 29.43
108.00 29.73
109.00 29.94
110.00 30.04
111.00 30.03
112.00 29.93
113.00 29.77
114.00 29.58
115.00 29.39
116.00 29.22
117.00 29.08
118.00 28.99
119.00 28.96
120.00 28.98
121.00 29.04
122.00 29.14
123.00 29.26
124.00 29.37
125.00 29.44
126.00 29.42
127.00 29.30
128.00 29.05
129.00 28.69
130.00 28.21
131.00 27.67
132.00 27.10
133.00 26.52
134.00 25.97
135.00 25.47
136.00 25.01
137.00 24.62
138.00 24.31
139.00 24.06
140.00 23.89
141.00 23.80
142.00 23.80
143.00 23.87
144.00 24.03
145.00 24.27
146.00 24.61
147.00 25.03
148.00 25.55
149.00 26.16
150.00 26.87
151.00 27.65
152.00 28.50
153.00 29.37
154.00 30.19
155.00 30.86
156.00 31.28
157.00 31.38
158.00 31.18
159.00 30.77
160.00 30.27
161.00 29.76
162.00 29.30
163.00 28.92
164.00 28.65
165.00 28.49
166.00 28.45
167.00 28.54
168.00 28.76
169.00 29.11
170.00 29.61
171.00 30.27
172.00 31.11
173.00 32.13
174.00 33.37
175.00 34.83
176.00 36.46
177.00 38.01
178.00 38.97
179.00 38.75
180.00 37.56
181.00 36.06
182.00 34.62
183.00 33.39
184.00 32.38
185.00 31.57
186.00 30.95
187.00 30.49
188.00 30.19
189.00 30.04
190.00 30.03
191.00 30.17
192.00 30.45
193.00 30.89
194.00 31.51
195.00 32.33
196.00 33.40
197.00 34.81
198.00 36.67
199.00 39.25
200.00 43.17
201.00 50.35
202.00 51.97
203.00 43.78
204.00 39.34
205.00 36.42
206.00 34.28
207.00 32.62
208.00 31.30
209.00 30.23
210.00 29.37
211.00 28.67
212.00 28.12
213.00 27.70
214.00 27.40
215.00 27.22
216.00 27.16
217.00 27.21
218.00 27.38
219.00 27.67
220.00 28.10
221.00 28.68
222.00 29.44
223.00 30.39
224.00 31.58
225.00 33.06
226.00 34.84
227.00 36.81
228.00 38.33
229.00 38.17
230.00 36.38
231.00 34.17
232.00 32.15
233.00 30.44
234.00 29.01
235.00 27.80
236.00 26.79
237.00 25.93
238.00 25.20
239.00 24.60
240.00 24.09
241.00 23.67
242.00 23.32
243.00 23.04
244.00 22.82
245.00 22.64
246.00 22.50
247.00 22.39
248.00 22.29
249.00 22.19
250.00 22.09
251.00 21.98
252.00 21.84
253.00 21.68
254.00 21.48
255.00 21.26
256.00 21.00
257.00 20.73
258.00 20.44
259.00 20.14
260.00 19.84
261.00 19.53
262.00 19.23
263.00 18.94
264.00 18.67
265.00 18.40
266.00 18.14
267.00 17.90
268.00 17.66
269.00 17.44
270.00 17.21
271.00 16.99
272.00 16.77
273.00 16.55
274.00 16.32
275.00 16.08
276.00 15.83
277.00 15.57
278.00 15.30
279.00 15.02
280.00 14.73
281.00 14.43
282.00 14.13
283.00 13.82
284.00 13.50
285.00 13.18
286.00 12.86
287.00 12.55
288.00 12.24
289.00 11.93
290.00 11.63
291.00 11.34
292.00 11.05
293.00 10.77
294.00 10.50
295.00 10.24
296.00 9.98
297.00 9.73
298.00 9.49
299.00 9.26
300.00 9.03
301.00 8.80
302.00 8.58
303.00 8.36
304.00 8.15
305.00 7.94
306.00 7.73
307.00 7.52
308.00 7.32
309.00 7.12
310.00 6.91
311.00 6.71
312.00 6.51
313.00 6.31
314.00 6.12
315.00 5.92
316.00 5.73
317.00 5.54
318.00 5.34
319.00 5.16
320.00 4.97
321.00 4.78
322.00 4.60
323.00 4.41
324.00 4.23
325.00 4.05
326.00 3.86
327.00 3.68
328.00 3.51
329.00 3.33
330.00 3.16
331.00 2.98
332.00 2.82
333.00 2.65
334.00 2.49
335.00 2.34
336.00 2.19
337.00 2.04
338.00 1.90
339.00 1.77
340.00 1.64
341.00 1.52
342.00 1.40
343.00 1.29
344.00 1.18
345.00 1.08
346.00 0.99
347.00 0.90
348.00 0.81
349.00 0.73
350.00 0.66
351.00 0.58
352.00 0.51
353.00 0.44
354.00 0.38
355.00 0.32
356.00 0.27
357.00 0.21
358.00 0.17
359.00 0.12
VERTICAL 360
0.00 0.46
1.00 0.00
2.00 0.24
3.00 1.24
4.00 3.12
5.00 6.19
6.00 11.23
7.00 22.18
8.00 22.38
9.00 15.42
10.00 14.14
11.00 15.80
12.00 21.08
13.00 24.14
14.00 16.79
15.00 13.22
16.00 11.80
17.00 11.88
18.00 13.34
19.00 16.30
20.00 20.10
21.00 19.91
22.00 17.34
23.00 16.16
24.00 16.55
25.00 18.46
26.00 22.10
27.00 26.43
28.00 23.85
29.00 19.87
30.00 17.61
31.00 16.66
32.00 16.66
33.00 17.37
34.00 18.61
35.00 20.23
36.00 22.15
37.00 24.00
38.00 24.81
39.00 24.18
40.00 22.96
41.00 21.68
42.00 20.44
43.00 19.40
44.00 18.71
45.00 18.48
46.00 18.72
47.00 19.43
48.00 20.63
49.00 22.45
50.00 25.12
51.00 29.16
52.00 35.23
53.00 36.58
54.00 31.58
55.00 28.44
56.00 26.68
57.00 25.84
58.00 25.67
59.00 25.93
60.00 26.34
61.00 26.72
62.00 27.05
63.00 27.50
64.00 28.23
65.00 29.31
66.00 30.58
67.00 31.83
68.00 32.85
69.00 33.64
70.00 34.51
71.00 35.91
72.00 38.30
73.00 42.37
74.00 47.27
75.00 42.65
76.00 38.19
77.00 36.09
78.00 35.49
79.00 35.66
80.00 35.83
81.00 35.43
82.00 34.48
83.00 33.64
84.00 33.61
85.00 34.56
86.00 35.94
87.00 37.04
88.00 38.82
89.00 44.31
90.00 54.05
91.00 40.44
92.00 36.57
93.00 35.46
94.00 35.83
95.00 37.19
96.00 39.40
97.00 41.95
98.00 43.04
99.00 42.42
100.00 41.71
101.00 41.37
102.00 41.66
103.00 42.81
104.00 44.52
105.00 46.11
106.00 48.05
107.00 51.29
108.00 52.96
109.00 51.07
110.00 50.29
111.00 50.74
112.00 50.69
113.00 49.36
114.00 47.90
115.00 47.18
116.00 46.41
117.00 44.24
118.00 41.91
119.00 40.74
120.00 40.97
121.00 42.59
122.00 45.55
123.00 49.05
124.00 49.84
125.00 50.25
126.00 56.09
127.00 51.43
128.00 43.53
129.00 40.06
130.00 38.83
131.00 38.99
132.00 39.87
133.00 40.80
134.00 41.43
135.00 41.96
136.00 42.86
137.00 44.28
138.00 45.31
139.00 44.59
140.00 42.92
141.00 41.32
142.00 39.97
143.00 38.84
144.00 37.80
145.00 36.83
146.00 36.19
147.00 36.34
148.00 37.66
149.00 40.05
150.00 41.33
151.00 40.04
152.00 39.42
153.00 40.72
154.00 42.78
155.00 42.20
156.00 41.42
157.00 43.76
158.00 49.13
159.00 42.69
160.00 38.41
161.00 37.16
162.00 37.48
163.00 37.65
164.00 36.97
165.00 36.78
166.00 38.01
167.00 40.00
168.00 39.39
169.00 36.68
170.00 34.72
171.00 33.89
172.00 34.05
173.00 34.96
174.00 36.13
175.00 36.49
176.00 35.50
177.00 33.70
178.00 32.21
179.00 31.57
180.00 31.73
181.00 33.24
182.00 36.40
183.00 41.87
184.00 51.10
185.00 74.44
186.00 59.40
187.00 53.43
188.00 46.66
189.00 40.01
190.00 35.66
191.00 33.52
192.00 33.38
193.00 35.20
194.00 39.08
195.00 44.51
196.00 47.88
197.00 46.92
198.00 44.63
199.00 43.62
200.00 42.41
201.00 38.94
202.00 36.07
203.00 34.97
204.00 35.44
205.00 36.81
206.00 38.15
207.00 39.20
208.00 39.83
209.00 38.64
210.00 36.31
211.00 34.36
212.00 33.00
213.00 31.98
214.00 31.17
215.00 30.54
216.00 30.10
217.00 29.89
218.00 30.06
219.00 30.81
220.00 32.27
221.00 34.42
222.00 36.83
223.00 38.81
224.00 40.53
225.00 42.93
226.00 44.46
227.00 40.77
228.00 36.95
229.00 34.80
230.00 34.11
231.00 34.55
232.00 35.70
233.00 36.72
234.00 36.73
235.00 35.80
236.00 34.68
237.00 33.95
238.00 33.95
239.00 34.87
240.00 36.74
241.00 39.09
242.00 40.29
243.00 39.54
244.00 38.22
245.00 37.14
246.00 36.44
247.00 36.15
248.00 36.23
249.00 36.67
250.00 37.53
251.00 39.00
252.00 41.42
253.00 44.63
254.00 45.23
255.00 42.44
256.00 40.18
257.00 38.82
258.00 37.82
259.00 36.72
260.00 35.34
261.00 33.92
262.00 32.81
263.00 32.24
264.00 32.22
265.00 32.60
266.00 33.10
267.00 33.42
268.00 33.38
269.00 32.94
270.00 32.23
271.00 31.42
272.00 30.69
273.00 30.10
274.00 29.65
275.00 29.27
276.00 28.95
277.00 28.73
278.00 28.72
279.00 29.04
280.00 29.77
281.00 30.86
282.00 32.07
283.00 33.03
284.00 33.60
285.00 34.03
286.00 34.49
287.00 34.70
288.00 34.13
289.00 32.54
290.00 30.30
291.00 27.90
292.00 25.75
293.00 24.05
294.00 22.92
295.00 22.36
296.00 22.27
297.00 22.46
298.00 22.79
299.00 23.23
300.00 23.92
301.00 24.95
302.00 26.08
303.00 26.41
304.00 25.42
305.00 23.89
306.00 22.48
307.00 21.27
308.00 20.25
309.00 19.48
310.00 19.05
311.00 18.97
312.00 19.19
313.00 19.64
314.00 20.29
315.00 21.18
316.00 22.30
317.00 23.47
318.00 24.27
319.00 24.37
320.00 23.77
321.00 22.66
322.00 21.34
323.00 20.15
324.00 19.34
325.00 19.09
326.00 19.59
327.00 21.06
328.00 23.86
329.00 27.84
330.00 27.58
331.00 23.69
332.00 21.20
333.00 20.24
334.00 20.71
335.00 22.88
336.00 28.15
337.00 42.80
338.00 27.16
339.00 22.06
340.00 19.94
341.00 19.80
342.00 21.91
343.00 28.76
344.00 33.47
345.00 21.96
346.00 17.99
347.00 16.50
348.00 16.69
349.00 18.47
350.00 22.27
351.00 29.25
352.00 32.19
353.00 26.60
354.00 20.87
355.00 14.88
356.00 9.99
357.00 6.27
358.00 3.54
359.00 1.63
