NAME ATR4518R7_1750_X_CO_M45_08T_yL
FREQUENCY 1750
GAIN 14.50 dBd
TILT	ELECTRICAL
COMMENT DATE 05.08.2013 -45 degrees polarized system Lever position 08T deg
HORIZONTAL 360
0.00 0.05
1.00 0.03
2.00 0.01
3.00 0.01
4.00 0.00
5.00 0.01
6.00 0.02
7.00 0.03
8.00 0.06
9.00 0.09
10.00 0.13
11.00 0.17
12.00 0.22
13.00 0.28
14.00 0.34
15.00 0.41
16.00 0.49
17.00 0.57
18.00 0.66
19.00 0.75
20.00 0.85
21.00 0.96
22.00 1.07
23.00 1.18
24.00 1.30
25.00 1.42
26.00 1.55
27.00 1.68
28.00 1.81
29.00 1.94
30.00 2.08
31.00 2.22
32.00 2.37
33.00 2.51
34.00 2.66
35.00 2.81
36.00 2.96
37.00 3.12
38.00 3.28
39.00 3.43
40.00 3.60
41.00 3.76
42.00 3.93
43.00 4.10
44.00 4.27
45.00 4.45
46.00 4.63
47.00 4.81
48.00 4.99
49.00 5.18
50.00 5.37
51.00 5.56
52.00 5.76
53.00 5.96
54.00 6.17
55.00 6.37
56.00 6.59
57.00 6.80
58.00 7.03
59.00 7.25
60.00 7.48
61.00 7.72
62.00 7.97
63.00 8.22
64.00 8.48
65.00 8.74
66.00 9.01
67.00 9.29
68.00 9.58
69.00 9.87
70.00 10.17
71.00 10.48
72.00 10.80
73.00 11.12
74.00 11.45
75.00 11.78
76.00 12.12
77.00 12.46
78.00 12.80
79.00 13.14
80.00 13.49
81.00 13.83
82.00 14.17
83.00 14.50
84.00 14.83
85.00 15.15
86.00 15.46
87.00 15.76
88.00 16.06
89.00 16.34
90.00 16.62
91.00 16.88
92.00 17.14
93.00 17.40
94.00 17.65
95.00 17.89
96.00 18.13
97.00 18.37
98.00 18.61
99.00 18.85
100.00 19.08
101.00 19.32
102.00 19.55
103.00 19.79
104.00 20.02
105.00 20.24
106.00 20.46
107.00 20.67
108.00 20.87
109.00 21.06
110.00 21.25
111.00 21.43
112.00 21.60
113.00 21.76
114.00 21.93
115.00 22.09
116.00 22.27
117.00 22.45
118.00 22.64
119.00 22.84
120.00 23.05
121.00 23.28
122.00 23.52
123.00 23.76
124.00 24.00
125.00 24.23
126.00 24.44
127.00 24.62
128.00 24.76
129.00 24.85
130.00 24.90
131.00 24.89
132.00 24.84
133.00 24.75
134.00 24.64
135.00 24.53
136.00 24.42
137.00 24.32
138.00 24.26
139.00 24.24
140.00 24.27
141.00 24.35
142.00 24.49
143.00 24.70
144.00 24.97
145.00 25.31
146.00 25.72
147.00 26.19
148.00 26.71
149.00 27.27
150.00 27.84
151.00 28.37
152.00 28.82
153.00 29.13
154.00 29.26
155.00 29.21
156.00 29.00
157.00 28.68
158.00 28.30
159.00 27.92
160.00 27.57
161.00 27.28
162.00 27.06
163.00 26.93
164.00 26.89
165.00 26.94
166.00 27.09
167.00 27.33
168.00 27.67
169.00 28.09
170.00 28.57
171.00 29.09
172.00 29.61
173.00 30.05
174.00 30.34
175.00 30.41
176.00 30.22
177.00 29.82
178.00 29.27
179.00 28.65
180.00 28.03
181.00 27.45
182.00 26.93
183.00 26.51
184.00 26.17
185.00 25.93
186.00 25.79
187.00 25.76
188.00 25.84
189.00 26.02
190.00 26.33
191.00 26.76
192.00 27.33
193.00 28.05
194.00 28.94
195.00 30.04
196.00 31.36
197.00 32.94
198.00 34.73
199.00 36.48
200.00 37.49
201.00 37.01
202.00 35.45
203.00 33.65
204.00 32.02
205.00 30.64
206.00 29.49
207.00 28.55
208.00 27.80
209.00 27.20
210.00 26.74
211.00 26.41
212.00 26.20
213.00 26.11
214.00 26.13
215.00 26.27
216.00 26.53
217.00 26.91
218.00 27.44
219.00 28.12
220.00 28.99
221.00 30.08
222.00 31.46
223.00 33.21
224.00 35.44
225.00 38.19
226.00 40.60
227.00 39.97
228.00 37.03
229.00 34.18
230.00 31.87
231.00 30.00
232.00 28.48
233.00 27.21
234.00 26.14
235.00 25.24
236.00 24.47
237.00 23.83
238.00 23.29
239.00 22.84
240.00 22.47
241.00 22.17
242.00 21.95
243.00 21.78
244.00 21.67
245.00 21.60
246.00 21.58
247.00 21.60
248.00 21.64
249.00 21.70
250.00 21.76
251.00 21.81
252.00 21.84
253.00 21.84
254.00 21.79
255.00 21.68
256.00 21.52
257.00 21.31
258.00 21.04
259.00 20.74
260.00 20.40
261.00 20.05
262.00 19.68
263.00 19.31
264.00 18.94
265.00 18.58
266.00 18.23
267.00 17.89
268.00 17.56
269.00 17.24
270.00 16.93
271.00 16.63
272.00 16.34
273.00 16.05
274.00 15.76
275.00 15.47
276.00 15.18
277.00 14.88
278.00 14.57
279.00 14.26
280.00 13.94
281.00 13.61
282.00 13.27
283.00 12.94
284.00 12.59
285.00 12.25
286.00 11.90
287.00 11.55
288.00 11.21
289.00 10.87
290.00 10.53
291.00 10.21
292.00 9.89
293.00 9.58
294.00 9.27
295.00 8.98
296.00 8.69
297.00 8.42
298.00 8.16
299.00 7.90
300.00 7.66
301.00 7.42
302.00 7.19
303.00 6.98
304.00 6.77
305.00 6.57
306.00 6.37
307.00 6.18
308.00 6.00
309.00 5.82
310.00 5.65
311.00 5.49
312.00 5.32
313.00 5.17
314.00 5.02
315.00 4.87
316.00 4.72
317.00 4.58
318.00 4.45
319.00 4.31
320.00 4.18
321.00 4.05
322.00 3.92
323.00 3.79
324.00 3.66
325.00 3.53
326.00 3.40
327.00 3.27
328.00 3.14
329.00 3.01
330.00 2.88
331.00 2.75
332.00 2.61
333.00 2.48
334.00 2.35
335.00 2.21
336.00 2.08
337.00 1.95
338.00 1.81
339.00 1.69
340.00 1.56
341.00 1.44
342.00 1.32
343.00 1.21
344.00 1.09
345.00 0.99
346.00 0.89
347.00 0.80
348.00 0.71
349.00 0.62
350.00 0.54
351.00 0.47
352.00 0.40
353.00 0.34
354.00 0.28
355.00 0.23
356.00 0.18
357.00 0.14
358.00 0.11
359.00 0.08
VERTICAL 360
0.00 42.37
1.00 22.00
2.00 13.64
3.00 8.63
4.00 5.23
5.00 2.86
6.00 1.28
7.00 0.35
8.00 0.00
9.00 0.24
10.00 1.10
11.00 2.68
12.00 5.21
13.00 9.13
14.00 15.72
15.00 24.22
16.00 17.06
17.00 13.88
18.00 13.18
19.00 14.10
20.00 16.61
21.00 21.18
22.00 25.29
23.00 21.14
24.00 17.91
25.00 16.72
26.00 17.15
27.00 19.21
28.00 23.24
29.00 27.29
30.00 23.94
31.00 20.57
32.00 18.95
33.00 18.61
34.00 19.49
35.00 21.91
36.00 27.33
37.00 40.19
38.00 26.66
39.00 21.80
40.00 19.69
41.00 18.99
42.00 19.21
43.00 20.15
44.00 21.80
45.00 24.17
46.00 26.63
47.00 26.75
48.00 24.49
49.00 22.18
50.00 20.38
51.00 18.98
52.00 17.86
53.00 17.02
54.00 16.49
55.00 16.32
56.00 16.52
57.00 17.08
58.00 17.97
59.00 19.13
60.00 20.51
61.00 21.96
62.00 23.38
63.00 24.70
64.00 26.05
65.00 27.66
66.00 29.74
67.00 32.28
68.00 34.90
69.00 36.96
70.00 38.44
71.00 39.93
72.00 41.82
73.00 44.06
74.00 46.46
75.00 50.25
76.00 56.98
77.00 48.23
78.00 42.86
79.00 40.30
80.00 39.06
81.00 38.30
82.00 37.63
83.00 37.00
84.00 36.31
85.00 35.31
86.00 33.91
87.00 32.68
88.00 32.45
89.00 33.89
90.00 37.66
91.00 41.15
92.00 38.58
93.00 38.06
94.00 41.86
95.00 42.31
96.00 35.80
97.00 32.87
98.00 32.18
99.00 32.83
100.00 34.15
101.00 35.84
102.00 37.89
103.00 39.22
104.00 38.52
105.00 37.44
106.00 37.29
107.00 38.33
108.00 40.80
109.00 45.50
110.00 55.30
111.00 58.88
112.00 53.38
113.00 50.68
114.00 46.90
115.00 43.70
116.00 41.35
117.00 39.68
118.00 38.89
119.00 39.22
120.00 40.80
121.00 43.31
122.00 44.51
123.00 42.43
124.00 40.01
125.00 38.66
126.00 38.31
127.00 38.42
128.00 38.33
129.00 38.16
130.00 38.57
131.00 39.71
132.00 40.66
133.00 40.36
134.00 39.76
135.00 40.02
136.00 41.49
137.00 44.26
138.00 48.21
139.00 50.23
140.00 47.15
141.00 44.10
142.00 42.27
143.00 41.48
144.00 41.57
145.00 42.49
146.00 44.25
147.00 47.04
148.00 51.55
149.00 55.46
150.00 48.90
151.00 43.69
152.00 40.48
153.00 38.61
154.00 37.62
155.00 36.85
156.00 35.70
157.00 34.29
158.00 33.15
159.00 32.51
160.00 32.32
161.00 32.35
162.00 32.43
163.00 32.53
164.00 32.77
165.00 33.27
166.00 33.76
167.00 33.36
168.00 31.71
169.00 29.74
170.00 28.09
171.00 26.90
172.00 26.17
173.00 25.96
174.00 26.37
175.00 27.51
176.00 29.46
177.00 32.26
178.00 35.87
179.00 40.58
180.00 48.68
181.00 47.01
182.00 40.13
183.00 37.45
184.00 36.53
185.00 35.20
186.00 32.74
187.00 30.66
188.00 29.73
189.00 30.01
190.00 31.34
191.00 33.47
192.00 35.80
193.00 36.78
194.00 35.45
195.00 33.60
196.00 32.54
197.00 32.68
198.00 34.05
199.00 36.18
200.00 37.00
201.00 35.74
202.00 34.69
203.00 34.87
204.00 36.58
205.00 40.52
206.00 49.27
207.00 47.50
208.00 41.20
209.00 38.04
210.00 35.19
211.00 32.20
212.00 29.71
213.00 28.01
214.00 27.15
215.00 27.01
216.00 27.42
217.00 28.14
218.00 28.88
219.00 29.50
220.00 30.15
221.00 31.17
222.00 32.98
223.00 35.99
224.00 40.52
225.00 43.48
226.00 41.41
227.00 40.36
228.00 41.66
229.00 45.90
230.00 53.58
231.00 51.03
232.00 49.08
233.00 50.65
234.00 48.63
235.00 43.72
236.00 40.74
237.00 39.46
238.00 39.46
239.00 40.48
240.00 42.27
241.00 44.46
242.00 46.20
243.00 46.12
244.00 44.63
245.00 43.30
246.00 42.70
247.00 42.78
248.00 43.21
249.00 43.75
250.00 44.50
251.00 46.08
252.00 49.00
253.00 51.60
254.00 49.82
255.00 47.41
256.00 45.98
257.00 45.48
258.00 46.13
259.00 46.65
260.00 44.38
261.00 42.01
262.00 41.71
263.00 44.05
264.00 47.79
265.00 45.00
266.00 42.08
267.00 41.62
268.00 42.77
269.00 43.86
270.00 43.25
271.00 41.36
272.00 39.03
273.00 37.02
274.00 35.92
275.00 35.97
276.00 36.99
277.00 37.62
278.00 35.96
279.00 33.46
280.00 31.57
281.00 30.41
282.00 29.73
283.00 29.22
284.00 28.66
285.00 28.05
286.00 27.55
287.00 27.32
288.00 27.38
289.00 27.64
290.00 27.92
291.00 28.13
292.00 28.26
293.00 28.29
294.00 28.12
295.00 27.62
296.00 26.87
297.00 26.06
298.00 25.32
299.00 24.64
300.00 23.87
301.00 22.98
302.00 22.09
303.00 21.43
304.00 21.18
305.00 21.46
306.00 22.34
307.00 23.81
308.00 25.59
309.00 26.62
310.00 25.65
311.00 23.44
312.00 21.22
313.00 19.46
314.00 18.30
315.00 17.79
316.00 17.95
317.00 18.81
318.00 20.45
319.00 22.99
320.00 26.05
321.00 25.63
322.00 21.79
323.00 18.67
324.00 16.74
325.00 15.83
326.00 15.77
327.00 16.48
328.00 17.93
329.00 20.22
330.00 23.67
331.00 28.77
332.00 32.21
333.00 29.43
334.00 27.94
335.00 28.75
336.00 31.67
337.00 33.89
338.00 30.49
339.00 27.12
340.00 25.19
341.00 24.38
342.00 24.43
343.00 24.95
344.00 25.15
345.00 24.57
346.00 23.81
347.00 23.70
348.00 24.49
349.00 25.45
350.00 24.63
351.00 22.38
352.00 20.66
353.00 20.19
354.00 21.25
355.00 24.48
356.00 32.33
357.00 33.36
358.00 26.92
359.00 27.04
