NAME ATR4518R7_2535_X_CO_P45_06T_yL
FREQUENCY 2535
GAIN 15.69 dBd
TILT	ELECTRICAL
COMMENT DATE 05.08.2013 +45 degrees polarized system Lever position 06T deg
HORIZONTAL 360
0.00 0.09
1.00 0.06
2.00 0.03
3.00 0.01
4.00 0.00
5.00 0.00
6.00 0.01
7.00 0.03
8.00 0.06
9.00 0.10
10.00 0.15
11.00 0.21
12.00 0.30
13.00 0.39
14.00 0.49
15.00 0.61
16.00 0.74
17.00 0.87
18.00 1.03
19.00 1.19
20.00 1.35
21.00 1.52
22.00 1.71
23.00 1.90
24.00 2.08
25.00 2.27
26.00 2.47
27.00 2.66
28.00 2.85
29.00 3.05
30.00 3.24
31.00 3.44
32.00 3.63
33.00 3.83
34.00 4.02
35.00 4.22
36.00 4.42
37.00 4.62
38.00 4.83
39.00 5.04
40.00 5.26
41.00 5.48
42.00 5.71
43.00 5.94
44.00 6.19
45.00 6.45
46.00 6.70
47.00 6.97
48.00 7.24
49.00 7.52
50.00 7.81
51.00 8.09
52.00 8.38
53.00 8.67
54.00 8.97
55.00 9.27
56.00 9.56
57.00 9.86
58.00 10.14
59.00 10.44
60.00 10.72
61.00 11.00
62.00 11.29
63.00 11.56
64.00 11.85
65.00 12.15
66.00 12.45
67.00 12.74
68.00 13.03
69.00 13.32
70.00 13.61
71.00 13.90
72.00 14.18
73.00 14.46
74.00 14.72
75.00 14.99
76.00 15.24
77.00 15.50
78.00 15.73
79.00 15.96
80.00 16.18
81.00 16.40
82.00 16.60
83.00 16.81
84.00 17.00
85.00 17.21
86.00 17.42
87.00 17.63
88.00 17.85
89.00 18.09
90.00 18.33
91.00 18.60
92.00 18.88
93.00 19.18
94.00 19.51
95.00 19.85
96.00 20.20
97.00 20.58
98.00 20.96
99.00 21.36
100.00 21.76
101.00 22.16
102.00 22.57
103.00 22.96
104.00 23.35
105.00 23.73
106.00 24.10
107.00 24.47
108.00 24.83
109.00 25.19
110.00 25.56
111.00 25.95
112.00 26.35
113.00 26.78
114.00 27.23
115.00 27.71
116.00 28.23
117.00 28.79
118.00 29.36
119.00 29.97
120.00 30.60
121.00 31.23
122.00 31.87
123.00 32.46
124.00 33.01
125.00 33.48
126.00 33.85
127.00 34.10
128.00 34.23
129.00 34.25
130.00 34.17
131.00 34.02
132.00 33.82
133.00 33.59
134.00 33.36
135.00 33.13
136.00 32.92
137.00 32.73
138.00 32.57
139.00 32.45
140.00 32.37
141.00 32.32
142.00 32.32
143.00 32.37
144.00 32.47
145.00 32.63
146.00 32.85
147.00 33.14
148.00 33.51
149.00 33.97
150.00 34.52
151.00 35.17
152.00 35.94
153.00 36.81
154.00 37.80
155.00 38.88
156.00 39.99
157.00 41.06
158.00 41.93
159.00 42.44
160.00 42.53
161.00 42.28
162.00 41.85
163.00 41.37
164.00 40.94
165.00 40.59
166.00 40.32
167.00 40.12
168.00 39.96
169.00 39.80
170.00 39.63
171.00 39.40
172.00 39.15
173.00 38.87
174.00 38.60
175.00 38.37
176.00 38.23
177.00 38.18
178.00 38.29
179.00 38.55
180.00 39.01
181.00 39.70
182.00 40.66
183.00 41.96
184.00 43.68
185.00 45.96
186.00 48.92
187.00 52.14
188.00 52.97
189.00 50.65
190.00 48.21
191.00 46.50
192.00 45.43
193.00 44.89
194.00 44.72
195.00 44.70
196.00 44.46
197.00 43.55
198.00 41.91
199.00 39.88
200.00 37.82
201.00 35.92
202.00 34.24
203.00 32.78
204.00 31.52
205.00 30.47
206.00 29.59
207.00 28.87
208.00 28.32
209.00 27.92
210.00 27.66
211.00 27.55
212.00 27.59
213.00 27.78
214.00 28.13
215.00 28.63
216.00 29.32
217.00 30.19
218.00 31.24
219.00 32.47
220.00 33.79
221.00 34.97
222.00 35.65
223.00 35.50
224.00 34.66
225.00 33.51
226.00 32.38
227.00 31.38
228.00 30.56
229.00 29.93
230.00 29.47
231.00 29.18
232.00 29.03
233.00 29.04
234.00 29.18
235.00 29.44
236.00 29.82
237.00 30.31
238.00 30.88
239.00 31.51
240.00 32.15
241.00 32.74
242.00 33.23
243.00 33.54
244.00 33.65
245.00 33.56
246.00 33.32
247.00 33.00
248.00 32.64
249.00 32.28
250.00 31.93
251.00 31.58
252.00 31.21
253.00 30.79
254.00 30.31
255.00 29.73
256.00 29.07
257.00 28.33
258.00 27.53
259.00 26.71
260.00 25.89
261.00 25.08
262.00 24.31
263.00 23.60
264.00 22.96
265.00 22.37
266.00 21.85
267.00 21.41
268.00 21.03
269.00 20.72
270.00 20.46
271.00 20.27
272.00 20.13
273.00 20.03
274.00 19.97
275.00 19.94
276.00 19.93
277.00 19.91
278.00 19.87
279.00 19.81
280.00 19.71
281.00 19.57
282.00 19.38
283.00 19.14
284.00 18.86
285.00 18.54
286.00 18.21
287.00 17.87
288.00 17.52
289.00 17.17
290.00 16.83
291.00 16.50
292.00 16.18
293.00 15.87
294.00 15.57
295.00 15.27
296.00 14.97
297.00 14.69
298.00 14.39
299.00 14.08
300.00 13.75
301.00 13.43
302.00 13.12
303.00 12.81
304.00 12.49
305.00 12.17
306.00 11.85
307.00 11.52
308.00 11.20
309.00 10.87
310.00 10.55
311.00 10.23
312.00 9.89
313.00 9.56
314.00 9.22
315.00 8.88
316.00 8.54
317.00 8.18
318.00 7.82
319.00 7.47
320.00 7.10
321.00 6.74
322.00 6.39
323.00 6.03
324.00 5.69
325.00 5.35
326.00 5.04
327.00 4.72
328.00 4.42
329.00 4.15
330.00 3.88
331.00 3.63
332.00 3.38
333.00 3.16
334.00 2.94
335.00 2.73
336.00 2.54
337.00 2.35
338.00 2.17
339.00 2.00
340.00 1.84
341.00 1.68
342.00 1.53
343.00 1.39
344.00 1.25
345.00 1.13
346.00 1.01
347.00 0.90
348.00 0.80
349.00 0.71
350.00 0.62
351.00 0.54
352.00 0.48
353.00 0.41
354.00 0.35
355.00 0.30
356.00 0.24
357.00 0.21
358.00 0.16
359.00 0.12
VERTICAL 360
0.00 19.50
1.00 13.70
2.00 8.48
3.00 4.60
4.00 1.95
5.00 0.42
6.00 0.00
7.00 0.77
8.00 3.01
9.00 7.59
10.00 18.78
11.00 17.46
12.00 11.25
13.00 10.70
14.00 13.56
15.00 19.92
16.00 17.10
17.00 13.05
18.00 12.35
19.00 14.41
20.00 20.34
21.00 28.82
22.00 20.14
23.00 18.19
24.00 20.61
25.00 32.50
26.00 25.17
27.00 19.07
28.00 17.92
29.00 19.66
30.00 24.63
31.00 29.71
32.00 22.51
33.00 18.52
34.00 16.99
35.00 17.34
36.00 19.60
37.00 24.03
38.00 29.06
39.00 28.78
40.00 27.69
41.00 26.99
42.00 26.37
43.00 26.62
44.00 27.37
45.00 26.81
46.00 25.36
47.00 24.83
48.00 26.10
49.00 30.15
50.00 35.21
51.00 30.10
52.00 27.33
53.00 27.25
54.00 28.37
55.00 28.92
56.00 28.09
57.00 26.90
58.00 26.71
59.00 28.35
60.00 32.42
61.00 39.98
62.00 46.59
63.00 40.66
64.00 37.05
65.00 34.80
66.00 34.11
67.00 35.40
68.00 38.38
69.00 41.39
70.00 42.07
71.00 40.92
72.00 41.88
73.00 46.29
74.00 46.41
75.00 47.60
76.00 51.46
77.00 45.87
78.00 48.76
79.00 51.72
80.00 44.07
81.00 44.98
82.00 48.84
83.00 47.83
84.00 44.93
85.00 40.56
86.00 39.93
87.00 41.90
88.00 41.89
89.00 45.79
90.00 43.88
91.00 35.95
92.00 34.58
93.00 37.74
94.00 42.80
95.00 41.32
96.00 42.61
97.00 48.41
98.00 50.14
99.00 42.48
100.00 38.13
101.00 36.91
102.00 37.91
103.00 39.52
104.00 39.93
105.00 38.87
106.00 36.84
107.00 35.29
108.00 34.94
109.00 35.44
110.00 35.66
111.00 34.53
112.00 32.49
113.00 30.96
114.00 30.52
115.00 30.91
116.00 31.30
117.00 31.08
118.00 30.44
119.00 29.79
120.00 29.15
121.00 28.86
122.00 29.58
123.00 31.73
124.00 35.12
125.00 39.35
126.00 47.34
127.00 47.62
128.00 39.85
129.00 37.47
130.00 36.30
131.00 34.79
132.00 33.71
133.00 33.62
134.00 34.06
135.00 34.60
136.00 35.54
137.00 36.61
138.00 35.89
139.00 33.84
140.00 32.53
141.00 32.50
142.00 33.44
143.00 34.76
144.00 35.94
145.00 37.35
146.00 39.68
147.00 40.43
148.00 38.06
149.00 36.50
150.00 36.08
151.00 36.31
152.00 37.11
153.00 37.51
154.00 36.23
155.00 34.33
156.00 33.32
157.00 34.03
158.00 36.64
159.00 39.19
160.00 39.80
161.00 41.20
162.00 42.37
163.00 41.56
164.00 41.07
165.00 40.13
166.00 38.34
167.00 37.42
168.00 38.51
169.00 41.62
170.00 45.76
171.00 45.36
172.00 42.81
173.00 42.67
174.00 45.96
175.00 50.12
176.00 45.33
177.00 41.56
178.00 39.02
179.00 36.67
180.00 34.68
181.00 33.96
182.00 35.01
183.00 36.27
184.00 36.22
185.00 36.06
186.00 36.49
187.00 38.41
188.00 43.90
189.00 44.01
190.00 40.38
191.00 42.25
192.00 52.69
193.00 51.13
194.00 46.32
195.00 45.29
196.00 43.49
197.00 41.26
198.00 40.38
199.00 41.31
200.00 42.59
201.00 42.71
202.00 42.85
203.00 45.07
204.00 58.89
205.00 42.53
206.00 36.77
207.00 35.32
208.00 36.23
209.00 38.44
210.00 42.01
211.00 43.70
212.00 39.86
213.00 38.19
214.00 38.24
215.00 38.32
216.00 38.60
217.00 39.90
218.00 42.91
219.00 51.81
220.00 44.22
221.00 36.95
222.00 33.68
223.00 32.27
224.00 31.79
225.00 31.80
226.00 32.36
227.00 33.95
228.00 36.87
229.00 40.88
230.00 44.71
231.00 45.06
232.00 42.09
233.00 39.90
234.00 39.12
235.00 39.10
236.00 39.20
237.00 39.41
238.00 40.20
239.00 42.08
240.00 44.97
241.00 46.61
242.00 45.69
243.00 44.56
244.00 43.68
245.00 42.81
246.00 41.72
247.00 39.75
248.00 37.16
249.00 35.20
250.00 34.56
251.00 35.42
252.00 37.81
253.00 41.36
254.00 43.19
255.00 42.07
256.00 41.88
257.00 42.78
258.00 42.56
259.00 42.02
260.00 42.87
261.00 42.80
262.00 39.92
263.00 37.20
264.00 35.11
265.00 33.39
266.00 32.35
267.00 32.60
268.00 34.65
269.00 38.10
270.00 37.57
271.00 33.62
272.00 30.56
273.00 28.80
274.00 28.32
275.00 28.96
276.00 30.50
277.00 32.90
278.00 35.81
279.00 37.45
280.00 36.73
281.00 35.15
282.00 33.95
283.00 33.49
284.00 33.34
285.00 33.08
286.00 33.00
287.00 33.81
288.00 36.61
289.00 42.29
290.00 39.19
291.00 33.51
292.00 29.83
293.00 26.97
294.00 24.44
295.00 21.97
296.00 19.53
297.00 17.28
298.00 15.32
299.00 13.70
300.00 12.46
301.00 11.57
302.00 11.04
303.00 10.83
304.00 10.96
305.00 11.51
306.00 12.61
307.00 14.45
308.00 17.34
309.00 21.64
310.00 24.70
311.00 21.44
312.00 18.58
313.00 17.53
314.00 18.18
315.00 20.97
316.00 28.79
317.00 30.96
318.00 20.71
319.00 17.01
320.00 15.86
321.00 16.75
322.00 20.17
323.00 29.76
324.00 29.44
325.00 21.63
326.00 19.91
327.00 21.68
328.00 29.67
329.00 29.56
330.00 20.50
331.00 17.35
332.00 16.58
333.00 17.70
334.00 21.33
335.00 31.64
336.00 27.86
337.00 22.08
338.00 22.03
339.00 27.37
340.00 28.98
341.00 21.16
342.00 18.75
343.00 19.62
344.00 24.73
345.00 38.80
346.00 22.57
347.00 18.88
348.00 18.89
349.00 22.37
350.00 33.83
351.00 30.05
352.00 25.27
353.00 26.52
354.00 29.75
355.00 24.79
356.00 20.90
357.00 19.58
358.00 20.10
359.00 21.45
