NAME ATR4518R7_2655_X_CO_M45_09T_yyR
FREQUENCY 2655
GAIN 15.54 dBd
TILT	ELECTRICAL
COMMENT DATE 05.08.2013 -45 degrees polarized system Lever position 09T deg
HORIZONTAL 360
0.00 0.00
1.00 0.00
2.00 0.03
3.00 0.06
4.00 0.10
5.00 0.16
6.00 0.23
7.00 0.30
8.00 0.40
9.00 0.50
10.00 0.62
11.00 0.75
12.00 0.87
13.00 1.01
14.00 1.16
15.00 1.31
16.00 1.46
17.00 1.62
18.00 1.78
19.00 1.93
20.00 2.09
21.00 2.25
22.00 2.40
23.00 2.56
24.00 2.72
25.00 2.88
26.00 3.04
27.00 3.20
28.00 3.37
29.00 3.55
30.00 3.73
31.00 3.92
32.00 4.12
33.00 4.33
34.00 4.55
35.00 4.78
36.00 5.02
37.00 5.28
38.00 5.54
39.00 5.83
40.00 6.11
41.00 6.41
42.00 6.73
43.00 7.04
44.00 7.37
45.00 7.72
46.00 8.08
47.00 8.45
48.00 8.82
49.00 9.21
50.00 9.60
51.00 9.99
52.00 10.41
53.00 10.82
54.00 11.25
55.00 11.70
56.00 12.15
57.00 12.62
58.00 13.11
59.00 13.60
60.00 14.10
61.00 14.62
62.00 15.15
63.00 15.68
64.00 16.21
65.00 16.73
66.00 17.25
67.00 17.75
68.00 18.24
69.00 18.72
70.00 19.18
71.00 19.63
72.00 20.09
73.00 20.53
74.00 20.98
75.00 21.47
76.00 21.98
77.00 22.53
78.00 23.12
79.00 23.76
80.00 24.46
81.00 25.20
82.00 26.00
83.00 26.82
84.00 27.65
85.00 28.41
86.00 29.06
87.00 29.53
88.00 29.79
89.00 29.85
90.00 29.75
91.00 29.55
92.00 29.33
93.00 29.12
94.00 28.98
95.00 28.91
96.00 28.94
97.00 29.07
98.00 29.30
99.00 29.63
100.00 30.07
101.00 30.61
102.00 31.24
103.00 31.94
104.00 32.68
105.00 33.42
106.00 34.10
107.00 34.66
108.00 35.07
109.00 35.32
110.00 35.44
111.00 35.49
112.00 35.54
113.00 35.65
114.00 35.88
115.00 36.26
116.00 36.84
117.00 37.64
118.00 38.72
119.00 40.13
120.00 41.90
121.00 43.95
122.00 45.65
123.00 45.68
124.00 43.98
125.00 41.86
126.00 40.02
127.00 38.52
128.00 37.37
129.00 36.51
130.00 35.90
131.00 35.51
132.00 35.32
133.00 35.32
134.00 35.52
135.00 35.90
136.00 36.48
137.00 37.28
138.00 38.31
139.00 39.62
140.00 41.24
141.00 43.24
142.00 45.62
143.00 48.06
144.00 49.28
145.00 48.26
146.00 46.28
147.00 44.45
148.00 42.99
149.00 41.89
150.00 41.06
151.00 40.47
152.00 40.08
153.00 39.84
154.00 39.73
155.00 39.73
156.00 39.81
157.00 39.96
158.00 40.15
159.00 40.37
160.00 40.58
161.00 40.79
162.00 40.98
163.00 41.13
164.00 41.26
165.00 41.37
166.00 41.45
167.00 41.51
168.00 41.54
169.00 41.53
170.00 41.44
171.00 41.25
172.00 40.92
173.00 40.46
174.00 39.87
175.00 39.20
176.00 38.49
177.00 37.78
178.00 37.12
179.00 36.52
180.00 36.01
181.00 35.62
182.00 35.33
183.00 35.18
184.00 35.16
185.00 35.28
186.00 35.55
187.00 35.99
188.00 36.61
189.00 37.41
190.00 38.40
191.00 39.57
192.00 40.83
193.00 42.01
194.00 42.74
195.00 42.74
196.00 42.05
197.00 41.05
198.00 40.03
199.00 39.15
200.00 38.44
201.00 37.93
202.00 37.58
203.00 37.39
204.00 37.30
205.00 37.27
206.00 37.25
207.00 37.20
208.00 37.06
209.00 36.80
210.00 36.45
211.00 36.04
212.00 35.61
213.00 35.22
214.00 34.90
215.00 34.70
216.00 34.62
217.00 34.70
218.00 34.95
219.00 35.38
220.00 36.02
221.00 36.87
222.00 37.90
223.00 39.02
224.00 39.95
225.00 40.25
226.00 39.60
227.00 38.29
228.00 36.78
229.00 35.33
230.00 34.06
231.00 32.98
232.00 32.09
233.00 31.36
234.00 30.80
235.00 30.37
236.00 30.06
237.00 29.87
238.00 29.79
239.00 29.79
240.00 29.89
241.00 30.05
242.00 30.27
243.00 30.54
244.00 30.84
245.00 31.15
246.00 31.46
247.00 31.74
248.00 31.99
249.00 32.20
250.00 32.37
251.00 32.51
252.00 32.64
253.00 32.76
254.00 32.90
255.00 33.08
256.00 33.30
257.00 33.59
258.00 33.94
259.00 34.39
260.00 34.91
261.00 35.53
262.00 36.20
263.00 36.88
264.00 37.50
265.00 37.89
266.00 37.89
267.00 37.42
268.00 36.52
269.00 35.38
270.00 34.13
271.00 32.88
272.00 31.69
273.00 30.56
274.00 29.52
275.00 28.55
276.00 27.66
277.00 26.83
278.00 26.06
279.00 25.35
280.00 24.68
281.00 24.06
282.00 23.48
283.00 22.92
284.00 22.40
285.00 21.91
286.00 21.43
287.00 20.97
288.00 20.53
289.00 20.09
290.00 19.67
291.00 19.25
292.00 18.84
293.00 18.43
294.00 18.03
295.00 17.63
296.00 17.23
297.00 16.82
298.00 16.42
299.00 16.02
300.00 15.62
301.00 15.21
302.00 14.81
303.00 14.41
304.00 14.01
305.00 13.59
306.00 13.18
307.00 12.77
308.00 12.34
309.00 11.93
310.00 11.51
311.00 11.08
312.00 10.65
313.00 10.23
314.00 9.80
315.00 9.38
316.00 8.96
317.00 8.53
318.00 8.11
319.00 7.70
320.00 7.28
321.00 6.88
322.00 6.47
323.00 6.09
324.00 5.71
325.00 5.33
326.00 4.98
327.00 4.63
328.00 4.30
329.00 3.97
330.00 3.67
331.00 3.38
332.00 3.11
333.00 2.84
334.00 2.60
335.00 2.37
336.00 2.15
337.00 1.95
338.00 1.77
339.00 1.60
340.00 1.44
341.00 1.29
342.00 1.15
343.00 1.03
344.00 0.91
345.00 0.81
346.00 0.71
347.00 0.62
348.00 0.53
349.00 0.45
350.00 0.39
351.00 0.32
352.00 0.25
353.00 0.20
354.00 0.14
355.00 0.10
356.00 0.06
357.00 0.03
358.00 0.01
359.00 0.00
VERTICAL 360
0.00 22.99
1.00 21.67
2.00 22.07
3.00 21.70
4.00 15.15
5.00 9.05
6.00 4.81
7.00 2.02
8.00 0.44
9.00 0.00
10.00 0.79
11.00 3.09
12.00 7.77
13.00 20.04
14.00 18.18
15.00 11.98
16.00 12.15
17.00 17.45
18.00 32.89
19.00 16.33
20.00 13.20
21.00 13.82
22.00 17.98
23.00 29.01
24.00 22.67
25.00 17.78
26.00 17.89
27.00 22.91
28.00 42.82
29.00 21.54
30.00 17.81
31.00 17.50
32.00 19.61
33.00 24.58
34.00 29.37
35.00 25.08
36.00 23.10
37.00 23.47
38.00 23.22
39.00 21.39
40.00 20.39
41.00 20.85
42.00 22.40
43.00 25.35
44.00 31.46
45.00 32.98
46.00 28.06
47.00 27.77
48.00 31.44
49.00 41.05
50.00 38.56
51.00 31.71
52.00 28.09
53.00 25.61
54.00 24.32
55.00 24.53
56.00 26.38
57.00 29.87
58.00 35.01
59.00 43.54
60.00 50.28
61.00 37.30
62.00 32.84
63.00 31.40
64.00 32.09
65.00 34.09
66.00 35.40
67.00 35.06
68.00 34.79
69.00 35.39
70.00 36.44
71.00 36.57
72.00 35.81
73.00 35.73
74.00 36.40
75.00 36.85
76.00 37.41
77.00 39.09
78.00 41.29
79.00 41.30
80.00 38.81
81.00 36.90
82.00 36.66
83.00 36.64
84.00 35.39
85.00 35.44
86.00 40.18
87.00 51.97
88.00 35.88
89.00 31.33
90.00 29.57
91.00 29.70
92.00 31.56
93.00 33.71
94.00 33.37
95.00 32.52
96.00 32.62
97.00 33.17
98.00 34.31
99.00 36.38
100.00 37.53
101.00 37.10
102.00 38.01
103.00 42.03
104.00 50.27
105.00 49.36
106.00 44.56
107.00 40.26
108.00 37.22
109.00 36.47
110.00 37.93
111.00 40.93
112.00 43.46
113.00 43.18
114.00 41.08
115.00 39.04
116.00 37.42
117.00 36.56
118.00 36.89
119.00 38.52
120.00 41.53
121.00 47.16
122.00 62.40
123.00 47.49
124.00 43.31
125.00 45.41
126.00 59.06
127.00 43.79
128.00 39.93
129.00 40.29
130.00 41.29
131.00 40.02
132.00 38.07
133.00 37.07
134.00 38.02
135.00 40.52
136.00 41.11
137.00 41.50
138.00 45.79
139.00 47.89
140.00 45.87
141.00 48.88
142.00 43.37
143.00 39.43
144.00 40.33
145.00 44.92
146.00 46.76
147.00 45.69
148.00 42.64
149.00 40.69
150.00 43.30
151.00 45.30
152.00 41.93
153.00 42.17
154.00 38.27
155.00 34.12
156.00 33.46
157.00 35.89
158.00 39.33
159.00 37.90
160.00 36.24
161.00 37.83
162.00 43.25
163.00 44.12
164.00 42.21
165.00 42.85
166.00 40.02
167.00 38.22
168.00 39.84
169.00 42.52
170.00 38.98
171.00 36.01
172.00 36.37
173.00 40.20
174.00 41.57
175.00 37.16
176.00 34.23
177.00 32.49
178.00 32.29
179.00 33.81
180.00 35.91
181.00 36.85
182.00 37.48
183.00 38.43
184.00 39.18
185.00 39.23
186.00 37.97
187.00 35.68
188.00 33.21
189.00 31.54
190.00 31.31
191.00 32.83
192.00 36.39
193.00 40.08
194.00 37.01
195.00 33.88
196.00 33.34
197.00 35.16
198.00 38.57
199.00 40.62
200.00 39.08
201.00 36.69
202.00 36.56
203.00 40.04
204.00 43.64
205.00 41.91
206.00 41.94
207.00 38.41
208.00 36.05
209.00 37.93
210.00 45.24
211.00 49.34
212.00 48.95
213.00 46.70
214.00 40.74
215.00 38.64
216.00 39.94
217.00 48.38
218.00 44.92
219.00 37.96
220.00 37.25
221.00 39.26
222.00 41.30
223.00 45.21
224.00 57.61
225.00 49.68
226.00 49.95
227.00 41.86
228.00 35.96
229.00 33.53
230.00 32.81
231.00 33.08
232.00 34.54
233.00 37.89
234.00 42.43
235.00 41.51
236.00 39.00
237.00 38.35
238.00 38.45
239.00 38.26
240.00 37.65
241.00 37.33
242.00 38.47
243.00 42.78
244.00 50.85
245.00 42.76
246.00 38.09
247.00 36.14
248.00 35.42
249.00 35.38
250.00 35.99
251.00 37.57
252.00 39.80
253.00 40.35
254.00 38.42
255.00 36.05
256.00 34.25
257.00 33.46
258.00 33.61
259.00 34.15
260.00 34.31
261.00 33.87
262.00 33.59
263.00 34.54
264.00 37.33
265.00 41.03
266.00 39.86
267.00 35.00
268.00 31.03
269.00 28.74
270.00 28.06
271.00 28.54
272.00 29.47
273.00 30.36
274.00 31.56
275.00 33.38
276.00 35.01
277.00 34.84
278.00 33.24
279.00 31.85
280.00 31.45
281.00 31.90
282.00 32.33
283.00 31.93
284.00 30.94
285.00 30.39
286.00 31.09
287.00 33.28
288.00 36.94
289.00 41.20
290.00 40.51
291.00 38.42
292.00 38.22
293.00 37.24
294.00 34.97
295.00 32.55
296.00 30.16
297.00 28.43
298.00 27.79
299.00 28.28
300.00 29.29
301.00 29.66
302.00 29.94
303.00 30.85
304.00 28.46
305.00 23.57
306.00 19.64
307.00 16.67
308.00 14.30
309.00 12.27
310.00 10.56
311.00 9.31
312.00 8.62
313.00 8.66
314.00 9.68
315.00 12.09
316.00 16.98
317.00 29.73
318.00 23.80
319.00 17.52
320.00 15.61
321.00 15.73
322.00 17.92
323.00 24.22
324.00 35.43
325.00 21.65
326.00 18.35
327.00 18.62
328.00 22.84
329.00 35.88
330.00 23.07
331.00 18.75
332.00 19.07
333.00 24.53
334.00 28.67
335.00 19.70
336.00 16.98
337.00 17.97
338.00 26.32
339.00 25.98
340.00 16.30
341.00 12.61
342.00 11.47
343.00 12.28
344.00 15.15
345.00 21.44
346.00 32.81
347.00 20.59
348.00 18.34
349.00 20.83
350.00 30.91
351.00 27.10
352.00 21.30
353.00 20.51
354.00 22.02
355.00 24.95
356.00 28.73
357.00 31.01
358.00 28.74
359.00 25.47
