NAME ATR4518R7_1850_X_CO_P45_05T_yyR
FREQUENCY 1850
GAIN 15.47 dBd
TILT	ELECTRICAL
COMMENT DATE 05.08.2013 +45 degrees polarized system Lever position 05T deg
HORIZONTAL 360
0.00 0.06
1.00 0.03
2.00 0.02
3.00 0.00
4.00 0.00
5.00 0.00
6.00 0.01
7.00 0.03
8.00 0.05
9.00 0.08
10.00 0.12
11.00 0.17
12.00 0.22
13.00 0.29
14.00 0.36
15.00 0.44
16.00 0.52
17.00 0.62
18.00 0.73
19.00 0.84
20.00 0.96
21.00 1.10
22.00 1.24
23.00 1.39
24.00 1.55
25.00 1.72
26.00 1.89
27.00 2.08
28.00 2.28
29.00 2.48
30.00 2.69
31.00 2.91
32.00 3.14
33.00 3.38
34.00 3.62
35.00 3.87
36.00 4.13
37.00 4.39
38.00 4.66
39.00 4.93
40.00 5.21
41.00 5.49
42.00 5.78
43.00 6.07
44.00 6.36
45.00 6.65
46.00 6.94
47.00 7.23
48.00 7.52
49.00 7.82
50.00 8.11
51.00 8.40
52.00 8.68
53.00 8.97
54.00 9.25
55.00 9.53
56.00 9.81
57.00 10.08
58.00 10.36
59.00 10.63
60.00 10.91
61.00 11.19
62.00 11.47
63.00 11.75
64.00 12.03
65.00 12.31
66.00 12.61
67.00 12.90
68.00 13.21
69.00 13.52
70.00 13.84
71.00 14.16
72.00 14.50
73.00 14.84
74.00 15.19
75.00 15.54
76.00 15.91
77.00 16.28
78.00 16.66
79.00 17.04
80.00 17.43
81.00 17.83
82.00 18.22
83.00 18.62
84.00 19.01
85.00 19.41
86.00 19.80
87.00 20.19
88.00 20.58
89.00 20.96
90.00 21.33
91.00 21.70
92.00 22.08
93.00 22.44
94.00 22.81
95.00 23.18
96.00 23.56
97.00 23.95
98.00 24.34
99.00 24.75
100.00 25.17
101.00 25.61
102.00 26.07
103.00 26.55
104.00 27.04
105.00 27.55
106.00 28.08
107.00 28.61
108.00 29.13
109.00 29.64
110.00 30.13
111.00 30.58
112.00 30.97
113.00 31.31
114.00 31.57
115.00 31.77
116.00 31.90
117.00 32.00
118.00 32.06
119.00 32.11
120.00 32.17
121.00 32.25
122.00 32.37
123.00 32.53
124.00 32.76
125.00 33.06
126.00 33.44
127.00 33.92
128.00 34.50
129.00 35.21
130.00 36.07
131.00 37.09
132.00 38.32
133.00 39.81
134.00 41.61
135.00 43.74
136.00 46.04
137.00 47.57
138.00 47.04
139.00 45.03
140.00 42.91
141.00 41.09
142.00 39.60
143.00 38.39
144.00 37.42
145.00 36.63
146.00 36.00
147.00 35.51
148.00 35.13
149.00 34.87
150.00 34.69
151.00 34.60
152.00 34.58
153.00 34.62
154.00 34.70
155.00 34.81
156.00 34.94
157.00 35.06
158.00 35.15
159.00 35.19
160.00 35.18
161.00 35.08
162.00 34.92
163.00 34.70
164.00 34.44
165.00 34.15
166.00 33.84
167.00 33.55
168.00 33.28
169.00 33.04
170.00 32.85
171.00 32.70
172.00 32.60
173.00 32.56
174.00 32.58
175.00 32.65
176.00 32.77
177.00 32.95
178.00 33.17
179.00 33.44
180.00 33.73
181.00 34.04
182.00 34.35
183.00 34.62
184.00 34.84
185.00 34.98
186.00 35.01
187.00 34.93
188.00 34.75
189.00 34.49
190.00 34.17
191.00 33.83
192.00 33.47
193.00 33.14
194.00 32.85
195.00 32.59
196.00 32.39
197.00 32.25
198.00 32.18
199.00 32.17
200.00 32.24
201.00 32.39
202.00 32.60
203.00 32.90
204.00 33.28
205.00 33.74
206.00 34.27
207.00 34.86
208.00 35.48
209.00 36.10
210.00 36.63
211.00 36.98
212.00 37.07
213.00 36.85
214.00 36.36
215.00 35.67
216.00 34.88
217.00 34.07
218.00 33.28
219.00 32.54
220.00 31.86
221.00 31.26
222.00 30.73
223.00 30.26
224.00 29.86
225.00 29.53
226.00 29.25
227.00 29.03
228.00 28.86
229.00 28.74
230.00 28.67
231.00 28.63
232.00 28.63
233.00 28.67
234.00 28.73
235.00 28.81
236.00 28.90
237.00 28.99
238.00 29.09
239.00 29.18
240.00 29.25
241.00 29.29
242.00 29.31
243.00 29.30
244.00 29.25
245.00 29.17
246.00 29.07
247.00 28.93
248.00 28.78
249.00 28.61
250.00 28.43
251.00 28.24
252.00 28.05
253.00 27.85
254.00 27.66
255.00 27.47
256.00 27.28
257.00 27.09
258.00 26.90
259.00 26.71
260.00 26.51
261.00 26.32
262.00 26.11
263.00 25.91
264.00 25.69
265.00 25.46
266.00 25.22
267.00 24.98
268.00 24.72
269.00 24.46
270.00 24.18
271.00 23.89
272.00 23.60
273.00 23.29
274.00 22.98
275.00 22.66
276.00 22.33
277.00 21.99
278.00 21.65
279.00 21.30
280.00 20.94
281.00 20.58
282.00 20.21
283.00 19.84
284.00 19.46
285.00 19.08
286.00 18.69
287.00 18.30
288.00 17.90
289.00 17.51
290.00 17.11
291.00 16.70
292.00 16.30
293.00 15.90
294.00 15.49
295.00 15.09
296.00 14.68
297.00 14.28
298.00 13.88
299.00 13.48
300.00 13.08
301.00 12.69
302.00 12.29
303.00 11.90
304.00 11.52
305.00 11.13
306.00 10.75
307.00 10.38
308.00 10.01
309.00 9.64
310.00 9.28
311.00 8.92
312.00 8.57
313.00 8.23
314.00 7.89
315.00 7.56
316.00 7.23
317.00 6.92
318.00 6.61
319.00 6.30
320.00 6.01
321.00 5.72
322.00 5.44
323.00 5.16
324.00 4.90
325.00 4.64
326.00 4.39
327.00 4.15
328.00 3.92
329.00 3.69
330.00 3.47
331.00 3.26
332.00 3.06
333.00 2.87
334.00 2.68
335.00 2.50
336.00 2.33
337.00 2.16
338.00 2.00
339.00 1.85
340.00 1.71
341.00 1.57
342.00 1.44
343.00 1.31
344.00 1.19
345.00 1.08
346.00 0.97
347.00 0.87
348.00 0.78
349.00 0.69
350.00 0.60
351.00 0.52
352.00 0.45
353.00 0.38
354.00 0.32
355.00 0.26
356.00 0.21
357.00 0.16
358.00 0.12
359.00 0.09
VERTICAL 360
0.00 9.00
1.00 5.24
2.00 2.71
3.00 1.09
4.00 0.21
5.00 0.00
6.00 0.50
7.00 1.77
8.00 3.97
9.00 7.49
10.00 13.35
11.00 25.84
12.00 21.26
13.00 15.94
14.00 14.95
15.00 16.32
16.00 20.22
17.00 25.08
18.00 21.40
19.00 17.47
20.00 15.95
21.00 16.12
22.00 17.74
23.00 20.98
24.00 25.76
25.00 26.71
26.00 23.02
27.00 20.83
28.00 20.45
29.00 21.83
30.00 25.61
31.00 35.99
32.00 33.10
33.00 24.96
34.00 21.67
35.00 20.25
36.00 20.14
37.00 21.32
38.00 24.16
39.00 30.03
40.00 43.22
41.00 34.15
42.00 29.53
43.00 28.43
44.00 28.46
45.00 28.42
46.00 28.07
47.00 27.92
48.00 28.31
49.00 29.19
50.00 29.98
51.00 29.72
52.00 28.54
53.00 27.61
54.00 27.76
55.00 29.48
56.00 33.01
57.00 35.03
58.00 31.65
59.00 28.65
60.00 27.01
61.00 26.17
62.00 25.70
63.00 25.48
64.00 25.57
65.00 26.09
66.00 27.05
67.00 28.26
68.00 29.41
69.00 30.30
70.00 30.93
71.00 31.23
72.00 31.25
73.00 31.10
74.00 30.80
75.00 30.27
76.00 29.48
77.00 28.49
78.00 27.48
79.00 26.68
80.00 26.23
81.00 26.07
82.00 26.09
83.00 26.12
84.00 26.03
85.00 25.84
86.00 25.69
87.00 25.79
88.00 26.37
89.00 27.55
90.00 29.25
91.00 30.81
92.00 31.23
93.00 30.52
94.00 29.63
95.00 29.17
96.00 29.39
97.00 30.32
98.00 31.73
99.00 33.20
100.00 34.48
101.00 35.75
102.00 37.45
103.00 39.88
104.00 43.03
105.00 45.92
106.00 47.26
107.00 47.66
108.00 47.61
109.00 47.19
110.00 47.19
111.00 48.18
112.00 50.42
113.00 53.89
114.00 55.41
115.00 52.77
116.00 51.36
117.00 52.75
118.00 56.00
119.00 53.00
120.00 48.13
121.00 45.62
122.00 45.05
123.00 46.18
124.00 47.64
125.00 46.06
126.00 43.17
127.00 41.52
128.00 41.23
129.00 41.90
130.00 43.12
131.00 44.38
132.00 44.48
133.00 42.91
134.00 41.24
135.00 40.54
136.00 40.91
137.00 42.01
138.00 42.73
139.00 41.56
140.00 39.04
141.00 36.66
142.00 35.02
143.00 34.29
144.00 34.46
145.00 35.42
146.00 36.86
147.00 38.26
148.00 38.94
149.00 38.97
150.00 39.40
151.00 40.57
152.00 40.24
153.00 37.65
154.00 35.69
155.00 35.21
156.00 35.54
157.00 35.10
158.00 33.54
159.00 32.37
160.00 32.51
161.00 34.46
162.00 38.98
163.00 49.09
164.00 57.95
165.00 53.74
166.00 56.79
167.00 47.60
168.00 43.15
169.00 40.64
170.00 38.33
171.00 36.37
172.00 35.12
173.00 34.64
174.00 34.72
175.00 34.84
176.00 34.34
177.00 33.72
178.00 34.07
179.00 36.09
180.00 40.18
181.00 46.35
182.00 50.22
183.00 47.58
184.00 45.41
185.00 46.15
186.00 47.84
187.00 45.66
188.00 45.45
189.00 48.00
190.00 40.13
191.00 34.25
192.00 31.64
193.00 31.16
194.00 32.27
195.00 34.37
196.00 36.21
197.00 36.34
198.00 35.04
199.00 33.92
200.00 33.92
201.00 35.26
202.00 37.16
203.00 37.81
204.00 37.51
205.00 37.95
206.00 39.55
207.00 42.63
208.00 50.96
209.00 48.77
210.00 38.98
211.00 34.77
212.00 32.58
213.00 31.34
214.00 30.41
215.00 29.65
216.00 29.22
217.00 29.36
218.00 30.18
219.00 31.54
220.00 32.95
221.00 33.78
222.00 34.22
223.00 35.07
224.00 37.03
225.00 40.79
226.00 46.30
227.00 45.21
228.00 41.34
229.00 40.35
230.00 41.74
231.00 42.15
232.00 38.35
233.00 35.15
234.00 33.89
235.00 34.29
236.00 36.11
237.00 39.05
238.00 42.49
239.00 44.34
240.00 43.19
241.00 41.76
242.00 41.47
243.00 42.01
244.00 41.87
245.00 39.55
246.00 36.72
247.00 35.02
248.00 34.77
249.00 35.91
250.00 38.07
251.00 40.35
252.00 41.49
253.00 41.43
254.00 41.67
255.00 43.79
256.00 49.41
257.00 55.20
258.00 52.44
259.00 52.37
260.00 48.80
261.00 45.08
262.00 44.71
263.00 48.16
264.00 56.28
265.00 53.97
266.00 49.77
267.00 46.78
268.00 43.36
269.00 40.67
270.00 38.82
271.00 37.32
272.00 35.87
273.00 34.55
274.00 33.60
275.00 33.07
276.00 32.71
277.00 32.09
278.00 31.05
279.00 29.85
280.00 28.82
281.00 28.09
282.00 27.56
283.00 27.06
284.00 26.44
285.00 25.69
286.00 24.97
287.00 24.42
288.00 24.11
289.00 23.99
290.00 23.93
291.00 23.81
292.00 23.64
293.00 23.53
294.00 23.63
295.00 24.06
296.00 24.86
297.00 25.92
298.00 26.86
299.00 27.06
300.00 26.31
301.00 25.22
302.00 24.40
303.00 24.10
304.00 24.36
305.00 25.12
306.00 26.37
307.00 28.37
308.00 31.70
309.00 33.85
310.00 29.57
311.00 25.27
312.00 22.55
313.00 20.87
314.00 19.89
315.00 19.43
316.00 19.39
317.00 19.76
318.00 20.51
319.00 21.50
320.00 22.43
321.00 22.77
322.00 22.24
323.00 21.13
324.00 20.04
325.00 19.44
326.00 19.45
327.00 19.85
328.00 20.12
329.00 19.98
330.00 19.90
331.00 20.63
332.00 22.87
333.00 27.57
334.00 31.30
335.00 26.12
336.00 22.47
337.00 21.01
338.00 21.18
339.00 23.02
340.00 27.14
341.00 31.08
342.00 26.78
343.00 23.18
344.00 22.02
345.00 22.85
346.00 25.63
347.00 27.80
348.00 24.51
349.00 20.97
350.00 19.20
351.00 19.07
352.00 20.87
353.00 26.30
354.00 37.21
355.00 25.57
356.00 21.98
357.00 22.91
358.00 22.21
359.00 14.68
