NAME ATR4518R7_1950_X_CO_P45_09T_yyR
FREQUENCY 1950
GAIN 14.84 dBd
TILT	ELECTRICAL
COMMENT DATE 05.08.2013 +45 degrees polarized system Lever position 09T deg
HORIZONTAL 360
0.00 0.09
1.00 0.06
2.00 0.03
3.00 0.01
4.00 0.00
5.00 0.00
6.00 0.00
7.00 0.01
8.00 0.03
9.00 0.06
10.00 0.10
11.00 0.14
12.00 0.20
13.00 0.26
14.00 0.33
15.00 0.42
16.00 0.51
17.00 0.61
18.00 0.73
19.00 0.85
20.00 0.98
21.00 1.13
22.00 1.28
23.00 1.45
24.00 1.63
25.00 1.82
26.00 2.01
27.00 2.22
28.00 2.44
29.00 2.67
30.00 2.90
31.00 3.15
32.00 3.40
33.00 3.67
34.00 3.93
35.00 4.21
36.00 4.49
37.00 4.77
38.00 5.06
39.00 5.36
40.00 5.65
41.00 5.95
42.00 6.24
43.00 6.54
44.00 6.84
45.00 7.13
46.00 7.42
47.00 7.71
48.00 8.00
49.00 8.28
50.00 8.57
51.00 8.85
52.00 9.12
53.00 9.40
54.00 9.67
55.00 9.94
56.00 10.21
57.00 10.48
58.00 10.74
59.00 11.00
60.00 11.26
61.00 11.51
62.00 11.76
63.00 12.01
64.00 12.25
65.00 12.48
66.00 12.71
67.00 12.93
68.00 13.14
69.00 13.35
70.00 13.54
71.00 13.73
72.00 13.92
73.00 14.10
74.00 14.28
75.00 14.45
76.00 14.62
77.00 14.80
78.00 14.97
79.00 15.15
80.00 15.34
81.00 15.53
82.00 15.74
83.00 15.95
84.00 16.18
85.00 16.42
86.00 16.67
87.00 16.94
88.00 17.23
89.00 17.53
90.00 17.85
91.00 18.19
92.00 18.54
93.00 18.91
94.00 19.30
95.00 19.69
96.00 20.10
97.00 20.53
98.00 20.95
99.00 21.39
100.00 21.84
101.00 22.29
102.00 22.74
103.00 23.20
104.00 23.66
105.00 24.12
106.00 24.60
107.00 25.08
108.00 25.59
109.00 26.12
110.00 26.67
111.00 27.27
112.00 27.92
113.00 28.63
114.00 29.41
115.00 30.29
116.00 31.27
117.00 32.36
118.00 33.58
119.00 34.91
120.00 36.26
121.00 37.43
122.00 38.07
123.00 37.89
124.00 37.00
125.00 35.77
126.00 34.51
127.00 33.33
128.00 32.29
129.00 31.40
130.00 30.64
131.00 30.01
132.00 29.50
133.00 29.10
134.00 28.80
135.00 28.60
136.00 28.50
137.00 28.49
138.00 28.58
139.00 28.77
140.00 29.06
141.00 29.46
142.00 29.97
143.00 30.62
144.00 31.42
145.00 32.40
146.00 33.60
147.00 35.07
148.00 36.92
149.00 39.35
150.00 42.76
151.00 48.34
152.00 60.83
153.00 50.13
154.00 44.17
155.00 40.83
156.00 38.60
157.00 37.01
158.00 35.83
159.00 34.95
160.00 34.32
161.00 33.90
162.00 33.65
163.00 33.56
164.00 33.63
165.00 33.85
166.00 34.22
167.00 34.75
168.00 35.46
169.00 36.35
170.00 37.46
171.00 38.81
172.00 40.44
173.00 42.34
174.00 44.30
175.00 45.67
176.00 45.53
177.00 44.13
178.00 42.41
179.00 40.86
180.00 39.60
181.00 38.60
182.00 37.83
183.00 37.28
184.00 36.91
185.00 36.72
186.00 36.68
187.00 36.80
188.00 37.07
189.00 37.47
190.00 38.02
191.00 38.69
192.00 39.46
193.00 40.24
194.00 40.92
195.00 41.29
196.00 41.20
197.00 40.62
198.00 39.69
199.00 38.61
200.00 37.52
201.00 36.48
202.00 35.53
203.00 34.68
204.00 33.92
205.00 33.26
206.00 32.68
207.00 32.16
208.00 31.72
209.00 31.33
210.00 31.00
211.00 30.71
212.00 30.47
213.00 30.27
214.00 30.09
215.00 29.95
216.00 29.83
217.00 29.74
218.00 29.66
219.00 29.61
220.00 29.58
221.00 29.56
222.00 29.55
223.00 29.56
224.00 29.58
225.00 29.61
226.00 29.64
227.00 29.68
228.00 29.71
229.00 29.75
230.00 29.77
231.00 29.78
232.00 29.78
233.00 29.75
234.00 29.71
235.00 29.63
236.00 29.54
237.00 29.42
238.00 29.27
239.00 29.11
240.00 28.93
241.00 28.74
242.00 28.55
243.00 28.35
244.00 28.15
245.00 27.95
246.00 27.76
247.00 27.57
248.00 27.40
249.00 27.23
250.00 27.07
251.00 26.91
252.00 26.77
253.00 26.62
254.00 26.48
255.00 26.34
256.00 26.20
257.00 26.05
258.00 25.89
259.00 25.72
260.00 25.53
261.00 25.33
262.00 25.10
263.00 24.86
264.00 24.59
265.00 24.29
266.00 23.98
267.00 23.64
268.00 23.28
269.00 22.90
270.00 22.50
271.00 22.09
272.00 21.67
273.00 21.24
274.00 20.81
275.00 20.37
276.00 19.93
277.00 19.49
278.00 19.05
279.00 18.62
280.00 18.19
281.00 17.77
282.00 17.36
283.00 16.96
284.00 16.56
285.00 16.17
286.00 15.80
287.00 15.43
288.00 15.07
289.00 14.72
290.00 14.37
291.00 14.04
292.00 13.71
293.00 13.38
294.00 13.07
295.00 12.75
296.00 12.45
297.00 12.15
298.00 11.85
299.00 11.55
300.00 11.26
301.00 10.97
302.00 10.68
303.00 10.40
304.00 10.11
305.00 9.83
306.00 9.55
307.00 9.27
308.00 8.99
309.00 8.71
310.00 8.43
311.00 8.16
312.00 7.89
313.00 7.62
314.00 7.35
315.00 7.08
316.00 6.82
317.00 6.56
318.00 6.31
319.00 6.05
320.00 5.80
321.00 5.56
322.00 5.32
323.00 5.08
324.00 4.85
325.00 4.62
326.00 4.40
327.00 4.19
328.00 3.98
329.00 3.77
330.00 3.57
331.00 3.38
332.00 3.19
333.00 3.00
334.00 2.83
335.00 2.66
336.00 2.49
337.00 2.33
338.00 2.17
339.00 2.03
340.00 1.88
341.00 1.74
342.00 1.61
343.00 1.48
344.00 1.36
345.00 1.24
346.00 1.12
347.00 1.02
348.00 0.91
349.00 0.82
350.00 0.72
351.00 0.64
352.00 0.55
353.00 0.48
354.00 0.40
355.00 0.34
356.00 0.28
357.00 0.22
358.00 0.17
359.00 0.13
VERTICAL 360
0.00 25.85
1.00 23.67
2.00 18.29
3.00 13.14
4.00 8.79
5.00 5.41
6.00 2.94
7.00 1.27
8.00 0.30
9.00 0.00
10.00 0.38
11.00 1.51
12.00 3.62
13.00 7.12
14.00 13.26
15.00 25.38
16.00 18.64
17.00 14.60
18.00 14.49
19.00 17.32
20.00 26.35
21.00 29.00
22.00 18.93
23.00 16.01
24.00 15.54
25.00 16.92
26.00 20.54
27.00 28.04
28.00 26.95
29.00 20.67
30.00 18.27
31.00 18.01
32.00 19.56
33.00 23.22
34.00 29.37
35.00 29.34
36.00 24.76
37.00 22.41
38.00 21.24
39.00 20.87
40.00 21.55
41.00 23.86
42.00 29.06
43.00 39.74
44.00 33.30
45.00 28.91
46.00 27.77
47.00 27.74
48.00 28.08
49.00 29.15
50.00 32.08
51.00 38.87
52.00 41.54
53.00 34.91
54.00 32.68
55.00 32.57
56.00 33.83
57.00 36.69
58.00 41.71
59.00 39.72
60.00 33.58
61.00 30.16
62.00 28.52
63.00 28.10
64.00 28.55
65.00 29.48
66.00 30.54
67.00 31.56
68.00 32.56
69.00 33.61
70.00 34.54
71.00 34.97
72.00 34.78
73.00 34.29
74.00 33.87
75.00 33.59
76.00 33.23
77.00 32.49
78.00 31.29
79.00 29.89
80.00 28.60
81.00 27.59
82.00 26.85
83.00 26.39
84.00 26.23
85.00 26.47
86.00 27.29
87.00 28.80
88.00 30.77
89.00 32.16
90.00 32.33
91.00 31.55
92.00 29.92
93.00 28.23
94.00 27.36
95.00 27.53
96.00 28.50
97.00 29.88
98.00 31.30
99.00 32.42
100.00 33.13
101.00 33.86
102.00 35.13
103.00 36.93
104.00 38.95
105.00 41.20
106.00 43.90
107.00 47.18
108.00 52.38
109.00 56.42
110.00 49.71
111.00 46.82
112.00 46.64
113.00 47.42
114.00 46.96
115.00 44.84
116.00 42.47
117.00 40.67
118.00 39.73
119.00 39.63
120.00 40.06
121.00 40.62
122.00 40.95
123.00 40.65
124.00 39.49
125.00 37.86
126.00 36.51
127.00 36.06
128.00 36.82
129.00 38.90
130.00 42.10
131.00 46.28
132.00 49.83
133.00 45.78
134.00 42.40
135.00 42.50
136.00 46.59
137.00 49.77
138.00 44.15
139.00 42.13
140.00 42.99
141.00 45.50
142.00 47.53
143.00 47.27
144.00 46.26
145.00 45.99
146.00 46.89
147.00 49.34
148.00 54.70
149.00 58.81
150.00 49.99
151.00 43.42
152.00 38.49
153.00 35.44
154.00 34.26
155.00 34.55
156.00 35.03
157.00 34.74
158.00 34.99
159.00 36.72
160.00 37.29
161.00 35.22
162.00 34.61
163.00 37.24
164.00 46.10
165.00 44.10
166.00 37.45
167.00 35.58
168.00 35.71
169.00 36.56
170.00 36.84
171.00 36.72
172.00 37.94
173.00 41.74
174.00 45.50
175.00 42.84
176.00 41.48
177.00 41.49
178.00 41.34
179.00 42.56
180.00 47.78
181.00 50.45
182.00 45.07
183.00 44.45
184.00 43.28
185.00 39.54
186.00 37.56
187.00 37.72
188.00 38.85
189.00 39.64
190.00 40.66
191.00 40.95
192.00 37.92
193.00 35.17
194.00 34.11
195.00 34.14
196.00 34.53
197.00 35.34
198.00 36.74
199.00 37.25
200.00 36.07
201.00 35.47
202.00 36.56
203.00 39.34
204.00 43.01
205.00 44.64
206.00 41.38
207.00 37.41
208.00 34.84
209.00 33.65
210.00 33.54
211.00 34.14
212.00 34.99
213.00 35.61
214.00 35.75
215.00 35.39
216.00 34.59
217.00 33.62
218.00 32.85
219.00 32.63
220.00 33.20
221.00 34.78
222.00 37.45
223.00 40.58
224.00 42.22
225.00 42.41
226.00 42.68
227.00 42.61
228.00 41.48
229.00 40.08
230.00 39.32
231.00 39.51
232.00 39.88
233.00 38.90
234.00 37.24
235.00 36.46
236.00 37.00
237.00 38.84
238.00 41.85
239.00 45.66
240.00 48.97
241.00 50.16
242.00 51.29
243.00 55.49
244.00 48.75
245.00 40.88
246.00 36.67
247.00 34.57
248.00 33.88
249.00 33.96
250.00 34.10
251.00 33.87
252.00 33.39
253.00 32.97
254.00 32.63
255.00 32.26
256.00 31.97
257.00 31.95
258.00 32.13
259.00 32.06
260.00 31.29
261.00 29.96
262.00 28.61
263.00 27.66
264.00 27.23
265.00 27.28
266.00 27.66
267.00 28.20
268.00 28.72
269.00 28.99
270.00 28.84
271.00 28.38
272.00 27.95
273.00 27.89
274.00 28.33
275.00 29.14
276.00 30.03
277.00 30.78
278.00 31.43
279.00 32.34
280.00 33.76
281.00 35.72
282.00 37.91
283.00 39.66
284.00 39.82
285.00 37.91
286.00 35.05
287.00 32.44
288.00 30.45
289.00 28.98
290.00 27.95
291.00 27.45
292.00 27.58
293.00 28.24
294.00 29.33
295.00 31.21
296.00 34.67
297.00 37.39
298.00 32.87
299.00 28.78
300.00 26.56
301.00 25.61
302.00 25.44
303.00 25.48
304.00 25.21
305.00 24.55
306.00 23.86
307.00 23.67
308.00 24.49
309.00 26.96
310.00 32.97
311.00 44.43
312.00 29.94
313.00 24.66
314.00 21.90
315.00 20.59
316.00 20.54
317.00 21.91
318.00 25.14
319.00 29.09
320.00 25.82
321.00 21.20
322.00 18.52
323.00 17.39
324.00 17.72
325.00 19.56
326.00 21.74
327.00 20.68
328.00 18.15
329.00 16.03
330.00 14.70
331.00 14.14
332.00 14.33
333.00 15.26
334.00 16.99
335.00 19.53
336.00 22.46
337.00 24.39
338.00 25.10
339.00 26.80
340.00 31.89
341.00 33.60
342.00 25.18
343.00 21.86
344.00 21.07
345.00 22.23
346.00 25.70
347.00 31.92
348.00 29.18
349.00 24.04
350.00 22.19
351.00 22.91
352.00 26.67
353.00 29.57
354.00 23.33
355.00 19.40
356.00 17.77
357.00 17.80
358.00 19.34
359.00 22.49
