NAME ATR4518R7_0947_X_CO_P45_04T
FREQUENCY 0947
GAIN 14.89 dBd
TILT	ELECTRICAL
COMMENT DATE 05.08.2013 +45 degrees polarized system Lever position 04T deg
HORIZONTAL 360
0.00 0.03
1.00 0.02
2.00 0.00
3.00 0.00
4.00 0.00
5.00 0.01
6.00 0.02
7.00 0.04
8.00 0.07
9.00 0.11
10.00 0.15
11.00 0.20
12.00 0.25
13.00 0.31
14.00 0.38
15.00 0.45
16.00 0.53
17.00 0.62
18.00 0.71
19.00 0.81
20.00 0.92
21.00 1.03
22.00 1.15
23.00 1.28
24.00 1.41
25.00 1.55
26.00 1.69
27.00 1.84
28.00 2.00
29.00 2.16
30.00 2.33
31.00 2.51
32.00 2.69
33.00 2.88
34.00 3.07
35.00 3.27
36.00 3.47
37.00 3.68
38.00 3.90
39.00 4.12
40.00 4.35
41.00 4.58
42.00 4.82
43.00 5.07
44.00 5.31
45.00 5.57
46.00 5.83
47.00 6.09
48.00 6.36
49.00 6.64
50.00 6.92
51.00 7.21
52.00 7.50
53.00 7.79
54.00 8.09
55.00 8.40
56.00 8.71
57.00 9.02
58.00 9.35
59.00 9.67
60.00 10.01
61.00 10.34
62.00 10.68
63.00 11.03
64.00 11.38
65.00 11.74
66.00 12.11
67.00 12.48
68.00 12.86
69.00 13.24
70.00 13.62
71.00 14.02
72.00 14.42
73.00 14.83
74.00 15.25
75.00 15.67
76.00 16.10
77.00 16.54
78.00 16.98
79.00 17.44
80.00 17.90
81.00 18.37
82.00 18.85
83.00 19.33
84.00 19.83
85.00 20.33
86.00 20.85
87.00 21.37
88.00 21.90
89.00 22.44
90.00 22.99
91.00 23.55
92.00 24.12
93.00 24.70
94.00 25.28
95.00 25.88
96.00 26.48
97.00 27.09
98.00 27.71
99.00 28.33
100.00 28.95
101.00 29.58
102.00 30.20
103.00 30.83
104.00 31.44
105.00 32.05
106.00 32.63
107.00 33.19
108.00 33.71
109.00 34.20
110.00 34.64
111.00 35.01
112.00 35.32
113.00 35.56
114.00 35.73
115.00 35.82
116.00 35.85
117.00 35.81
118.00 35.72
119.00 35.59
120.00 35.42
121.00 35.23
122.00 35.03
123.00 34.80
124.00 34.58
125.00 34.36
126.00 34.14
127.00 33.92
128.00 33.72
129.00 33.53
130.00 33.35
131.00 33.19
132.00 33.04
133.00 32.90
134.00 32.79
135.00 32.69
136.00 32.61
137.00 32.55
138.00 32.50
139.00 32.48
140.00 32.48
141.00 32.50
142.00 32.54
143.00 32.60
144.00 32.68
145.00 32.79
146.00 32.92
147.00 33.08
148.00 33.26
149.00 33.48
150.00 33.72
151.00 33.99
152.00 34.29
153.00 34.62
154.00 34.99
155.00 35.40
156.00 35.85
157.00 36.34
158.00 36.88
159.00 37.47
160.00 38.11
161.00 38.82
162.00 39.58
163.00 40.41
164.00 41.31
165.00 42.27
166.00 43.28
167.00 44.31
168.00 45.30
169.00 46.17
170.00 46.76
171.00 46.98
172.00 46.82
173.00 46.34
174.00 45.67
175.00 44.95
176.00 44.21
177.00 43.52
178.00 42.90
179.00 42.34
180.00 41.85
181.00 41.43
182.00 41.07
183.00 40.77
184.00 40.52
185.00 40.32
186.00 40.17
187.00 40.05
188.00 39.95
189.00 39.88
190.00 39.82
191.00 39.76
192.00 39.70
193.00 39.62
194.00 39.51
195.00 39.36
196.00 39.17
197.00 38.93
198.00 38.65
199.00 38.32
200.00 37.95
201.00 37.53
202.00 37.10
203.00 36.66
204.00 36.21
205.00 35.76
206.00 35.31
207.00 34.88
208.00 34.46
209.00 34.06
210.00 33.68
211.00 33.33
212.00 33.00
213.00 32.70
214.00 32.42
215.00 32.17
216.00 31.94
217.00 31.74
218.00 31.57
219.00 31.42
220.00 31.30
221.00 31.21
222.00 31.14
223.00 31.11
224.00 31.10
225.00 31.11
226.00 31.15
227.00 31.22
228.00 31.31
229.00 31.43
230.00 31.58
231.00 31.75
232.00 31.95
233.00 32.17
234.00 32.42
235.00 32.69
236.00 32.99
237.00 33.30
238.00 33.62
239.00 33.97
240.00 34.31
241.00 34.66
242.00 35.01
243.00 35.33
244.00 35.63
245.00 35.88
246.00 36.09
247.00 36.23
248.00 36.31
249.00 36.30
250.00 36.22
251.00 36.07
252.00 35.85
253.00 35.58
254.00 35.26
255.00 34.90
256.00 34.51
257.00 34.10
258.00 33.67
259.00 33.21
260.00 32.74
261.00 32.26
262.00 31.76
263.00 31.25
264.00 30.73
265.00 30.19
266.00 29.65
267.00 29.09
268.00 28.53
269.00 27.96
270.00 27.39
271.00 26.81
272.00 26.23
273.00 25.65
274.00 25.08
275.00 24.50
276.00 23.94
277.00 23.37
278.00 22.81
279.00 22.27
280.00 21.72
281.00 21.19
282.00 20.66
283.00 20.15
284.00 19.64
285.00 19.14
286.00 18.65
287.00 18.16
288.00 17.69
289.00 17.23
290.00 16.77
291.00 16.32
292.00 15.88
293.00 15.44
294.00 15.02
295.00 14.60
296.00 14.19
297.00 13.78
298.00 13.38
299.00 12.99
300.00 12.61
301.00 12.22
302.00 11.85
303.00 11.48
304.00 11.12
305.00 10.76
306.00 10.41
307.00 10.07
308.00 9.73
309.00 9.39
310.00 9.06
311.00 8.74
312.00 8.42
313.00 8.10
314.00 7.80
315.00 7.49
316.00 7.19
317.00 6.90
318.00 6.61
319.00 6.33
320.00 6.06
321.00 5.79
322.00 5.52
323.00 5.26
324.00 5.01
325.00 4.76
326.00 4.52
327.00 4.29
328.00 4.06
329.00 3.83
330.00 3.61
331.00 3.40
332.00 3.20
333.00 3.00
334.00 2.81
335.00 2.62
336.00 2.44
337.00 2.26
338.00 2.10
339.00 1.93
340.00 1.78
341.00 1.63
342.00 1.49
343.00 1.35
344.00 1.22
345.00 1.10
346.00 0.98
347.00 0.87
348.00 0.77
349.00 0.67
350.00 0.58
351.00 0.50
352.00 0.42
353.00 0.35
354.00 0.28
355.00 0.22
356.00 0.17
357.00 0.13
358.00 0.09
359.00 0.06
VERTICAL 360
0.00 2.76
1.00 1.45
2.00 0.58
3.00 0.10
4.00 0.00
5.00 0.28
6.00 0.98
7.00 2.13
8.00 3.78
9.00 6.01
10.00 8.96
11.00 12.84
12.00 17.91
13.00 22.86
14.00 22.90
15.00 21.89
16.00 22.73
17.00 26.12
18.00 35.70
19.00 33.97
20.00 25.63
21.00 22.24
22.00 20.75
23.00 20.64
24.00 21.96
25.00 25.25
26.00 32.65
27.00 41.28
28.00 30.04
29.00 26.82
30.00 25.77
31.00 25.73
32.00 26.19
33.00 26.51
34.00 25.24
35.00 22.48
36.00 19.82
37.00 17.86
38.00 16.59
39.00 15.87
40.00 15.59
41.00 15.68
42.00 16.10
43.00 16.81
44.00 17.80
45.00 19.08
46.00 20.79
47.00 23.16
48.00 26.50
49.00 30.88
50.00 34.89
51.00 36.60
52.00 38.23
53.00 39.73
54.00 37.04
55.00 34.04
56.00 33.10
57.00 34.17
58.00 36.79
59.00 38.93
60.00 37.43
61.00 35.51
62.00 35.73
63.00 38.60
64.00 41.72
65.00 38.15
66.00 33.71
67.00 31.18
68.00 31.14
69.00 34.33
70.00 42.98
71.00 40.87
72.00 35.74
73.00 34.01
74.00 34.84
75.00 39.91
76.00 41.94
77.00 34.35
78.00 31.03
79.00 29.97
80.00 30.85
81.00 32.18
82.00 29.98
83.00 27.04
84.00 25.43
85.00 25.36
86.00 27.01
87.00 30.45
88.00 31.70
89.00 28.68
90.00 26.34
91.00 25.34
92.00 25.77
93.00 27.91
94.00 32.24
95.00 38.58
96.00 35.23
97.00 31.53
98.00 31.17
99.00 34.58
100.00 44.30
101.00 36.91
102.00 33.32
103.00 32.94
104.00 34.53
105.00 39.99
106.00 42.82
107.00 35.23
108.00 33.56
109.00 35.35
110.00 40.08
111.00 44.57
112.00 38.35
113.00 35.00
114.00 35.34
115.00 39.46
116.00 44.96
117.00 40.06
118.00 36.42
119.00 35.22
120.00 36.69
121.00 39.24
122.00 36.48
123.00 33.64
124.00 32.68
125.00 33.03
126.00 34.30
127.00 35.37
128.00 35.02
129.00 34.70
130.00 35.81
131.00 39.30
132.00 49.68
133.00 45.83
134.00 39.04
135.00 37.06
136.00 36.31
137.00 35.07
138.00 33.38
139.00 32.13
140.00 31.93
141.00 33.00
142.00 35.21
143.00 38.20
144.00 41.48
145.00 44.32
146.00 47.68
147.00 54.48
148.00 51.81
149.00 48.89
150.00 47.63
151.00 45.39
152.00 44.64
153.00 44.01
154.00 41.20
155.00 38.77
156.00 37.59
157.00 37.45
158.00 37.57
159.00 36.25
160.00 34.25
161.00 33.30
162.00 33.61
163.00 34.65
164.00 35.56
165.00 36.07
166.00 37.02
167.00 39.69
168.00 44.54
169.00 43.80
170.00 40.16
171.00 38.46
172.00 37.62
173.00 36.98
174.00 36.69
175.00 36.79
176.00 39.08
177.00 41.33
178.00 39.00
179.00 37.39
180.00 37.03
181.00 37.27
182.00 38.13
183.00 40.32
184.00 44.11
185.00 45.08
186.00 41.68
187.00 40.63
188.00 42.63
189.00 48.51
190.00 55.13
191.00 44.53
192.00 39.23
193.00 36.17
194.00 34.34
195.00 33.48
196.00 33.65
197.00 34.96
198.00 37.56
199.00 42.81
200.00 56.45
201.00 42.45
202.00 37.89
203.00 36.39
204.00 36.29
205.00 36.52
206.00 36.52
207.00 36.82
208.00 37.64
209.00 36.96
210.00 34.38
211.00 32.33
212.00 31.47
213.00 31.57
214.00 32.04
215.00 32.19
216.00 32.10
217.00 32.34
218.00 33.10
219.00 34.05
220.00 34.77
221.00 35.40
222.00 36.51
223.00 38.54
224.00 41.70
225.00 45.37
226.00 45.28
227.00 42.13
228.00 39.71
229.00 38.30
230.00 38.00
231.00 38.68
232.00 39.32
233.00 38.39
234.00 36.03
235.00 33.95
236.00 33.33
237.00 34.62
238.00 37.84
239.00 41.90
240.00 42.96
241.00 40.58
242.00 39.08
243.00 40.49
244.00 47.36
245.00 48.42
246.00 39.91
247.00 36.78
248.00 35.83
249.00 35.23
250.00 33.31
251.00 31.20
252.00 30.19
253.00 30.50
254.00 31.87
255.00 33.02
256.00 32.17
257.00 30.62
258.00 29.89
259.00 30.30
260.00 31.72
261.00 33.05
262.00 32.86
263.00 32.39
264.00 33.14
265.00 35.84
266.00 39.17
267.00 35.44
268.00 31.98
269.00 31.12
270.00 32.20
271.00 34.74
272.00 37.40
273.00 34.73
274.00 31.55
275.00 31.16
276.00 33.76
277.00 39.93
278.00 50.91
279.00 40.08
280.00 34.48
281.00 32.76
282.00 33.88
283.00 37.05
284.00 41.27
285.00 43.29
286.00 37.61
287.00 33.99
288.00 32.24
289.00 31.39
290.00 31.79
291.00 33.83
292.00 34.60
293.00 31.73
294.00 29.40
295.00 28.52
296.00 29.19
297.00 31.55
298.00 34.22
299.00 33.55
300.00 32.09
301.00 32.07
302.00 34.13
303.00 40.31
304.00 49.55
305.00 37.82
306.00 34.23
307.00 32.28
308.00 30.69
309.00 29.61
310.00 29.63
311.00 31.39
312.00 35.25
313.00 38.28
314.00 36.33
315.00 33.27
316.00 29.14
317.00 25.07
318.00 21.94
319.00 19.95
320.00 19.03
321.00 18.98
322.00 19.41
323.00 19.77
324.00 19.85
325.00 20.06
326.00 20.97
327.00 22.97
328.00 26.17
329.00 30.09
330.00 33.05
331.00 34.55
332.00 36.11
333.00 37.62
334.00 38.39
335.00 39.89
336.00 42.78
337.00 43.23
338.00 37.74
339.00 31.52
340.00 26.92
341.00 23.80
342.00 21.81
343.00 20.67
344.00 20.19
345.00 20.25
346.00 20.90
347.00 22.44
348.00 25.38
349.00 29.28
350.00 27.82
351.00 24.17
352.00 22.41
353.00 22.40
354.00 22.74
355.00 19.50
356.00 14.45
357.00 10.25
358.00 7.03
359.00 4.58
