NAME ATR4518R7_2140_X_CO_M45_03T_yyR
FREQUENCY 2140
GAIN 15.79 dBd
TILT	ELECTRICAL
COMMENT DATE 05.08.2013 -45 degrees polarized system Lever position 03T deg
HORIZONTAL 360
0.00 0.01
1.00 0.00
2.00 0.00
3.00 0.00
4.00 0.00
5.00 0.01
6.00 0.02
7.00 0.03
8.00 0.05
9.00 0.08
10.00 0.10
11.00 0.14
12.00 0.18
13.00 0.23
14.00 0.28
15.00 0.35
16.00 0.42
17.00 0.51
18.00 0.61
19.00 0.71
20.00 0.84
21.00 0.97
22.00 1.12
23.00 1.29
24.00 1.47
25.00 1.67
26.00 1.88
27.00 2.11
28.00 2.36
29.00 2.63
30.00 2.92
31.00 3.23
32.00 3.55
33.00 3.90
34.00 4.26
35.00 4.65
36.00 5.05
37.00 5.48
38.00 5.92
39.00 6.38
40.00 6.86
41.00 7.36
42.00 7.88
43.00 8.41
44.00 8.96
45.00 9.52
46.00 10.09
47.00 10.68
48.00 11.27
49.00 11.87
50.00 12.47
51.00 13.07
52.00 13.67
53.00 14.26
54.00 14.84
55.00 15.39
56.00 15.93
57.00 16.45
58.00 16.94
59.00 17.41
60.00 17.84
61.00 18.25
62.00 18.63
63.00 18.99
64.00 19.33
65.00 19.65
66.00 19.96
67.00 20.25
68.00 20.55
69.00 20.84
70.00 21.13
71.00 21.42
72.00 21.72
73.00 22.03
74.00 22.34
75.00 22.67
76.00 23.00
77.00 23.34
78.00 23.69
79.00 24.05
80.00 24.42
81.00 24.79
82.00 25.17
83.00 25.54
84.00 25.92
85.00 26.28
86.00 26.64
87.00 26.98
88.00 27.31
89.00 27.62
90.00 27.91
91.00 28.18
92.00 28.43
93.00 28.65
94.00 28.85
95.00 29.03
96.00 29.19
97.00 29.34
98.00 29.47
99.00 29.59
100.00 29.71
101.00 29.81
102.00 29.92
103.00 30.02
104.00 30.12
105.00 30.23
106.00 30.34
107.00 30.45
108.00 30.57
109.00 30.70
110.00 30.83
111.00 30.98
112.00 31.14
113.00 31.31
114.00 31.50
115.00 31.70
116.00 31.92
117.00 32.17
118.00 32.44
119.00 32.73
120.00 33.04
121.00 33.39
122.00 33.76
123.00 34.17
124.00 34.59
125.00 35.02
126.00 35.46
127.00 35.90
128.00 36.30
129.00 36.64
130.00 36.91
131.00 37.06
132.00 37.11
133.00 37.03
134.00 36.86
135.00 36.60
136.00 36.31
137.00 35.99
138.00 35.69
139.00 35.43
140.00 35.20
141.00 35.04
142.00 34.95
143.00 34.94
144.00 35.00
145.00 35.16
146.00 35.41
147.00 35.76
148.00 36.21
149.00 36.76
150.00 37.39
151.00 38.08
152.00 38.76
153.00 39.32
154.00 39.63
155.00 39.57
156.00 39.12
157.00 38.38
158.00 37.48
159.00 36.55
160.00 35.65
161.00 34.84
162.00 34.13
163.00 33.51
164.00 33.01
165.00 32.60
166.00 32.30
167.00 32.10
168.00 31.99
169.00 31.98
170.00 32.07
171.00 32.25
172.00 32.53
173.00 32.92
174.00 33.41
175.00 34.01
176.00 34.73
177.00 35.58
178.00 36.56
179.00 37.68
180.00 38.94
181.00 40.32
182.00 41.79
183.00 43.22
184.00 44.43
185.00 45.18
186.00 45.40
187.00 45.22
188.00 44.87
189.00 44.53
190.00 44.31
191.00 44.22
192.00 44.27
193.00 44.39
194.00 44.49
195.00 44.42
196.00 44.06
197.00 43.36
198.00 42.37
199.00 41.24
200.00 40.07
201.00 38.96
202.00 37.93
203.00 37.02
204.00 36.23
205.00 35.56
206.00 35.00
207.00 34.55
208.00 34.22
209.00 33.99
210.00 33.86
211.00 33.84
212.00 33.92
213.00 34.10
214.00 34.38
215.00 34.77
216.00 35.26
217.00 35.86
218.00 36.55
219.00 37.32
220.00 38.14
221.00 38.95
222.00 39.65
223.00 40.12
224.00 40.25
225.00 40.04
226.00 39.55
227.00 38.90
228.00 38.20
229.00 37.52
230.00 36.90
231.00 36.37
232.00 35.92
233.00 35.55
234.00 35.27
235.00 35.08
236.00 34.96
237.00 34.90
238.00 34.91
239.00 34.99
240.00 35.12
241.00 35.29
242.00 35.50
243.00 35.75
244.00 36.01
245.00 36.26
246.00 36.48
247.00 36.63
248.00 36.69
249.00 36.63
250.00 36.42
251.00 36.07
252.00 35.58
253.00 34.97
254.00 34.29
255.00 33.55
256.00 32.79
257.00 32.03
258.00 31.27
259.00 30.53
260.00 29.81
261.00 29.12
262.00 28.45
263.00 27.80
264.00 27.19
265.00 26.59
266.00 26.02
267.00 25.47
268.00 24.93
269.00 24.41
270.00 23.90
271.00 23.41
272.00 22.93
273.00 22.45
274.00 21.98
275.00 21.52
276.00 21.07
277.00 20.62
278.00 20.17
279.00 19.73
280.00 19.29
281.00 18.86
282.00 18.42
283.00 18.00
284.00 17.58
285.00 17.16
286.00 16.74
287.00 16.34
288.00 15.93
289.00 15.54
290.00 15.14
291.00 14.76
292.00 14.38
293.00 14.00
294.00 13.64
295.00 13.28
296.00 12.93
297.00 12.58
298.00 12.24
299.00 11.90
300.00 11.57
301.00 11.25
302.00 10.94
303.00 10.63
304.00 10.33
305.00 10.03
306.00 9.74
307.00 9.46
308.00 9.18
309.00 8.90
310.00 8.63
311.00 8.37
312.00 8.11
313.00 7.85
314.00 7.59
315.00 7.34
316.00 7.09
317.00 6.84
318.00 6.60
319.00 6.35
320.00 6.11
321.00 5.87
322.00 5.63
323.00 5.39
324.00 5.14
325.00 4.91
326.00 4.67
327.00 4.43
328.00 4.19
329.00 3.96
330.00 3.73
331.00 3.50
332.00 3.27
333.00 3.05
334.00 2.83
335.00 2.62
336.00 2.42
337.00 2.22
338.00 2.03
339.00 1.84
340.00 1.67
341.00 1.50
342.00 1.34
343.00 1.19
344.00 1.05
345.00 0.92
346.00 0.80
347.00 0.69
348.00 0.59
349.00 0.49
350.00 0.41
351.00 0.34
352.00 0.27
353.00 0.21
354.00 0.17
355.00 0.12
356.00 0.09
357.00 0.06
358.00 0.04
359.00 0.02
VERTICAL 360
0.00 4.04
1.00 1.80
2.00 0.48
3.00 0.00
4.00 0.39
5.00 1.74
6.00 4.27
7.00 8.52
8.00 15.68
9.00 19.38
10.00 14.76
11.00 13.31
12.00 14.43
13.00 17.78
14.00 21.34
15.00 19.73
16.00 17.70
17.00 18.19
18.00 22.20
19.00 34.66
20.00 24.96
21.00 19.11
22.00 17.32
23.00 17.52
24.00 19.34
25.00 23.11
26.00 28.33
27.00 26.30
28.00 22.14
29.00 20.41
30.00 20.45
31.00 21.71
32.00 23.41
33.00 24.46
34.00 24.87
35.00 25.68
36.00 27.52
37.00 30.16
38.00 30.89
39.00 28.38
40.00 26.02
41.00 24.91
42.00 24.96
43.00 26.04
44.00 28.10
45.00 31.21
46.00 35.17
47.00 36.60
48.00 33.72
49.00 31.08
50.00 29.63
51.00 29.14
52.00 29.41
53.00 30.46
54.00 32.44
55.00 35.78
56.00 41.07
57.00 43.93
58.00 39.69
59.00 36.96
60.00 36.32
61.00 37.25
62.00 39.23
63.00 41.81
64.00 45.04
65.00 49.25
66.00 54.07
67.00 53.99
68.00 49.10
69.00 47.76
70.00 51.02
71.00 52.92
72.00 46.97
73.00 43.21
74.00 40.16
75.00 37.41
76.00 35.14
77.00 33.23
78.00 31.68
79.00 30.46
80.00 29.46
81.00 28.73
82.00 28.46
83.00 28.72
84.00 29.41
85.00 30.35
86.00 31.33
87.00 32.42
88.00 34.38
89.00 37.85
90.00 38.83
91.00 35.12
92.00 32.24
93.00 30.56
94.00 29.88
95.00 30.36
96.00 32.17
97.00 35.03
98.00 37.62
99.00 38.20
100.00 37.70
101.00 37.90
102.00 39.58
103.00 43.21
104.00 49.36
105.00 58.54
106.00 57.79
107.00 51.19
108.00 47.16
109.00 45.28
110.00 45.60
111.00 48.25
112.00 53.04
113.00 57.70
114.00 58.92
115.00 56.19
116.00 53.76
117.00 51.97
118.00 49.78
119.00 48.92
120.00 51.11
121.00 57.90
122.00 54.35
123.00 47.42
124.00 43.75
125.00 42.04
126.00 42.19
127.00 44.20
128.00 47.30
129.00 49.59
130.00 52.35
131.00 55.95
132.00 50.47
133.00 45.69
134.00 42.79
135.00 40.30
136.00 38.16
137.00 36.87
138.00 36.74
139.00 37.84
140.00 40.24
141.00 43.97
142.00 48.41
143.00 50.07
144.00 46.96
145.00 42.87
146.00 39.91
147.00 38.00
148.00 36.61
149.00 35.86
150.00 36.42
151.00 38.96
152.00 43.82
153.00 47.84
154.00 46.68
155.00 45.46
156.00 45.93
157.00 46.60
158.00 42.42
159.00 38.61
160.00 37.53
161.00 38.64
162.00 39.78
163.00 38.31
164.00 36.52
165.00 35.81
166.00 35.88
167.00 36.21
168.00 36.57
169.00 37.06
170.00 38.04
171.00 39.95
172.00 42.27
173.00 42.21
174.00 40.60
175.00 40.09
176.00 41.11
177.00 42.52
178.00 42.50
179.00 41.05
180.00 39.74
181.00 38.88
182.00 38.36
183.00 37.99
184.00 38.01
185.00 38.76
186.00 41.00
187.00 44.90
188.00 48.06
189.00 46.56
190.00 43.47
191.00 41.39
192.00 41.08
193.00 42.31
194.00 43.60
195.00 44.47
196.00 47.25
197.00 55.66
198.00 64.81
199.00 57.75
200.00 58.68
201.00 57.27
202.00 51.20
203.00 45.94
204.00 43.70
205.00 43.24
206.00 41.38
207.00 38.41
208.00 36.69
209.00 36.39
210.00 36.86
211.00 36.91
212.00 35.57
213.00 33.56
214.00 32.04
215.00 31.48
216.00 32.17
217.00 34.50
218.00 39.42
219.00 49.89
220.00 50.84
221.00 44.71
222.00 41.13
223.00 38.71
224.00 38.21
225.00 39.91
226.00 43.73
227.00 47.92
228.00 51.23
229.00 56.19
230.00 49.62
231.00 46.49
232.00 50.69
233.00 58.20
234.00 44.42
235.00 41.58
236.00 42.95
237.00 48.09
238.00 48.01
239.00 42.50
240.00 39.40
241.00 37.68
242.00 36.93
243.00 37.34
244.00 39.30
245.00 42.20
246.00 41.81
247.00 39.31
248.00 38.34
249.00 38.87
250.00 40.16
251.00 41.31
252.00 41.56
253.00 40.54
254.00 38.84
255.00 37.65
256.00 37.64
257.00 38.85
258.00 40.56
259.00 40.96
260.00 39.47
261.00 37.48
262.00 35.59
263.00 33.73
264.00 32.01
265.00 30.74
266.00 30.00
267.00 29.56
268.00 29.12
269.00 28.51
270.00 27.78
271.00 27.16
272.00 26.84
273.00 26.81
274.00 27.00
275.00 27.25
276.00 27.49
277.00 27.68
278.00 27.78
279.00 27.73
280.00 27.51
281.00 27.19
282.00 26.91
283.00 26.81
284.00 26.98
285.00 27.39
286.00 27.92
287.00 28.41
288.00 28.78
289.00 29.09
290.00 29.41
291.00 29.74
292.00 29.99
293.00 30.04
294.00 29.87
295.00 29.60
296.00 29.44
297.00 29.61
298.00 30.06
299.00 30.38
300.00 30.09
301.00 29.24
302.00 28.41
303.00 28.12
304.00 28.70
305.00 30.46
306.00 34.09
307.00 41.41
308.00 39.24
309.00 32.18
310.00 28.88
311.00 27.57
312.00 27.77
313.00 29.65
314.00 34.72
315.00 46.10
316.00 32.50
317.00 25.88
318.00 22.07
319.00 19.59
320.00 18.03
321.00 17.26
322.00 17.19
323.00 17.79
324.00 18.96
325.00 20.39
326.00 21.52
327.00 21.95
328.00 21.92
329.00 21.67
330.00 21.16
331.00 20.64
332.00 20.70
333.00 21.96
334.00 25.29
335.00 33.96
336.00 34.29
337.00 25.21
338.00 21.61
339.00 20.23
340.00 20.63
341.00 23.29
342.00 31.22
343.00 35.44
344.00 25.09
345.00 22.49
346.00 23.23
347.00 28.20
348.00 36.16
349.00 25.05
350.00 20.38
351.00 18.75
352.00 19.06
353.00 20.92
354.00 23.71
355.00 27.18
356.00 28.61
357.00 19.33
358.00 12.15
359.00 7.36
