NAME ATR4518R7_0947_X_CO_P45_08T
FREQUENCY 0947
GAIN 14.90 dBd
TILT	ELECTRICAL
COMMENT DATE 05.08.2013 +45 degrees polarized system Lever position 08T deg
HORIZONTAL 360
0.00 0.04
1.00 0.02
2.00 0.01
3.00 0.00
4.00 0.01
5.00 0.01
6.00 0.03
7.00 0.05
8.00 0.08
9.00 0.11
10.00 0.15
11.00 0.20
12.00 0.25
13.00 0.31
14.00 0.37
15.00 0.45
16.00 0.53
17.00 0.61
18.00 0.70
19.00 0.80
20.00 0.90
21.00 1.01
22.00 1.13
23.00 1.25
24.00 1.38
25.00 1.51
26.00 1.65
27.00 1.80
28.00 1.95
29.00 2.11
30.00 2.27
31.00 2.44
32.00 2.61
33.00 2.79
34.00 2.98
35.00 3.17
36.00 3.37
37.00 3.57
38.00 3.78
39.00 3.99
40.00 4.21
41.00 4.43
42.00 4.66
43.00 4.90
44.00 5.13
45.00 5.38
46.00 5.63
47.00 5.88
48.00 6.14
49.00 6.40
50.00 6.67
51.00 6.94
52.00 7.22
53.00 7.50
54.00 7.79
55.00 8.08
56.00 8.38
57.00 8.68
58.00 8.99
59.00 9.30
60.00 9.62
61.00 9.94
62.00 10.27
63.00 10.60
64.00 10.93
65.00 11.28
66.00 11.63
67.00 11.98
68.00 12.34
69.00 12.70
70.00 13.08
71.00 13.46
72.00 13.84
73.00 14.23
74.00 14.63
75.00 15.03
76.00 15.44
77.00 15.86
78.00 16.28
79.00 16.71
80.00 17.15
81.00 17.59
82.00 18.04
83.00 18.50
84.00 18.97
85.00 19.44
86.00 19.91
87.00 20.40
88.00 20.89
89.00 21.38
90.00 21.88
91.00 22.38
92.00 22.89
93.00 23.39
94.00 23.90
95.00 24.41
96.00 24.92
97.00 25.42
98.00 25.91
99.00 26.40
100.00 26.88
101.00 27.34
102.00 27.78
103.00 28.21
104.00 28.61
105.00 28.99
106.00 29.33
107.00 29.65
108.00 29.92
109.00 30.17
110.00 30.37
111.00 30.54
112.00 30.68
113.00 30.78
114.00 30.85
115.00 30.89
116.00 30.91
117.00 30.91
118.00 30.89
119.00 30.85
120.00 30.80
121.00 30.75
122.00 30.69
123.00 30.63
124.00 30.58
125.00 30.52
126.00 30.47
127.00 30.43
128.00 30.39
129.00 30.37
130.00 30.36
131.00 30.36
132.00 30.38
133.00 30.41
134.00 30.47
135.00 30.54
136.00 30.62
137.00 30.74
138.00 30.87
139.00 31.03
140.00 31.21
141.00 31.42
142.00 31.66
143.00 31.93
144.00 32.24
145.00 32.58
146.00 32.97
147.00 33.40
148.00 33.88
149.00 34.41
150.00 35.01
151.00 35.68
152.00 36.44
153.00 37.30
154.00 38.28
155.00 39.42
156.00 40.75
157.00 42.35
158.00 44.33
159.00 46.88
160.00 50.38
161.00 55.29
162.00 57.13
163.00 52.20
164.00 48.21
165.00 45.40
166.00 43.28
167.00 41.60
168.00 40.22
169.00 39.06
170.00 38.08
171.00 37.24
172.00 36.51
173.00 35.88
174.00 35.32
175.00 34.84
176.00 34.42
177.00 34.07
178.00 33.76
179.00 33.50
180.00 33.29
181.00 33.13
182.00 33.01
183.00 32.92
184.00 32.88
185.00 32.88
186.00 32.91
187.00 32.99
188.00 33.09
189.00 33.24
190.00 33.42
191.00 33.64
192.00 33.88
193.00 34.17
194.00 34.48
195.00 34.82
196.00 35.19
197.00 35.56
198.00 35.94
199.00 36.31
200.00 36.65
201.00 36.94
202.00 37.15
203.00 37.27
204.00 37.27
205.00 37.16
206.00 36.95
207.00 36.63
208.00 36.24
209.00 35.80
210.00 35.33
211.00 34.85
212.00 34.37
213.00 33.91
214.00 33.46
215.00 33.03
216.00 32.63
217.00 32.26
218.00 31.92
219.00 31.60
220.00 31.31
221.00 31.06
222.00 30.82
223.00 30.62
224.00 30.44
225.00 30.28
226.00 30.14
227.00 30.03
228.00 29.94
229.00 29.87
230.00 29.81
231.00 29.78
232.00 29.76
233.00 29.76
234.00 29.76
235.00 29.79
236.00 29.82
237.00 29.86
238.00 29.91
239.00 29.97
240.00 30.03
241.00 30.10
242.00 30.17
243.00 30.24
244.00 30.32
245.00 30.39
246.00 30.47
247.00 30.55
248.00 30.62
249.00 30.70
250.00 30.77
251.00 30.85
252.00 30.93
253.00 31.01
254.00 31.10
255.00 31.18
256.00 31.28
257.00 31.36
258.00 31.45
259.00 31.54
260.00 31.62
261.00 31.69
262.00 31.74
263.00 31.77
264.00 31.76
265.00 31.71
266.00 31.59
267.00 31.42
268.00 31.17
269.00 30.85
270.00 30.45
271.00 30.00
272.00 29.47
273.00 28.90
274.00 28.30
275.00 27.66
276.00 27.01
277.00 26.34
278.00 25.67
279.00 25.00
280.00 24.34
281.00 23.68
282.00 23.04
283.00 22.40
284.00 21.78
285.00 21.17
286.00 20.58
287.00 20.00
288.00 19.43
289.00 18.87
290.00 18.33
291.00 17.79
292.00 17.27
293.00 16.76
294.00 16.26
295.00 15.78
296.00 15.30
297.00 14.83
298.00 14.37
299.00 13.92
300.00 13.49
301.00 13.05
302.00 12.63
303.00 12.21
304.00 11.80
305.00 11.41
306.00 11.01
307.00 10.63
308.00 10.25
309.00 9.88
310.00 9.52
311.00 9.16
312.00 8.81
313.00 8.47
314.00 8.14
315.00 7.81
316.00 7.49
317.00 7.17
318.00 6.87
319.00 6.56
320.00 6.27
321.00 5.98
322.00 5.70
323.00 5.43
324.00 5.16
325.00 4.90
326.00 4.65
327.00 4.40
328.00 4.16
329.00 3.93
330.00 3.70
331.00 3.48
332.00 3.27
333.00 3.06
334.00 2.86
335.00 2.67
336.00 2.48
337.00 2.30
338.00 2.13
339.00 1.97
340.00 1.81
341.00 1.66
342.00 1.51
343.00 1.37
344.00 1.24
345.00 1.11
346.00 1.00
347.00 0.88
348.00 0.78
349.00 0.68
350.00 0.59
351.00 0.50
352.00 0.43
353.00 0.35
354.00 0.29
355.00 0.23
356.00 0.18
357.00 0.14
358.00 0.10
359.00 0.07
VERTICAL 360
0.00 15.44
1.00 11.23
2.00 7.92
3.00 5.36
4.00 3.39
5.00 1.92
6.00 0.89
7.00 0.25
8.00 0.00
9.00 0.15
10.00 0.70
11.00 1.66
12.00 3.08
13.00 4.99
14.00 7.53
15.00 10.89
16.00 15.46
17.00 21.01
18.00 22.23
19.00 20.07
20.00 19.28
21.00 20.01
22.00 22.27
23.00 26.79
24.00 36.83
25.00 31.69
26.00 25.91
27.00 23.68
28.00 23.24
29.00 24.02
30.00 25.75
31.00 28.35
32.00 31.61
33.00 33.79
34.00 33.06
35.00 31.90
36.00 31.55
37.00 31.21
38.00 29.64
39.00 27.35
40.00 25.44
41.00 24.14
42.00 23.37
43.00 22.98
44.00 22.87
45.00 22.97
46.00 23.28
47.00 23.96
48.00 25.32
49.00 27.62
50.00 30.67
51.00 32.70
52.00 32.27
53.00 31.63
54.00 31.40
55.00 30.26
56.00 28.44
57.00 27.31
58.00 27.37
59.00 28.76
60.00 31.64
61.00 33.92
62.00 31.64
63.00 29.57
64.00 29.44
65.00 31.08
66.00 33.78
67.00 34.33
68.00 32.65
69.00 32.16
70.00 34.03
71.00 40.00
72.00 38.85
73.00 31.91
74.00 29.30
75.00 29.48
76.00 32.15
77.00 36.29
78.00 35.14
79.00 32.30
80.00 31.47
81.00 32.22
82.00 32.38
83.00 29.37
84.00 26.37
85.00 25.30
86.00 26.59
87.00 30.63
88.00 32.00
89.00 28.96
90.00 26.30
91.00 25.08
92.00 25.94
93.00 29.23
94.00 35.52
95.00 33.22
96.00 27.64
97.00 25.53
98.00 25.75
99.00 28.58
100.00 35.20
101.00 41.87
102.00 36.13
103.00 33.67
104.00 33.02
105.00 33.63
106.00 32.97
107.00 32.10
108.00 34.23
109.00 43.81
110.00 41.90
111.00 34.20
112.00 31.46
113.00 31.06
114.00 33.09
115.00 36.92
116.00 36.09
117.00 33.31
118.00 32.45
119.00 33.64
120.00 37.26
121.00 40.01
122.00 36.77
123.00 35.17
124.00 36.45
125.00 42.26
126.00 46.66
127.00 37.82
128.00 35.56
129.00 36.35
130.00 39.28
131.00 42.02
132.00 37.82
133.00 34.20
134.00 33.20
135.00 34.33
136.00 36.95
137.00 39.67
138.00 39.42
139.00 37.23
140.00 35.92
141.00 35.83
142.00 36.99
143.00 39.81
144.00 43.94
145.00 45.76
146.00 44.64
147.00 42.99
148.00 43.42
149.00 47.08
150.00 42.55
151.00 37.13
152.00 34.15
153.00 32.42
154.00 31.58
155.00 31.43
156.00 31.55
157.00 31.64
158.00 31.63
159.00 31.72
160.00 32.54
161.00 34.76
162.00 38.65
163.00 43.22
164.00 44.79
165.00 41.70
166.00 37.74
167.00 34.55
168.00 32.49
169.00 31.65
170.00 31.80
171.00 32.38
172.00 32.90
173.00 33.08
174.00 33.66
175.00 34.38
176.00 34.36
177.00 33.58
178.00 33.26
179.00 34.22
180.00 36.43
181.00 38.15
182.00 37.66
183.00 36.78
184.00 35.99
185.00 34.97
186.00 34.04
187.00 33.65
188.00 33.90
189.00 34.44
190.00 34.60
191.00 34.05
192.00 33.01
193.00 32.06
194.00 31.78
195.00 32.51
196.00 34.13
197.00 35.31
198.00 34.66
199.00 33.77
200.00 34.10
201.00 36.01
202.00 39.62
203.00 45.27
204.00 43.81
205.00 36.73
206.00 32.35
207.00 29.76
208.00 28.41
209.00 27.91
210.00 27.89
211.00 28.06
212.00 28.47
213.00 29.35
214.00 30.85
215.00 32.76
216.00 34.66
217.00 36.06
218.00 36.55
219.00 36.48
220.00 36.90
221.00 38.45
222.00 41.20
223.00 43.50
224.00 41.63
225.00 38.72
226.00 36.96
227.00 36.00
228.00 35.38
229.00 35.01
230.00 34.87
231.00 34.57
232.00 33.85
233.00 32.88
234.00 32.17
235.00 32.28
236.00 33.51
237.00 35.72
238.00 38.51
239.00 41.83
240.00 44.26
241.00 42.71
242.00 40.57
243.00 38.88
244.00 36.82
245.00 34.35
246.00 32.29
247.00 31.20
248.00 31.09
249.00 31.54
250.00 31.92
251.00 31.93
252.00 31.99
253.00 32.80
254.00 34.62
255.00 36.69
256.00 37.48
257.00 36.93
258.00 36.49
259.00 37.75
260.00 41.83
261.00 46.69
262.00 46.97
263.00 47.04
264.00 43.86
265.00 38.93
266.00 33.86
267.00 30.75
268.00 30.03
269.00 31.43
270.00 34.18
271.00 36.05
272.00 33.19
273.00 29.48
274.00 27.90
275.00 28.50
276.00 30.91
277.00 34.05
278.00 33.58
279.00 29.98
280.00 27.97
281.00 28.12
282.00 30.10
283.00 33.23
284.00 35.30
285.00 33.38
286.00 31.58
287.00 32.07
288.00 35.14
289.00 40.71
290.00 40.09
291.00 35.71
292.00 34.62
293.00 37.16
294.00 44.16
295.00 42.84
296.00 39.72
297.00 40.43
298.00 47.23
299.00 43.52
300.00 34.78
301.00 31.48
302.00 30.80
303.00 32.04
304.00 34.86
305.00 36.05
306.00 33.45
307.00 32.38
308.00 34.31
309.00 41.59
310.00 44.16
311.00 34.33
312.00 31.31
313.00 31.49
314.00 34.27
315.00 36.81
316.00 35.22
317.00 34.46
318.00 36.03
319.00 35.39
320.00 29.79
321.00 26.07
322.00 24.51
323.00 24.38
324.00 24.61
325.00 24.04
326.00 23.04
327.00 22.76
328.00 23.91
329.00 27.04
330.00 32.69
331.00 35.98
332.00 32.37
333.00 29.68
334.00 27.37
335.00 25.47
336.00 24.63
337.00 25.31
338.00 27.75
339.00 31.44
340.00 31.90
341.00 29.50
342.00 28.33
343.00 28.55
344.00 28.99
345.00 27.70
346.00 24.86
347.00 22.04
348.00 19.93
349.00 18.65
350.00 18.23
351.00 18.69
352.00 20.11
353.00 22.49
354.00 24.96
355.00 25.07
356.00 23.74
357.00 23.25
358.00 23.13
359.00 20.24
