NAME ATR4518R7_2350_X_CO_M45_09T_yL
FREQUENCY 2350
GAIN 15.57 dBd
TILT	ELECTRICAL
COMMENT DATE 05.08.2013 -45 degrees polarized system Lever position 09T deg
HORIZONTAL 360
0.00 0.02
1.00 0.05
2.00 0.10
3.00 0.16
4.00 0.23
5.00 0.32
6.00 0.43
7.00 0.55
8.00 0.67
9.00 0.81
10.00 0.96
11.00 1.12
12.00 1.28
13.00 1.45
14.00 1.62
15.00 1.78
16.00 1.95
17.00 2.11
18.00 2.27
19.00 2.42
20.00 2.57
21.00 2.71
22.00 2.85
23.00 2.99
24.00 3.13
25.00 3.26
26.00 3.40
27.00 3.55
28.00 3.70
29.00 3.85
30.00 4.02
31.00 4.19
32.00 4.38
33.00 4.58
34.00 4.79
35.00 5.01
36.00 5.24
37.00 5.48
38.00 5.73
39.00 5.99
40.00 6.26
41.00 6.53
42.00 6.81
43.00 7.09
44.00 7.37
45.00 7.64
46.00 7.92
47.00 8.19
48.00 8.45
49.00 8.71
50.00 8.96
51.00 9.20
52.00 9.43
53.00 9.66
54.00 9.88
55.00 10.09
56.00 10.30
57.00 10.50
58.00 10.70
59.00 10.90
60.00 11.11
61.00 11.32
62.00 11.53
63.00 11.75
64.00 11.97
65.00 12.20
66.00 12.45
67.00 12.70
68.00 12.97
69.00 13.24
70.00 13.52
71.00 13.82
72.00 14.12
73.00 14.43
74.00 14.74
75.00 15.06
76.00 15.38
77.00 15.70
78.00 16.02
79.00 16.34
80.00 16.66
81.00 16.97
82.00 17.28
83.00 17.58
84.00 17.89
85.00 18.20
86.00 18.51
87.00 18.84
88.00 19.17
89.00 19.53
90.00 19.90
91.00 20.31
92.00 20.74
93.00 21.21
94.00 21.71
95.00 22.26
96.00 22.85
97.00 23.49
98.00 24.18
99.00 24.91
100.00 25.69
101.00 26.51
102.00 27.37
103.00 28.25
104.00 29.15
105.00 30.04
106.00 30.91
107.00 31.74
108.00 32.53
109.00 33.27
110.00 33.96
111.00 34.64
112.00 35.32
113.00 36.05
114.00 36.86
115.00 37.78
116.00 38.83
117.00 40.03
118.00 41.35
119.00 42.64
120.00 43.61
121.00 43.85
122.00 43.22
123.00 42.08
124.00 40.81
125.00 39.61
126.00 38.57
127.00 37.69
128.00 36.97
129.00 36.40
130.00 35.94
131.00 35.60
132.00 35.34
133.00 35.16
134.00 35.04
135.00 34.96
136.00 34.92
137.00 34.90
138.00 34.89
139.00 34.90
140.00 34.91
141.00 34.94
142.00 34.97
143.00 35.01
144.00 35.06
145.00 35.11
146.00 35.16
147.00 35.19
148.00 35.20
149.00 35.18
150.00 35.13
151.00 35.03
152.00 34.90
153.00 34.76
154.00 34.61
155.00 34.49
156.00 34.41
157.00 34.40
158.00 34.48
159.00 34.68
160.00 35.00
161.00 35.48
162.00 36.13
163.00 36.96
164.00 37.98
165.00 39.10
166.00 40.12
167.00 40.63
168.00 40.25
169.00 39.09
170.00 37.61
171.00 36.15
172.00 34.84
173.00 33.74
174.00 32.85
175.00 32.16
176.00 31.65
177.00 31.33
178.00 31.19
179.00 31.23
180.00 31.47
181.00 31.91
182.00 32.60
183.00 33.57
184.00 34.90
185.00 36.71
186.00 39.22
187.00 42.79
188.00 47.10
189.00 46.10
190.00 41.67
191.00 38.34
192.00 35.97
193.00 34.24
194.00 32.96
195.00 32.03
196.00 31.38
197.00 30.99
198.00 30.83
199.00 30.89
200.00 31.19
201.00 31.75
202.00 32.60
203.00 33.81
204.00 35.50
205.00 37.90
206.00 41.45
207.00 46.57
208.00 46.62
209.00 41.24
210.00 37.42
211.00 34.75
212.00 32.80
213.00 31.31
214.00 30.17
215.00 29.29
216.00 28.64
217.00 28.18
218.00 27.89
219.00 27.76
220.00 27.79
221.00 27.95
222.00 28.27
223.00 28.72
224.00 29.33
225.00 30.07
226.00 30.95
227.00 31.93
228.00 32.93
229.00 33.81
230.00 34.36
231.00 34.38
232.00 33.89
233.00 33.06
234.00 32.11
235.00 31.17
236.00 30.31
237.00 29.55
238.00 28.91
239.00 28.37
240.00 27.92
241.00 27.55
242.00 27.25
243.00 27.00
244.00 26.79
245.00 26.61
246.00 26.44
247.00 26.26
248.00 26.07
249.00 25.86
250.00 25.61
251.00 25.33
252.00 25.02
253.00 24.67
254.00 24.31
255.00 23.93
256.00 23.55
257.00 23.18
258.00 22.81
259.00 22.45
260.00 22.11
261.00 21.80
262.00 21.50
263.00 21.22
264.00 20.95
265.00 20.70
266.00 20.46
267.00 20.22
268.00 19.99
269.00 19.75
270.00 19.51
271.00 19.26
272.00 18.99
273.00 18.71
274.00 18.42
275.00 18.12
276.00 17.81
277.00 17.49
278.00 17.16
279.00 16.83
280.00 16.50
281.00 16.18
282.00 15.85
283.00 15.54
284.00 15.22
285.00 14.92
286.00 14.61
287.00 14.31
288.00 14.02
289.00 13.72
290.00 13.43
291.00 13.13
292.00 12.84
293.00 12.54
294.00 12.23
295.00 11.92
296.00 11.61
297.00 11.29
298.00 10.98
299.00 10.65
300.00 10.32
301.00 10.00
302.00 9.67
303.00 9.34
304.00 9.02
305.00 8.70
306.00 8.38
307.00 8.06
308.00 7.75
309.00 7.44
310.00 7.14
311.00 6.84
312.00 6.54
313.00 6.25
314.00 5.96
315.00 5.67
316.00 5.39
317.00 5.11
318.00 4.83
319.00 4.55
320.00 4.29
321.00 4.02
322.00 3.76
323.00 3.51
324.00 3.27
325.00 3.04
326.00 2.81
327.00 2.60
328.00 2.40
329.00 2.22
330.00 2.04
331.00 1.88
332.00 1.73
333.00 1.60
334.00 1.47
335.00 1.36
336.00 1.26
337.00 1.16
338.00 1.08
339.00 1.00
340.00 0.93
341.00 0.86
342.00 0.80
343.00 0.74
344.00 0.67
345.00 0.61
346.00 0.55
347.00 0.49
348.00 0.43
349.00 0.37
350.00 0.31
351.00 0.25
352.00 0.19
353.00 0.14
354.00 0.10
355.00 0.06
356.00 0.03
357.00 0.01
358.00 0.00
359.00 0.00
VERTICAL 360
0.00 25.75
1.00 29.27
2.00 30.50
3.00 18.82
4.00 11.81
5.00 7.06
6.00 3.75
7.00 1.53
8.00 0.29
9.00 0.00
10.00 0.74
11.00 2.72
12.00 6.43
13.00 13.71
14.00 25.73
15.00 13.66
16.00 10.98
17.00 11.44
18.00 14.41
19.00 19.22
20.00 18.55
21.00 15.98
22.00 15.80
23.00 17.95
24.00 22.22
25.00 22.96
26.00 19.04
27.00 17.18
28.00 17.77
29.00 21.54
30.00 35.63
31.00 25.88
32.00 20.10
33.00 18.63
34.00 19.56
35.00 22.74
36.00 25.12
37.00 21.01
38.00 17.60
39.00 15.93
40.00 15.44
41.00 15.76
42.00 16.75
43.00 18.48
44.00 21.22
45.00 25.08
46.00 28.92
47.00 30.64
48.00 31.97
49.00 31.82
50.00 28.55
51.00 26.08
52.00 25.26
53.00 25.68
54.00 26.66
55.00 27.22
56.00 27.06
57.00 27.00
58.00 27.93
59.00 30.44
60.00 35.23
61.00 43.64
62.00 44.08
63.00 39.18
64.00 36.44
65.00 34.47
66.00 32.98
67.00 32.09
68.00 31.97
69.00 32.60
70.00 33.70
71.00 34.71
72.00 35.16
73.00 35.13
74.00 35.27
75.00 36.25
76.00 38.37
77.00 41.39
78.00 44.13
79.00 45.62
80.00 47.79
81.00 52.22
82.00 45.98
83.00 40.75
84.00 38.99
85.00 39.76
86.00 41.55
87.00 41.28
88.00 40.92
89.00 43.49
90.00 51.11
91.00 46.44
92.00 41.22
93.00 39.13
94.00 38.75
95.00 39.95
96.00 42.80
97.00 45.39
98.00 43.95
99.00 41.97
100.00 41.34
101.00 42.32
102.00 45.23
103.00 49.95
104.00 53.44
105.00 54.77
106.00 51.28
107.00 46.99
108.00 45.56
109.00 46.80
110.00 50.32
111.00 54.42
112.00 56.70
113.00 58.64
114.00 56.95
115.00 53.69
116.00 50.99
117.00 47.81
118.00 44.62
119.00 42.30
120.00 40.94
121.00 39.80
122.00 38.04
123.00 36.07
124.00 34.82
125.00 34.76
126.00 36.00
127.00 38.50
128.00 41.76
129.00 44.88
130.00 48.38
131.00 54.10
132.00 51.33
133.00 45.61
134.00 42.41
135.00 40.44
136.00 38.90
137.00 37.39
138.00 36.12
139.00 35.56
140.00 36.05
141.00 37.59
142.00 39.47
143.00 40.53
144.00 41.42
145.00 43.58
146.00 47.57
147.00 50.08
148.00 44.99
149.00 40.71
150.00 38.41
151.00 37.32
152.00 36.51
153.00 35.77
154.00 35.80
155.00 37.23
156.00 40.16
157.00 42.77
158.00 42.19
159.00 41.76
160.00 43.66
161.00 49.08
162.00 60.72
163.00 52.81
164.00 47.37
165.00 45.47
166.00 49.04
167.00 49.31
168.00 38.56
169.00 33.87
170.00 31.74
171.00 31.18
172.00 31.77
173.00 33.58
174.00 37.04
175.00 41.56
176.00 41.29
177.00 39.25
178.00 38.68
179.00 38.79
180.00 38.86
181.00 38.88
182.00 38.99
183.00 38.52
184.00 36.63
185.00 34.59
186.00 33.59
187.00 33.81
188.00 34.91
189.00 36.50
190.00 38.67
191.00 41.70
192.00 43.95
193.00 42.93
194.00 41.48
195.00 41.07
196.00 41.41
197.00 41.81
198.00 42.15
199.00 42.96
200.00 43.84
201.00 43.72
202.00 43.50
203.00 43.85
204.00 43.65
205.00 42.47
206.00 40.96
207.00 39.39
208.00 38.43
209.00 38.82
210.00 41.00
211.00 45.27
212.00 50.68
213.00 53.16
214.00 49.48
215.00 43.91
216.00 40.62
217.00 39.71
218.00 41.21
219.00 45.92
220.00 56.34
221.00 51.57
222.00 46.81
223.00 42.72
224.00 39.26
225.00 37.13
226.00 36.13
227.00 35.74
228.00 35.72
229.00 36.39
230.00 38.42
231.00 42.83
232.00 50.42
233.00 46.81
234.00 44.10
235.00 46.06
236.00 59.38
237.00 47.73
238.00 41.38
239.00 38.92
240.00 37.68
241.00 36.69
242.00 36.07
243.00 36.09
244.00 36.65
245.00 37.35
246.00 37.90
247.00 38.52
248.00 39.87
249.00 42.65
250.00 46.95
251.00 50.32
252.00 48.00
253.00 43.44
254.00 40.66
255.00 40.17
256.00 41.73
257.00 44.91
258.00 50.40
259.00 55.55
260.00 45.35
261.00 41.31
262.00 40.23
263.00 40.42
264.00 39.90
265.00 37.99
266.00 35.59
267.00 33.42
268.00 31.85
269.00 30.98
270.00 30.76
271.00 31.06
272.00 31.61
273.00 31.93
274.00 31.81
275.00 31.46
276.00 31.24
277.00 31.41
278.00 32.05
279.00 32.96
280.00 33.63
281.00 33.64
282.00 33.05
283.00 32.23
284.00 31.41
285.00 30.49
286.00 29.23
287.00 27.66
288.00 26.08
289.00 24.86
290.00 24.18
291.00 23.88
292.00 23.49
293.00 22.54
294.00 21.18
295.00 19.82
296.00 18.60
297.00 17.42
298.00 16.26
299.00 15.20
300.00 14.42
301.00 14.03
302.00 14.04
303.00 14.46
304.00 15.33
305.00 16.84
306.00 19.33
307.00 23.27
308.00 27.50
309.00 25.37
310.00 21.91
311.00 19.92
312.00 19.15
313.00 19.41
314.00 20.79
315.00 23.50
316.00 27.17
317.00 26.83
318.00 23.42
319.00 21.53
320.00 21.61
321.00 24.06
322.00 28.98
323.00 25.85
324.00 21.03
325.00 18.87
326.00 18.73
327.00 20.69
328.00 26.52
329.00 38.53
330.00 23.17
331.00 19.13
332.00 18.30
333.00 20.15
334.00 26.10
335.00 27.54
336.00 19.49
337.00 15.80
338.00 14.33
339.00 14.55
340.00 16.57
341.00 20.96
342.00 28.70
343.00 28.41
344.00 24.93
345.00 23.29
346.00 21.40
347.00 19.44
348.00 18.39
349.00 18.92
350.00 21.97
351.00 31.88
352.00 28.69
353.00 21.53
354.00 19.62
355.00 20.36
356.00 23.41
357.00 27.71
358.00 27.28
359.00 25.44
