NAME ATR4518R7_0847_X_CO_M45_07T
FREQUENCY 0847
GAIN 14.68 dBd
TILT	ELECTRICAL
COMMENT DATE 05.08.2013 -45 degrees polarized system Lever position 07T deg
HORIZONTAL 360
0.00 0.01
1.00 0.02
2.00 0.04
3.00 0.06
4.00 0.09
5.00 0.12
6.00 0.16
7.00 0.21
8.00 0.26
9.00 0.32
10.00 0.39
11.00 0.46
12.00 0.53
13.00 0.62
14.00 0.71
15.00 0.81
16.00 0.91
17.00 1.02
18.00 1.13
19.00 1.25
20.00 1.38
21.00 1.52
22.00 1.66
23.00 1.80
24.00 1.95
25.00 2.11
26.00 2.28
27.00 2.45
28.00 2.63
29.00 2.81
30.00 3.00
31.00 3.20
32.00 3.40
33.00 3.61
34.00 3.83
35.00 4.05
36.00 4.28
37.00 4.51
38.00 4.75
39.00 5.00
40.00 5.25
41.00 5.51
42.00 5.77
43.00 6.04
44.00 6.32
45.00 6.60
46.00 6.88
47.00 7.18
48.00 7.48
49.00 7.78
50.00 8.09
51.00 8.40
52.00 8.72
53.00 9.04
54.00 9.37
55.00 9.70
56.00 10.04
57.00 10.38
58.00 10.73
59.00 11.08
60.00 11.44
61.00 11.79
62.00 12.16
63.00 12.53
64.00 12.90
65.00 13.28
66.00 13.65
67.00 14.04
68.00 14.42
69.00 14.82
70.00 15.21
71.00 15.61
72.00 16.02
73.00 16.43
74.00 16.84
75.00 17.26
76.00 17.68
77.00 18.11
78.00 18.55
79.00 18.99
80.00 19.44
81.00 19.89
82.00 20.35
83.00 20.82
84.00 21.30
85.00 21.78
86.00 22.27
87.00 22.78
88.00 23.29
89.00 23.80
90.00 24.33
91.00 24.87
92.00 25.41
93.00 25.96
94.00 26.52
95.00 27.09
96.00 27.67
97.00 28.24
98.00 28.83
99.00 29.41
100.00 29.99
101.00 30.57
102.00 31.14
103.00 31.71
104.00 32.26
105.00 32.80
106.00 33.32
107.00 33.82
108.00 34.31
109.00 34.76
110.00 35.19
111.00 35.60
112.00 35.99
113.00 36.36
114.00 36.71
115.00 37.04
116.00 37.37
117.00 37.67
118.00 37.98
119.00 38.27
120.00 38.56
121.00 38.84
122.00 39.11
123.00 39.36
124.00 39.60
125.00 39.82
126.00 40.01
127.00 40.16
128.00 40.28
129.00 40.36
130.00 40.39
131.00 40.38
132.00 40.33
133.00 40.23
134.00 40.11
135.00 39.96
136.00 39.79
137.00 39.61
138.00 39.43
139.00 39.24
140.00 39.07
141.00 38.90
142.00 38.75
143.00 38.62
144.00 38.51
145.00 38.42
146.00 38.37
147.00 38.33
148.00 38.32
149.00 38.34
150.00 38.39
151.00 38.47
152.00 38.59
153.00 38.72
154.00 38.90
155.00 39.10
156.00 39.34
157.00 39.61
158.00 39.90
159.00 40.22
160.00 40.58
161.00 40.93
162.00 41.30
163.00 41.67
164.00 42.03
165.00 42.34
166.00 42.62
167.00 42.81
168.00 42.91
169.00 42.91
170.00 42.80
171.00 42.59
172.00 42.31
173.00 41.96
174.00 41.57
175.00 41.15
176.00 40.73
177.00 40.31
178.00 39.90
179.00 39.51
180.00 39.15
181.00 38.81
182.00 38.51
183.00 38.24
184.00 38.00
185.00 37.79
186.00 37.61
187.00 37.47
188.00 37.36
189.00 37.29
190.00 37.24
191.00 37.24
192.00 37.27
193.00 37.33
194.00 37.43
195.00 37.57
196.00 37.74
197.00 37.96
198.00 38.21
199.00 38.51
200.00 38.85
201.00 39.25
202.00 39.69
203.00 40.20
204.00 40.75
205.00 41.37
206.00 42.04
207.00 42.78
208.00 43.57
209.00 44.38
210.00 45.17
211.00 45.87
212.00 46.38
213.00 46.60
214.00 46.44
215.00 45.96
216.00 45.25
217.00 44.40
218.00 43.49
219.00 42.58
220.00 41.70
221.00 40.88
222.00 40.12
223.00 39.41
224.00 38.74
225.00 38.12
226.00 37.54
227.00 37.00
228.00 36.50
229.00 36.01
230.00 35.55
231.00 35.12
232.00 34.69
233.00 34.28
234.00 33.87
235.00 33.48
236.00 33.08
237.00 32.69
238.00 32.29
239.00 31.89
240.00 31.49
241.00 31.07
242.00 30.65
243.00 30.22
244.00 29.79
245.00 29.35
246.00 28.90
247.00 28.45
248.00 27.99
249.00 27.53
250.00 27.06
251.00 26.60
252.00 26.13
253.00 25.67
254.00 25.21
255.00 24.75
256.00 24.30
257.00 23.85
258.00 23.41
259.00 22.97
260.00 22.54
261.00 22.11
262.00 21.69
263.00 21.28
264.00 20.87
265.00 20.47
266.00 20.08
267.00 19.69
268.00 19.31
269.00 18.93
270.00 18.57
271.00 18.20
272.00 17.85
273.00 17.50
274.00 17.15
275.00 16.81
276.00 16.48
277.00 16.15
278.00 15.82
279.00 15.50
280.00 15.18
281.00 14.86
282.00 14.55
283.00 14.24
284.00 13.93
285.00 13.63
286.00 13.33
287.00 13.03
288.00 12.74
289.00 12.44
290.00 12.15
291.00 11.86
292.00 11.57
293.00 11.28
294.00 11.00
295.00 10.71
296.00 10.43
297.00 10.15
298.00 9.87
299.00 9.59
300.00 9.31
301.00 9.04
302.00 8.77
303.00 8.49
304.00 8.23
305.00 7.96
306.00 7.70
307.00 7.44
308.00 7.18
309.00 6.92
310.00 6.67
311.00 6.42
312.00 6.18
313.00 5.93
314.00 5.69
315.00 5.46
316.00 5.22
317.00 5.00
318.00 4.77
319.00 4.55
320.00 4.34
321.00 4.13
322.00 3.92
323.00 3.72
324.00 3.52
325.00 3.33
326.00 3.14
327.00 2.96
328.00 2.78
329.00 2.61
330.00 2.44
331.00 2.28
332.00 2.12
333.00 1.97
334.00 1.82
335.00 1.68
336.00 1.54
337.00 1.41
338.00 1.29
339.00 1.17
340.00 1.06
341.00 0.95
342.00 0.85
343.00 0.75
344.00 0.66
345.00 0.58
346.00 0.50
347.00 0.42
348.00 0.35
349.00 0.29
350.00 0.24
351.00 0.19
352.00 0.14
353.00 0.11
354.00 0.08
355.00 0.05
356.00 0.03
357.00 0.01
358.00 0.01
359.00 0.00
VERTICAL 360
0.00 10.22
1.00 7.14
2.00 4.78
3.00 2.99
4.00 1.67
5.00 0.76
6.00 0.21
7.00 0.00
8.00 0.12
9.00 0.56
10.00 1.34
11.00 2.50
12.00 4.09
13.00 6.20
14.00 8.95
15.00 12.61
16.00 17.71
17.00 25.62
18.00 29.66
19.00 24.65
20.00 23.06
21.00 23.75
22.00 26.75
23.00 34.37
24.00 35.96
25.00 27.10
26.00 23.29
27.00 21.32
28.00 20.39
29.00 20.23
30.00 20.79
31.00 22.13
32.00 24.38
33.00 27.83
34.00 32.92
35.00 39.21
36.00 39.65
37.00 38.15
38.00 38.71
39.00 39.54
40.00 36.40
41.00 31.88
42.00 28.25
43.00 25.51
44.00 23.50
45.00 22.09
46.00 21.19
47.00 20.69
48.00 20.50
49.00 20.57
50.00 20.90
51.00 21.57
52.00 22.71
53.00 24.44
54.00 26.93
55.00 30.36
56.00 35.21
57.00 43.07
58.00 41.84
59.00 34.71
60.00 30.75
61.00 28.39
62.00 27.11
63.00 26.74
64.00 27.24
65.00 28.52
66.00 29.96
67.00 30.26
68.00 29.41
69.00 28.74
70.00 28.97
71.00 30.31
72.00 32.92
73.00 36.74
74.00 39.08
75.00 37.18
76.00 35.48
77.00 35.42
78.00 36.91
79.00 37.40
80.00 33.99
81.00 30.76
82.00 29.07
83.00 28.77
84.00 29.45
85.00 30.22
86.00 29.88
87.00 28.62
88.00 27.46
89.00 26.90
90.00 27.08
91.00 28.05
92.00 29.55
93.00 30.60
94.00 30.17
95.00 29.09
96.00 28.39
97.00 28.26
98.00 28.65
99.00 29.51
100.00 30.89
101.00 32.71
102.00 34.43
103.00 35.22
104.00 35.08
105.00 34.79
106.00 34.90
107.00 35.79
108.00 37.75
109.00 41.11
110.00 44.38
111.00 41.35
112.00 37.15
113.00 34.46
114.00 33.05
115.00 32.66
116.00 33.14
117.00 34.43
118.00 36.24
119.00 36.95
120.00 35.38
121.00 33.55
122.00 32.64
123.00 32.70
124.00 33.48
125.00 34.57
126.00 35.24
127.00 34.93
128.00 34.09
129.00 33.47
130.00 33.45
131.00 34.00
132.00 34.87
133.00 35.71
134.00 36.21
135.00 36.34
136.00 36.38
137.00 36.59
138.00 36.99
139.00 37.39
140.00 37.47
141.00 37.07
142.00 36.32
143.00 35.57
144.00 35.14
145.00 35.19
146.00 35.71
147.00 36.56
148.00 37.50
149.00 38.27
150.00 38.76
151.00 39.02
152.00 39.13
153.00 39.13
154.00 39.02
155.00 38.79
156.00 38.43
157.00 37.93
158.00 37.36
159.00 37.02
160.00 37.22
161.00 38.21
162.00 39.89
163.00 41.34
164.00 41.67
165.00 41.43
166.00 40.82
167.00 39.50
168.00 38.10
169.00 37.38
170.00 37.50
171.00 38.18
172.00 38.97
173.00 39.51
174.00 39.66
175.00 39.90
176.00 40.35
177.00 40.58
178.00 40.12
179.00 39.41
180.00 39.23
181.00 39.81
182.00 40.93
183.00 41.90
184.00 42.02
185.00 41.39
186.00 40.84
187.00 40.92
188.00 41.55
189.00 42.22
190.00 42.37
191.00 41.81
192.00 40.95
193.00 40.55
194.00 41.16
195.00 42.89
196.00 45.18
197.00 46.51
198.00 46.36
199.00 46.03
200.00 46.76
201.00 49.93
202.00 57.85
203.00 52.20
204.00 46.96
205.00 44.73
206.00 43.56
207.00 42.40
208.00 40.81
209.00 39.07
210.00 37.80
211.00 37.49
212.00 38.27
213.00 40.03
214.00 42.61
215.00 46.44
216.00 52.03
217.00 49.28
218.00 44.11
219.00 40.84
220.00 38.72
221.00 37.70
222.00 37.86
223.00 38.90
224.00 40.00
225.00 40.27
226.00 39.02
227.00 36.63
228.00 34.67
229.00 34.00
230.00 34.72
231.00 36.55
232.00 38.46
233.00 38.74
234.00 37.01
235.00 34.82
236.00 33.44
237.00 33.30
238.00 34.28
239.00 35.67
240.00 36.34
241.00 36.24
242.00 36.32
243.00 37.18
244.00 39.11
245.00 42.24
246.00 45.68
247.00 46.25
248.00 43.73
249.00 40.99
250.00 39.47
251.00 39.49
252.00 40.84
253.00 42.48
254.00 43.01
255.00 42.53
256.00 41.67
257.00 41.21
258.00 42.07
259.00 44.84
260.00 49.24
261.00 50.81
262.00 46.96
263.00 42.84
264.00 40.36
265.00 39.77
266.00 40.92
267.00 43.12
268.00 43.96
269.00 41.59
270.00 38.72
271.00 37.05
272.00 37.06
273.00 38.87
274.00 41.79
275.00 41.47
276.00 37.90
277.00 34.81
278.00 32.79
279.00 31.90
280.00 32.09
281.00 33.08
282.00 34.18
283.00 34.30
284.00 33.06
285.00 31.49
286.00 30.59
287.00 30.72
288.00 31.93
289.00 34.16
290.00 37.14
291.00 39.40
292.00 38.31
293.00 36.37
294.00 35.87
295.00 37.30
296.00 41.32
297.00 52.04
298.00 48.60
299.00 41.00
300.00 37.83
301.00 36.49
302.00 36.26
303.00 36.55
304.00 36.89
305.00 37.39
306.00 38.50
307.00 40.64
308.00 43.19
309.00 41.13
310.00 36.05
311.00 31.73
312.00 28.29
313.00 25.56
314.00 23.44
315.00 21.85
316.00 20.74
317.00 20.05
318.00 19.73
319.00 19.74
320.00 20.07
321.00 20.73
322.00 21.83
323.00 23.55
324.00 26.24
325.00 30.36
326.00 34.27
327.00 31.26
328.00 27.83
329.00 26.09
330.00 25.64
331.00 26.14
332.00 27.35
333.00 29.10
334.00 31.33
335.00 33.75
336.00 34.40
337.00 32.28
338.00 30.15
339.00 29.31
340.00 30.16
341.00 33.07
342.00 34.47
343.00 29.07
344.00 24.70
345.00 21.95
346.00 20.36
347.00 19.69
348.00 19.90
349.00 21.08
350.00 23.46
351.00 27.17
352.00 29.57
353.00 27.31
354.00 25.58
355.00 26.33
356.00 32.39
357.00 32.58
358.00 20.40
359.00 14.36
