NAME ATR4518R7_1950_X_CO_M45_02T_yL
FREQUENCY 1950
GAIN 15.21 dBd
TILT	ELECTRICAL
COMMENT DATE 05.08.2013 -45 degrees polarized system Lever position 02T deg
HORIZONTAL 360
0.00 0.02
1.00 0.03
2.00 0.05
3.00 0.08
4.00 0.11
5.00 0.14
6.00 0.18
7.00 0.21
8.00 0.25
9.00 0.29
10.00 0.34
11.00 0.38
12.00 0.44
13.00 0.49
14.00 0.55
15.00 0.61
16.00 0.68
17.00 0.75
18.00 0.83
19.00 0.92
20.00 1.01
21.00 1.11
22.00 1.22
23.00 1.33
24.00 1.46
25.00 1.59
26.00 1.73
27.00 1.88
28.00 2.04
29.00 2.21
30.00 2.38
31.00 2.57
32.00 2.77
33.00 2.97
34.00 3.19
35.00 3.41
36.00 3.65
37.00 3.89
38.00 4.14
39.00 4.40
40.00 4.67
41.00 4.95
42.00 5.24
43.00 5.53
44.00 5.83
45.00 6.14
46.00 6.45
47.00 6.77
48.00 7.09
49.00 7.42
50.00 7.75
51.00 8.08
52.00 8.42
53.00 8.76
54.00 9.10
55.00 9.45
56.00 9.79
57.00 10.13
58.00 10.48
59.00 10.83
60.00 11.18
61.00 11.54
62.00 11.89
63.00 12.25
64.00 12.61
65.00 12.97
66.00 13.33
67.00 13.70
68.00 14.07
69.00 14.45
70.00 14.83
71.00 15.22
72.00 15.60
73.00 15.99
74.00 16.38
75.00 16.77
76.00 17.17
77.00 17.56
78.00 17.95
79.00 18.34
80.00 18.72
81.00 19.11
82.00 19.49
83.00 19.87
84.00 20.25
85.00 20.63
86.00 21.01
87.00 21.41
88.00 21.81
89.00 22.23
90.00 22.66
91.00 23.12
92.00 23.60
93.00 24.12
94.00 24.67
95.00 25.26
96.00 25.90
97.00 26.58
98.00 27.30
99.00 28.07
100.00 28.86
101.00 29.66
102.00 30.44
103.00 31.15
104.00 31.74
105.00 32.15
106.00 32.34
107.00 32.34
108.00 32.18
109.00 31.93
110.00 31.63
111.00 31.35
112.00 31.10
113.00 30.91
114.00 30.78
115.00 30.73
116.00 30.76
117.00 30.85
118.00 31.00
119.00 31.19
120.00 31.40
121.00 31.61
122.00 31.77
123.00 31.86
124.00 31.85
125.00 31.72
126.00 31.49
127.00 31.16
128.00 30.78
129.00 30.38
130.00 29.98
131.00 29.60
132.00 29.26
133.00 28.97
134.00 28.73
135.00 28.56
136.00 28.44
137.00 28.38
138.00 28.38
139.00 28.43
140.00 28.53
141.00 28.66
142.00 28.84
143.00 29.04
144.00 29.28
145.00 29.53
146.00 29.80
147.00 30.10
148.00 30.40
149.00 30.71
150.00 31.03
151.00 31.34
152.00 31.63
153.00 31.88
154.00 32.07
155.00 32.16
156.00 32.13
157.00 31.98
158.00 31.69
159.00 31.29
160.00 30.82
161.00 30.31
162.00 29.80
163.00 29.31
164.00 28.88
165.00 28.51
166.00 28.22
167.00 28.01
168.00 27.91
169.00 27.90
170.00 28.00
171.00 28.22
172.00 28.56
173.00 29.02
174.00 29.61
175.00 30.33
176.00 31.16
177.00 32.03
178.00 32.84
179.00 33.40
180.00 33.52
181.00 33.12
182.00 32.33
183.00 31.37
184.00 30.39
185.00 29.50
186.00 28.73
187.00 28.09
188.00 27.61
189.00 27.27
190.00 27.07
191.00 27.02
192.00 27.13
193.00 27.40
194.00 27.85
195.00 28.50
196.00 29.39
197.00 30.57
198.00 32.15
199.00 34.31
200.00 37.44
201.00 42.58
202.00 51.52
203.00 43.70
204.00 37.89
205.00 34.42
206.00 32.01
207.00 30.24
208.00 28.87
209.00 27.81
210.00 26.98
211.00 26.36
212.00 25.91
213.00 25.61
214.00 25.46
215.00 25.45
216.00 25.57
217.00 25.84
218.00 26.25
219.00 26.83
220.00 27.59
221.00 28.57
222.00 29.82
223.00 31.43
224.00 33.56
225.00 36.53
226.00 41.16
227.00 49.20
228.00 44.88
229.00 38.62
230.00 34.93
231.00 32.39
232.00 30.50
233.00 29.03
234.00 27.85
235.00 26.89
236.00 26.11
237.00 25.47
238.00 24.94
239.00 24.52
240.00 24.18
241.00 23.91
242.00 23.70
243.00 23.54
244.00 23.42
245.00 23.32
246.00 23.25
247.00 23.18
248.00 23.10
249.00 23.01
250.00 22.90
251.00 22.76
252.00 22.58
253.00 22.38
254.00 22.14
255.00 21.88
256.00 21.60
257.00 21.31
258.00 21.01
259.00 20.71
260.00 20.42
261.00 20.13
262.00 19.85
263.00 19.58
264.00 19.33
265.00 19.08
266.00 18.84
267.00 18.61
268.00 18.39
269.00 18.16
270.00 17.93
271.00 17.70
272.00 17.46
273.00 17.21
274.00 16.95
275.00 16.67
276.00 16.39
277.00 16.09
278.00 15.78
279.00 15.47
280.00 15.14
281.00 14.81
282.00 14.48
283.00 14.14
284.00 13.80
285.00 13.47
286.00 13.14
287.00 12.81
288.00 12.48
289.00 12.17
290.00 11.85
291.00 11.54
292.00 11.24
293.00 10.95
294.00 10.66
295.00 10.38
296.00 10.10
297.00 9.83
298.00 9.56
299.00 9.30
300.00 9.05
301.00 8.80
302.00 8.55
303.00 8.31
304.00 8.07
305.00 7.84
306.00 7.60
307.00 7.38
308.00 7.15
309.00 6.93
310.00 6.71
311.00 6.49
312.00 6.27
313.00 6.06
314.00 5.84
315.00 5.63
316.00 5.41
317.00 5.20
318.00 4.99
319.00 4.78
320.00 4.57
321.00 4.36
322.00 4.16
323.00 3.95
324.00 3.75
325.00 3.55
326.00 3.36
327.00 3.17
328.00 2.98
329.00 2.79
330.00 2.61
331.00 2.44
332.00 2.27
333.00 2.10
334.00 1.94
335.00 1.78
336.00 1.63
337.00 1.49
338.00 1.35
339.00 1.21
340.00 1.08
341.00 0.96
342.00 0.85
343.00 0.74
344.00 0.64
345.00 0.54
346.00 0.45
347.00 0.37
348.00 0.30
349.00 0.23
350.00 0.18
351.00 0.13
352.00 0.09
353.00 0.05
354.00 0.03
355.00 0.01
356.00 0.00
357.00 0.00
358.00 0.00
359.00 0.00
VERTICAL 360
0.00 1.91
1.00 0.60
2.00 0.02
3.00 0.16
4.00 1.09
5.00 2.96
6.00 6.08
7.00 11.29
8.00 22.51
9.00 21.07
10.00 14.96
11.00 13.75
12.00 15.10
13.00 18.62
14.00 19.85
15.00 16.13
16.00 13.82
17.00 13.33
18.00 14.34
19.00 16.74
20.00 20.66
21.00 24.35
22.00 21.77
23.00 18.71
24.00 17.60
25.00 18.34
26.00 20.91
27.00 24.30
28.00 23.74
29.00 21.03
30.00 19.25
31.00 18.35
32.00 18.22
33.00 18.97
34.00 20.71
35.00 23.10
36.00 24.24
37.00 22.90
38.00 20.98
39.00 19.40
40.00 18.25
41.00 17.56
42.00 17.31
43.00 17.46
44.00 17.99
45.00 18.99
46.00 20.72
47.00 23.49
48.00 27.54
49.00 31.54
50.00 31.30
51.00 29.19
52.00 27.10
53.00 25.07
54.00 23.49
55.00 22.72
56.00 22.86
57.00 23.89
58.00 25.78
59.00 28.51
60.00 32.18
61.00 37.16
62.00 42.13
63.00 40.43
64.00 37.63
65.00 36.48
66.00 36.79
67.00 38.35
68.00 40.54
69.00 41.87
70.00 41.41
71.00 39.90
72.00 38.33
73.00 37.34
74.00 37.03
75.00 37.11
76.00 37.03
77.00 36.41
78.00 35.54
79.00 35.01
80.00 35.11
81.00 35.80
82.00 36.83
83.00 37.64
84.00 37.72
85.00 37.53
86.00 38.18
87.00 40.53
88.00 45.45
89.00 52.30
90.00 49.86
91.00 45.34
92.00 41.70
93.00 39.56
94.00 39.14
95.00 40.32
96.00 42.57
97.00 44.35
98.00 44.39
99.00 43.47
100.00 42.31
101.00 41.37
102.00 41.06
103.00 41.38
104.00 41.88
105.00 42.06
106.00 42.25
107.00 43.19
108.00 45.46
109.00 49.78
110.00 59.37
111.00 59.14
112.00 50.58
113.00 46.28
114.00 43.17
115.00 40.78
116.00 39.12
117.00 38.11
118.00 37.60
119.00 37.42
120.00 37.46
121.00 37.62
122.00 37.70
123.00 37.45
124.00 37.07
125.00 37.19
126.00 38.56
127.00 42.09
128.00 48.72
129.00 46.16
130.00 41.57
131.00 39.69
132.00 39.10
133.00 38.92
134.00 38.81
135.00 39.13
136.00 40.56
137.00 43.64
138.00 45.99
139.00 42.75
140.00 39.75
141.00 38.35
142.00 38.15
143.00 38.85
144.00 40.26
145.00 42.04
146.00 43.51
147.00 43.67
148.00 42.24
149.00 40.20
150.00 38.13
151.00 36.01
152.00 34.03
153.00 32.66
154.00 32.21
155.00 32.69
156.00 33.68
157.00 34.26
158.00 34.20
159.00 34.34
160.00 35.08
161.00 35.51
162.00 34.50
163.00 33.17
164.00 32.79
165.00 33.67
166.00 35.57
167.00 37.55
168.00 38.81
169.00 40.29
170.00 42.97
171.00 46.20
172.00 49.91
173.00 60.76
174.00 44.79
175.00 38.09
176.00 34.59
177.00 32.84
178.00 32.36
179.00 32.95
180.00 34.53
181.00 36.77
182.00 38.31
183.00 37.73
184.00 36.15
185.00 34.69
186.00 33.66
187.00 33.20
188.00 33.43
189.00 34.36
190.00 35.84
191.00 37.68
192.00 39.71
193.00 41.73
194.00 42.97
195.00 42.08
196.00 39.48
197.00 36.94
198.00 35.31
199.00 34.76
200.00 35.15
201.00 36.09
202.00 37.03
203.00 37.50
204.00 36.88
205.00 35.30
206.00 34.04
207.00 34.01
208.00 35.81
209.00 40.61
210.00 49.22
211.00 40.57
212.00 36.09
213.00 34.16
214.00 33.59
215.00 34.04
216.00 35.45
217.00 38.08
218.00 42.75
219.00 52.46
220.00 47.08
221.00 40.68
222.00 37.42
223.00 35.59
224.00 34.69
225.00 34.40
226.00 34.41
227.00 34.49
228.00 34.67
229.00 35.13
230.00 35.96
231.00 36.88
232.00 37.23
233.00 36.71
234.00 35.81
235.00 35.00
236.00 34.33
237.00 33.80
238.00 33.49
239.00 33.57
240.00 34.08
241.00 35.00
242.00 36.27
243.00 37.93
244.00 40.16
245.00 43.09
246.00 44.89
247.00 42.82
248.00 40.53
249.00 39.79
250.00 40.59
251.00 42.54
252.00 44.38
253.00 44.58
254.00 43.54
255.00 42.38
256.00 41.58
257.00 40.66
258.00 38.95
259.00 37.16
260.00 36.18
261.00 36.29
262.00 37.35
263.00 38.85
264.00 39.92
265.00 39.90
266.00 39.09
267.00 38.26
268.00 37.88
269.00 37.97
270.00 38.30
271.00 38.60
272.00 38.75
273.00 38.62
274.00 38.00
275.00 36.78
276.00 35.18
277.00 33.51
278.00 31.96
279.00 30.64
280.00 29.60
281.00 28.81
282.00 28.17
283.00 27.55
284.00 26.86
285.00 26.13
286.00 25.41
287.00 24.78
288.00 24.29
289.00 23.91
290.00 23.65
291.00 23.50
292.00 23.54
293.00 23.86
294.00 24.60
295.00 25.82
296.00 27.35
297.00 28.40
298.00 28.06
299.00 26.79
300.00 25.49
301.00 24.44
302.00 23.61
303.00 23.00
304.00 22.66
305.00 22.71
306.00 23.30
307.00 24.61
308.00 26.86
309.00 29.93
310.00 30.76
311.00 27.57
312.00 24.54
313.00 22.55
314.00 21.47
315.00 21.19
316.00 21.69
317.00 23.01
318.00 25.26
319.00 28.51
320.00 32.72
321.00 37.03
322.00 38.78
323.00 36.85
324.00 33.09
325.00 29.24
326.00 26.06
327.00 23.81
328.00 22.64
329.00 22.76
330.00 24.63
331.00 29.41
332.00 32.29
333.00 24.95
334.00 20.79
335.00 18.71
336.00 18.09
337.00 18.91
338.00 21.66
339.00 28.46
340.00 32.39
341.00 23.24
342.00 19.97
343.00 19.36
344.00 21.15
345.00 27.08
346.00 37.88
347.00 23.08
348.00 18.77
349.00 17.12
350.00 17.07
351.00 18.23
352.00 20.27
353.00 22.92
354.00 27.72
355.00 29.94
356.00 18.05
357.00 11.47
358.00 7.09
359.00 4.02
