NAME ATR4518R7_2350_X_CO_P45_02T_yL
FREQUENCY 2350
GAIN 15.41 dBd
TILT	ELECTRICAL
COMMENT DATE 05.08.2013 +45 degrees polarized system Lever position 02T deg
HORIZONTAL 360
0.00 0.04
1.00 0.01
2.00 0.00
3.00 0.00
4.00 0.01
5.00 0.04
6.00 0.08
7.00 0.12
8.00 0.18
9.00 0.25
10.00 0.32
11.00 0.40
12.00 0.48
13.00 0.56
14.00 0.65
15.00 0.74
16.00 0.83
17.00 0.91
18.00 1.00
19.00 1.09
20.00 1.17
21.00 1.26
22.00 1.35
23.00 1.44
24.00 1.53
25.00 1.63
26.00 1.73
27.00 1.85
28.00 1.96
29.00 2.10
30.00 2.23
31.00 2.39
32.00 2.55
33.00 2.72
34.00 2.91
35.00 3.11
36.00 3.32
37.00 3.55
38.00 3.78
39.00 4.03
40.00 4.28
41.00 4.55
42.00 4.82
43.00 5.10
44.00 5.38
45.00 5.66
46.00 5.95
47.00 6.23
48.00 6.51
49.00 6.79
50.00 7.06
51.00 7.33
52.00 7.59
53.00 7.84
54.00 8.08
55.00 8.32
56.00 8.55
57.00 8.78
58.00 9.00
59.00 9.22
60.00 9.44
61.00 9.66
62.00 9.88
63.00 10.10
64.00 10.33
65.00 10.57
66.00 10.82
67.00 11.07
68.00 11.34
69.00 11.62
70.00 11.90
71.00 12.20
72.00 12.52
73.00 12.84
74.00 13.17
75.00 13.51
76.00 13.86
77.00 14.21
78.00 14.57
79.00 14.93
80.00 15.29
81.00 15.65
82.00 16.01
83.00 16.36
84.00 16.71
85.00 17.05
86.00 17.38
87.00 17.71
88.00 18.03
89.00 18.34
90.00 18.64
91.00 18.94
92.00 19.24
93.00 19.53
94.00 19.82
95.00 20.12
96.00 20.41
97.00 20.71
98.00 21.00
99.00 21.30
100.00 21.59
101.00 21.88
102.00 22.16
103.00 22.42
104.00 22.67
105.00 22.89
106.00 23.08
107.00 23.23
108.00 23.34
109.00 23.41
110.00 23.43
111.00 23.42
112.00 23.37
113.00 23.30
114.00 23.21
115.00 23.12
116.00 23.03
117.00 22.95
118.00 22.89
119.00 22.87
120.00 22.87
121.00 22.93
122.00 23.02
123.00 23.17
124.00 23.38
125.00 23.64
126.00 23.98
127.00 24.37
128.00 24.84
129.00 25.37
130.00 25.96
131.00 26.62
132.00 27.33
133.00 28.06
134.00 28.80
135.00 29.49
136.00 30.11
137.00 30.60
138.00 30.94
139.00 31.13
140.00 31.20
141.00 31.20
142.00 31.17
143.00 31.15
144.00 31.17
145.00 31.25
146.00 31.39
147.00 31.61
148.00 31.87
149.00 32.19
150.00 32.52
151.00 32.84
152.00 33.12
153.00 33.33
154.00 33.45
155.00 33.48
156.00 33.42
157.00 33.31
158.00 33.16
159.00 33.00
160.00 32.85
161.00 32.70
162.00 32.55
163.00 32.40
164.00 32.23
165.00 32.03
166.00 31.79
167.00 31.51
168.00 31.19
169.00 30.84
170.00 30.49
171.00 30.15
172.00 29.84
173.00 29.56
174.00 29.34
175.00 29.18
176.00 29.08
177.00 29.05
178.00 29.08
179.00 29.17
180.00 29.32
181.00 29.50
182.00 29.72
183.00 29.95
184.00 30.19
185.00 30.41
186.00 30.61
187.00 30.79
188.00 30.95
189.00 31.10
190.00 31.27
191.00 31.46
192.00 31.71
193.00 32.03
194.00 32.43
195.00 32.93
196.00 33.51
197.00 34.17
198.00 34.87
199.00 35.50
200.00 35.97
201.00 36.13
202.00 35.93
203.00 35.44
204.00 34.76
205.00 34.05
206.00 33.38
207.00 32.82
208.00 32.39
209.00 32.10
210.00 31.97
211.00 31.99
212.00 32.19
213.00 32.57
214.00 33.15
215.00 33.95
216.00 35.01
217.00 36.38
218.00 38.16
219.00 40.49
220.00 43.62
221.00 47.73
222.00 50.28
223.00 47.30
224.00 43.90
225.00 41.49
226.00 39.85
227.00 38.75
228.00 38.04
229.00 37.70
230.00 37.65
231.00 37.90
232.00 38.45
233.00 39.35
234.00 40.67
235.00 42.54
236.00 45.23
237.00 49.19
238.00 53.39
239.00 50.23
240.00 45.59
241.00 42.30
242.00 39.90
243.00 38.06
244.00 36.60
245.00 35.41
246.00 34.44
247.00 33.64
248.00 32.97
249.00 32.42
250.00 31.98
251.00 31.64
252.00 31.37
253.00 31.19
254.00 31.08
255.00 31.02
256.00 31.01
257.00 31.02
258.00 31.04
259.00 31.00
260.00 30.89
261.00 30.65
262.00 30.27
263.00 29.74
264.00 29.10
265.00 28.36
266.00 27.59
267.00 26.82
268.00 26.06
269.00 25.35
270.00 24.70
271.00 24.10
272.00 23.57
273.00 23.10
274.00 22.69
275.00 22.35
276.00 22.06
277.00 21.82
278.00 21.62
279.00 21.45
280.00 21.31
281.00 21.17
282.00 21.03
283.00 20.88
284.00 20.69
285.00 20.45
286.00 20.16
287.00 19.81
288.00 19.41
289.00 18.95
290.00 18.44
291.00 17.91
292.00 17.35
293.00 16.78
294.00 16.20
295.00 15.63
296.00 15.07
297.00 14.52
298.00 13.98
299.00 13.46
300.00 12.95
301.00 12.46
302.00 11.98
303.00 11.51
304.00 11.06
305.00 10.61
306.00 10.17
307.00 9.75
308.00 9.32
309.00 8.91
310.00 8.50
311.00 8.10
312.00 7.71
313.00 7.32
314.00 6.95
315.00 6.58
316.00 6.22
317.00 5.88
318.00 5.55
319.00 5.24
320.00 4.93
321.00 4.64
322.00 4.37
323.00 4.11
324.00 3.87
325.00 3.64
326.00 3.43
327.00 3.23
328.00 3.04
329.00 2.87
330.00 2.71
331.00 2.56
332.00 2.43
333.00 2.31
334.00 2.19
335.00 2.08
336.00 1.98
337.00 1.89
338.00 1.80
339.00 1.72
340.00 1.64
341.00 1.56
342.00 1.48
343.00 1.40
344.00 1.32
345.00 1.24
346.00 1.15
347.00 1.06
348.00 0.97
349.00 0.88
350.00 0.78
351.00 0.69
352.00 0.59
353.00 0.50
354.00 0.41
355.00 0.33
356.00 0.25
357.00 0.18
358.00 0.12
359.00 0.07
VERTICAL 360
0.00 2.60
1.00 0.74
2.00 0.00
3.00 0.35
4.00 1.96
5.00 5.31
6.00 12.20
7.00 29.24
8.00 12.91
9.00 10.12
10.00 10.82
11.00 14.78
12.00 26.62
13.00 21.22
14.00 15.99
15.00 15.42
16.00 17.70
17.00 23.08
18.00 23.56
19.00 18.51
20.00 16.78
21.00 18.11
22.00 23.76
23.00 35.19
24.00 22.73
25.00 19.48
26.00 18.69
27.00 18.82
28.00 19.37
29.00 20.01
30.00 20.13
31.00 19.63
32.00 18.84
33.00 17.68
34.00 16.42
35.00 15.73
36.00 16.00
37.00 17.23
38.00 19.26
39.00 22.23
40.00 27.33
41.00 35.88
42.00 28.08
43.00 23.50
44.00 21.73
45.00 21.76
46.00 23.54
47.00 27.87
48.00 39.49
49.00 34.35
50.00 27.87
51.00 25.26
52.00 24.14
53.00 23.97
54.00 24.70
55.00 26.43
56.00 29.39
57.00 33.81
58.00 38.48
59.00 37.31
60.00 33.95
61.00 31.92
62.00 31.08
63.00 30.92
64.00 31.15
65.00 31.77
66.00 32.68
67.00 33.72
68.00 34.66
69.00 35.58
70.00 37.24
71.00 40.37
72.00 43.11
73.00 41.85
74.00 39.53
75.00 37.44
76.00 36.14
77.00 35.85
78.00 36.31
79.00 36.81
80.00 36.20
81.00 34.61
82.00 33.39
83.00 33.26
84.00 34.32
85.00 36.35
86.00 38.79
87.00 41.08
88.00 42.88
89.00 43.30
90.00 41.87
91.00 39.49
92.00 37.47
93.00 36.65
94.00 37.21
95.00 39.10
96.00 42.25
97.00 46.51
98.00 48.66
99.00 46.53
100.00 44.86
101.00 44.09
102.00 43.48
103.00 42.81
104.00 42.53
105.00 43.32
106.00 45.59
107.00 48.25
108.00 47.62
109.00 45.68
110.00 44.42
111.00 43.30
112.00 41.90
113.00 40.43
114.00 39.31
115.00 38.67
116.00 38.47
117.00 38.90
118.00 40.55
119.00 44.73
120.00 51.07
121.00 44.08
122.00 40.83
123.00 41.78
124.00 47.10
125.00 43.63
126.00 38.50
127.00 36.86
128.00 37.49
129.00 39.69
130.00 42.10
131.00 43.15
132.00 44.21
133.00 43.25
134.00 39.13
135.00 36.79
136.00 37.03
137.00 39.24
138.00 39.74
139.00 38.01
140.00 37.76
141.00 39.05
142.00 40.47
143.00 40.80
144.00 39.77
145.00 38.17
146.00 37.08
147.00 36.93
148.00 38.04
149.00 40.88
150.00 45.24
151.00 45.98
152.00 44.54
153.00 44.18
154.00 38.94
155.00 34.03
156.00 32.01
157.00 32.85
158.00 36.92
159.00 45.64
160.00 69.74
161.00 45.67
162.00 39.23
163.00 37.99
164.00 41.46
165.00 47.45
166.00 42.24
167.00 40.89
168.00 42.85
169.00 46.20
170.00 47.39
171.00 51.39
172.00 45.87
173.00 36.86
174.00 33.22
175.00 32.38
176.00 32.19
177.00 30.87
178.00 29.84
179.00 30.20
180.00 31.57
181.00 32.85
182.00 33.85
183.00 35.30
184.00 37.01
185.00 38.19
186.00 39.44
187.00 41.27
188.00 42.69
189.00 41.33
190.00 37.56
191.00 35.41
192.00 35.84
193.00 37.73
194.00 38.47
195.00 40.85
196.00 44.95
197.00 37.25
198.00 34.37
199.00 35.30
200.00 38.41
201.00 40.24
202.00 41.60
203.00 45.62
204.00 57.37
205.00 46.94
206.00 39.93
207.00 38.30
208.00 40.73
209.00 46.81
210.00 50.48
211.00 55.73
212.00 42.90
213.00 38.44
214.00 38.53
215.00 42.40
216.00 45.00
217.00 42.18
218.00 41.37
219.00 41.76
220.00 42.21
221.00 39.95
222.00 35.18
223.00 31.70
224.00 30.14
225.00 30.27
226.00 31.43
227.00 31.88
228.00 31.13
229.00 30.65
230.00 30.92
231.00 31.67
232.00 32.75
233.00 33.88
234.00 33.74
235.00 31.98
236.00 30.06
237.00 28.79
238.00 28.41
239.00 29.08
240.00 31.05
241.00 34.36
242.00 37.30
243.00 36.13
244.00 33.83
245.00 32.34
246.00 31.68
247.00 31.64
248.00 31.84
249.00 31.97
250.00 32.13
251.00 32.76
252.00 33.83
253.00 34.33
254.00 33.77
255.00 33.32
256.00 33.66
257.00 34.82
258.00 36.70
259.00 38.71
260.00 39.07
261.00 36.74
262.00 33.50
263.00 30.80
264.00 28.90
265.00 27.64
266.00 26.80
267.00 26.27
268.00 26.04
269.00 25.97
270.00 25.79
271.00 25.28
272.00 24.44
273.00 23.42
274.00 22.40
275.00 21.53
276.00 20.84
277.00 20.38
278.00 20.16
279.00 20.09
280.00 19.92
281.00 19.48
282.00 18.82
283.00 18.17
284.00 17.76
285.00 17.63
286.00 17.67
287.00 17.77
288.00 17.96
289.00 18.30
290.00 18.92
291.00 19.87
292.00 21.21
293.00 23.19
294.00 26.45
295.00 31.97
296.00 32.91
297.00 27.74
298.00 24.87
299.00 23.44
300.00 22.64
301.00 22.01
302.00 21.60
303.00 21.75
304.00 23.01
305.00 26.28
306.00 35.07
307.00 35.49
308.00 26.72
309.00 23.72
310.00 22.92
311.00 23.54
312.00 25.25
313.00 27.60
314.00 27.96
315.00 25.17
316.00 22.76
317.00 21.72
318.00 22.02
319.00 23.79
320.00 27.44
321.00 27.40
322.00 21.76
323.00 18.13
324.00 16.27
325.00 15.60
326.00 15.68
327.00 16.30
328.00 17.46
329.00 18.94
330.00 19.81
331.00 19.01
332.00 16.87
333.00 14.76
334.00 13.55
335.00 13.65
336.00 15.45
337.00 20.11
338.00 38.26
339.00 23.00
340.00 17.85
341.00 16.79
342.00 18.55
343.00 24.33
344.00 30.27
345.00 21.35
346.00 18.35
347.00 18.49
348.00 21.70
349.00 26.94
350.00 21.86
351.00 18.36
352.00 18.13
353.00 21.14
354.00 29.09
355.00 28.84
356.00 25.63
357.00 18.58
358.00 10.89
359.00 5.82
