NAME ATR4518R7_0947_X_CO_P45_10T
FREQUENCY 0947
GAIN 14.89 dBd
TILT	ELECTRICAL
COMMENT DATE 05.08.2013 +45 degrees polarized system Lever position 10T deg
HORIZONTAL 360
0.00 0.03
1.00 0.01
2.00 0.00
3.00 0.00
4.00 0.00
5.00 0.01
6.00 0.03
7.00 0.05
8.00 0.08
9.00 0.12
10.00 0.16
11.00 0.21
12.00 0.26
13.00 0.32
14.00 0.39
15.00 0.46
16.00 0.54
17.00 0.62
18.00 0.72
19.00 0.81
20.00 0.92
21.00 1.03
22.00 1.14
23.00 1.27
24.00 1.39
25.00 1.53
26.00 1.67
27.00 1.81
28.00 1.96
29.00 2.12
30.00 2.28
31.00 2.45
32.00 2.63
33.00 2.81
34.00 2.99
35.00 3.18
36.00 3.38
37.00 3.58
38.00 3.78
39.00 4.00
40.00 4.21
41.00 4.43
42.00 4.66
43.00 4.89
44.00 5.13
45.00 5.37
46.00 5.62
47.00 5.87
48.00 6.12
49.00 6.38
50.00 6.65
51.00 6.92
52.00 7.19
53.00 7.47
54.00 7.75
55.00 8.04
56.00 8.34
57.00 8.63
58.00 8.93
59.00 9.24
60.00 9.55
61.00 9.86
62.00 10.18
63.00 10.50
64.00 10.83
65.00 11.16
66.00 11.50
67.00 11.84
68.00 12.18
69.00 12.53
70.00 12.89
71.00 13.25
72.00 13.61
73.00 13.98
74.00 14.35
75.00 14.73
76.00 15.11
77.00 15.50
78.00 15.89
79.00 16.28
80.00 16.68
81.00 17.09
82.00 17.50
83.00 17.91
84.00 18.33
85.00 18.75
86.00 19.18
87.00 19.61
88.00 20.04
89.00 20.48
90.00 20.92
91.00 21.36
92.00 21.80
93.00 22.24
94.00 22.68
95.00 23.12
96.00 23.56
97.00 24.00
98.00 24.43
99.00 24.85
100.00 25.26
101.00 25.66
102.00 26.05
103.00 26.42
104.00 26.77
105.00 27.10
106.00 27.40
107.00 27.68
108.00 27.93
109.00 28.16
110.00 28.34
111.00 28.50
112.00 28.64
113.00 28.74
114.00 28.82
115.00 28.87
116.00 28.90
117.00 28.92
118.00 28.92
119.00 28.92
120.00 28.90
121.00 28.88
122.00 28.87
123.00 28.85
124.00 28.84
125.00 28.83
126.00 28.83
127.00 28.84
128.00 28.87
129.00 28.90
130.00 28.95
131.00 29.02
132.00 29.11
133.00 29.21
134.00 29.33
135.00 29.48
136.00 29.65
137.00 29.84
138.00 30.06
139.00 30.31
140.00 30.58
141.00 30.89
142.00 31.23
143.00 31.61
144.00 32.03
145.00 32.48
146.00 32.98
147.00 33.53
148.00 34.13
149.00 34.77
150.00 35.47
151.00 36.21
152.00 36.99
153.00 37.77
154.00 38.52
155.00 39.18
156.00 39.66
157.00 39.87
158.00 39.76
159.00 39.37
160.00 38.76
161.00 38.03
162.00 37.23
163.00 36.44
164.00 35.67
165.00 34.95
166.00 34.27
167.00 33.65
168.00 33.08
169.00 32.56
170.00 32.09
171.00 31.66
172.00 31.28
173.00 30.93
174.00 30.63
175.00 30.36
176.00 30.13
177.00 29.93
178.00 29.76
179.00 29.63
180.00 29.53
181.00 29.45
182.00 29.41
183.00 29.40
184.00 29.41
185.00 29.45
186.00 29.53
187.00 29.62
188.00 29.75
189.00 29.91
190.00 30.09
191.00 30.30
192.00 30.54
193.00 30.80
194.00 31.10
195.00 31.41
196.00 31.75
197.00 32.11
198.00 32.48
199.00 32.86
200.00 33.25
201.00 33.63
202.00 33.99
203.00 34.32
204.00 34.60
205.00 34.82
206.00 34.97
207.00 35.03
208.00 35.01
209.00 34.91
210.00 34.74
211.00 34.50
212.00 34.22
213.00 33.92
214.00 33.60
215.00 33.27
216.00 32.94
217.00 32.63
218.00 32.33
219.00 32.04
220.00 31.77
221.00 31.53
222.00 31.31
223.00 31.10
224.00 30.92
225.00 30.76
226.00 30.61
227.00 30.49
228.00 30.38
229.00 30.28
230.00 30.20
231.00 30.13
232.00 30.06
233.00 30.01
234.00 29.96
235.00 29.92
236.00 29.88
237.00 29.84
238.00 29.80
239.00 29.76
240.00 29.71
241.00 29.67
242.00 29.62
243.00 29.56
244.00 29.51
245.00 29.45
246.00 29.39
247.00 29.33
248.00 29.28
249.00 29.23
250.00 29.18
251.00 29.14
252.00 29.10
253.00 29.08
254.00 29.07
255.00 29.07
256.00 29.09
257.00 29.12
258.00 29.17
259.00 29.24
260.00 29.32
261.00 29.42
262.00 29.53
263.00 29.65
264.00 29.78
265.00 29.91
266.00 30.04
267.00 30.15
268.00 30.22
269.00 30.25
270.00 30.22
271.00 30.11
272.00 29.91
273.00 29.61
274.00 29.22
275.00 28.74
276.00 28.18
277.00 27.57
278.00 26.91
279.00 26.22
280.00 25.52
281.00 24.81
282.00 24.10
283.00 23.40
284.00 22.70
285.00 22.02
286.00 21.36
287.00 20.71
288.00 20.08
289.00 19.46
290.00 18.86
291.00 18.28
292.00 17.71
293.00 17.15
294.00 16.61
295.00 16.09
296.00 15.57
297.00 15.07
298.00 14.58
299.00 14.11
300.00 13.64
301.00 13.18
302.00 12.74
303.00 12.30
304.00 11.88
305.00 11.46
306.00 11.05
307.00 10.66
308.00 10.26
309.00 9.88
310.00 9.51
311.00 9.14
312.00 8.79
313.00 8.44
314.00 8.10
315.00 7.76
316.00 7.44
317.00 7.11
318.00 6.81
319.00 6.50
320.00 6.20
321.00 5.91
322.00 5.63
323.00 5.36
324.00 5.09
325.00 4.83
326.00 4.57
327.00 4.33
328.00 4.08
329.00 3.85
330.00 3.63
331.00 3.41
332.00 3.20
333.00 2.99
334.00 2.79
335.00 2.60
336.00 2.42
337.00 2.24
338.00 2.07
339.00 1.91
340.00 1.75
341.00 1.60
342.00 1.46
343.00 1.32
344.00 1.19
345.00 1.07
346.00 0.95
347.00 0.84
348.00 0.74
349.00 0.65
350.00 0.56
351.00 0.47
352.00 0.40
353.00 0.33
354.00 0.27
355.00 0.21
356.00 0.16
357.00 0.12
358.00 0.08
359.00 0.05
VERTICAL 360
0.00 26.38
1.00 22.88
2.00 16.69
3.00 11.93
4.00 8.36
5.00 5.63
6.00 3.55
7.00 2.00
8.00 0.91
9.00 0.25
10.00 0.00
11.00 0.16
12.00 0.73
13.00 1.72
14.00 3.17
15.00 5.16
16.00 7.88
17.00 11.65
18.00 17.14
19.00 24.01
20.00 22.00
21.00 18.94
22.00 17.96
23.00 18.45
24.00 20.38
25.00 24.41
26.00 33.99
27.00 34.08
28.00 26.29
29.00 23.64
30.00 22.78
31.00 22.88
32.00 23.70
33.00 25.38
34.00 28.45
35.00 33.95
36.00 43.10
37.00 39.84
38.00 36.52
39.00 34.70
40.00 32.83
41.00 31.01
42.00 29.50
43.00 28.44
44.00 27.90
45.00 27.79
46.00 27.94
47.00 28.38
48.00 29.30
49.00 30.95
50.00 33.43
51.00 35.60
52.00 34.88
53.00 33.52
54.00 32.93
55.00 31.59
56.00 29.23
57.00 27.27
58.00 26.32
59.00 26.62
60.00 28.20
61.00 29.83
62.00 28.69
63.00 26.45
64.00 25.31
65.00 25.67
66.00 27.41
67.00 29.93
68.00 31.52
69.00 31.18
70.00 31.00
71.00 32.85
72.00 36.31
73.00 34.14
74.00 30.95
75.00 30.07
76.00 31.43
77.00 35.75
78.00 41.87
79.00 37.46
80.00 34.26
81.00 32.49
82.00 31.39
83.00 30.14
84.00 28.57
85.00 28.18
86.00 29.94
87.00 32.85
88.00 31.43
89.00 28.37
90.00 26.03
91.00 25.63
92.00 27.75
93.00 33.02
94.00 39.72
95.00 30.51
96.00 26.64
97.00 25.54
98.00 26.93
99.00 30.74
100.00 36.81
101.00 43.24
102.00 34.71
103.00 30.64
104.00 30.09
105.00 30.83
106.00 31.27
107.00 33.43
108.00 41.30
109.00 40.46
110.00 33.74
111.00 31.41
112.00 31.33
113.00 33.86
114.00 40.78
115.00 42.26
116.00 36.24
117.00 34.52
118.00 35.86
119.00 41.79
120.00 51.83
121.00 40.29
122.00 38.02
123.00 39.89
124.00 51.30
125.00 41.33
126.00 34.62
127.00 32.33
128.00 32.33
129.00 34.01
130.00 36.31
131.00 35.69
132.00 33.07
133.00 31.37
134.00 31.07
135.00 32.30
136.00 35.06
137.00 38.40
138.00 39.31
139.00 37.55
140.00 36.26
141.00 36.78
142.00 39.05
143.00 42.22
144.00 47.20
145.00 48.93
146.00 41.92
147.00 39.38
148.00 39.89
149.00 40.69
150.00 36.67
151.00 32.78
152.00 30.76
153.00 30.16
154.00 30.34
155.00 30.63
156.00 30.68
157.00 30.80
158.00 31.58
159.00 33.40
160.00 36.58
161.00 39.65
162.00 38.02
163.00 35.74
164.00 34.23
165.00 32.53
166.00 30.75
167.00 29.36
168.00 28.66
169.00 28.76
170.00 29.40
171.00 29.76
172.00 30.05
173.00 30.57
174.00 31.18
175.00 31.27
176.00 30.85
177.00 30.89
178.00 32.32
179.00 35.37
180.00 37.46
181.00 36.19
182.00 34.95
183.00 34.32
184.00 33.60
185.00 32.92
186.00 32.69
187.00 32.60
188.00 32.24
189.00 31.91
190.00 31.78
191.00 31.45
192.00 30.87
193.00 30.57
194.00 31.07
195.00 32.27
196.00 32.86
197.00 32.36
198.00 32.40
199.00 33.91
200.00 37.49
201.00 45.53
202.00 44.98
203.00 36.49
204.00 31.74
205.00 28.66
206.00 26.94
207.00 26.30
208.00 26.39
209.00 26.87
210.00 27.59
211.00 28.63
212.00 30.31
213.00 32.87
214.00 35.62
215.00 37.31
216.00 38.28
217.00 38.83
218.00 38.78
219.00 38.38
220.00 37.65
221.00 36.92
222.00 36.63
223.00 36.64
224.00 36.24
225.00 35.20
226.00 34.05
227.00 33.20
228.00 32.65
229.00 31.88
230.00 30.83
231.00 30.29
232.00 30.66
233.00 31.48
234.00 32.16
235.00 32.84
236.00 33.98
237.00 36.10
238.00 40.16
239.00 47.10
240.00 51.13
241.00 47.72
242.00 43.30
243.00 38.41
244.00 34.24
245.00 31.81
246.00 31.22
247.00 32.13
248.00 33.59
249.00 34.29
250.00 34.07
251.00 34.32
252.00 35.80
253.00 37.46
254.00 37.98
255.00 38.69
256.00 39.39
257.00 39.14
258.00 38.20
259.00 36.81
260.00 36.69
261.00 38.45
262.00 40.29
263.00 40.08
264.00 35.94
265.00 31.68
266.00 29.59
267.00 29.19
268.00 29.42
269.00 29.70
270.00 29.88
271.00 29.32
272.00 28.24
273.00 27.47
274.00 27.15
275.00 27.31
276.00 28.05
277.00 28.87
278.00 28.94
279.00 28.44
280.00 27.93
281.00 27.69
282.00 28.03
283.00 29.07
284.00 30.43
285.00 31.35
286.00 31.47
287.00 31.35
288.00 31.77
289.00 32.85
290.00 33.72
291.00 33.54
292.00 32.95
293.00 32.90
294.00 34.25
295.00 37.52
296.00 40.48
297.00 39.13
298.00 37.53
299.00 37.20
300.00 39.33
301.00 45.15
302.00 43.39
303.00 41.42
304.00 46.53
305.00 50.17
306.00 38.14
307.00 33.42
308.00 31.60
309.00 32.64
310.00 37.80
311.00 41.83
312.00 35.16
313.00 33.18
314.00 34.55
315.00 40.14
316.00 39.37
317.00 33.44
318.00 31.93
319.00 34.09
320.00 40.46
321.00 34.70
322.00 29.50
323.00 27.70
324.00 27.77
325.00 27.58
326.00 25.84
327.00 24.28
328.00 23.93
329.00 25.03
330.00 27.34
331.00 28.79
332.00 27.25
333.00 25.03
334.00 22.92
335.00 20.99
336.00 19.63
337.00 19.18
338.00 19.85
339.00 21.79
340.00 24.84
341.00 27.37
342.00 27.30
343.00 26.71
344.00 26.94
345.00 27.86
346.00 28.85
347.00 28.07
348.00 24.78
349.00 21.37
350.00 18.92
351.00 17.51
352.00 17.09
353.00 17.68
354.00 19.40
355.00 22.53
356.00 26.67
357.00 27.22
358.00 25.20
359.00 25.03
