NAME ATR4518R7_0894_X_CO_P45_04T
FREQUENCY 0894
GAIN 14.77 dBd
TILT	ELECTRICAL
COMMENT DATE 05.08.2013 +45 degrees polarized system Lever position 04T deg
HORIZONTAL 360
0.00 0.01
1.00 0.00
2.00 0.01
3.00 0.01
4.00 0.03
5.00 0.05
6.00 0.07
7.00 0.10
8.00 0.14
9.00 0.19
10.00 0.24
11.00 0.29
12.00 0.36
13.00 0.42
14.00 0.50
15.00 0.58
16.00 0.67
17.00 0.76
18.00 0.86
19.00 0.97
20.00 1.08
21.00 1.20
22.00 1.32
23.00 1.45
24.00 1.59
25.00 1.73
26.00 1.88
27.00 2.03
28.00 2.19
29.00 2.36
30.00 2.53
31.00 2.71
32.00 2.90
33.00 3.09
34.00 3.28
35.00 3.49
36.00 3.69
37.00 3.91
38.00 4.13
39.00 4.36
40.00 4.59
41.00 4.83
42.00 5.07
43.00 5.32
44.00 5.58
45.00 5.84
46.00 6.11
47.00 6.38
48.00 6.66
49.00 6.95
50.00 7.24
51.00 7.54
52.00 7.84
53.00 8.15
54.00 8.47
55.00 8.79
56.00 9.12
57.00 9.45
58.00 9.79
59.00 10.14
60.00 10.49
61.00 10.85
62.00 11.21
63.00 11.58
64.00 11.96
65.00 12.34
66.00 12.73
67.00 13.13
68.00 13.53
69.00 13.94
70.00 14.35
71.00 14.78
72.00 15.21
73.00 15.65
74.00 16.09
75.00 16.55
76.00 17.01
77.00 17.48
78.00 17.95
79.00 18.44
80.00 18.94
81.00 19.44
82.00 19.95
83.00 20.48
84.00 21.01
85.00 21.55
86.00 22.11
87.00 22.67
88.00 23.25
89.00 23.84
90.00 24.43
91.00 25.04
92.00 25.66
93.00 26.29
94.00 26.93
95.00 27.58
96.00 28.22
97.00 28.87
98.00 29.52
99.00 30.15
100.00 30.77
101.00 31.36
102.00 31.91
103.00 32.41
104.00 32.84
105.00 33.20
106.00 33.47
107.00 33.67
108.00 33.78
109.00 33.81
110.00 33.78
111.00 33.70
112.00 33.57
113.00 33.42
114.00 33.24
115.00 33.06
116.00 32.87
117.00 32.69
118.00 32.51
119.00 32.34
120.00 32.18
121.00 32.04
122.00 31.91
123.00 31.80
124.00 31.70
125.00 31.62
126.00 31.57
127.00 31.52
128.00 31.50
129.00 31.50
130.00 31.51
131.00 31.54
132.00 31.60
133.00 31.67
134.00 31.76
135.00 31.88
136.00 32.02
137.00 32.18
138.00 32.37
139.00 32.58
140.00 32.81
141.00 33.09
142.00 33.39
143.00 33.72
144.00 34.08
145.00 34.49
146.00 34.95
147.00 35.45
148.00 36.01
149.00 36.63
150.00 37.32
151.00 38.09
152.00 38.98
153.00 39.98
154.00 41.13
155.00 42.46
156.00 44.07
157.00 45.99
158.00 48.34
159.00 51.07
160.00 53.33
161.00 52.78
162.00 50.13
163.00 47.49
164.00 45.29
165.00 43.47
166.00 41.97
167.00 40.70
168.00 39.60
169.00 38.64
170.00 37.80
171.00 37.07
172.00 36.40
173.00 35.82
174.00 35.29
175.00 34.82
176.00 34.40
177.00 34.02
178.00 33.69
179.00 33.39
180.00 33.14
181.00 32.91
182.00 32.72
183.00 32.56
184.00 32.42
185.00 32.32
186.00 32.24
187.00 32.19
188.00 32.17
189.00 32.17
190.00 32.19
191.00 32.24
192.00 32.32
193.00 32.42
194.00 32.54
195.00 32.68
196.00 32.85
197.00 33.05
198.00 33.27
199.00 33.51
200.00 33.78
201.00 34.07
202.00 34.39
203.00 34.73
204.00 35.10
205.00 35.50
206.00 35.92
207.00 36.37
208.00 36.86
209.00 37.37
210.00 37.91
211.00 38.48
212.00 39.09
213.00 39.73
214.00 40.40
215.00 41.11
216.00 41.84
217.00 42.60
218.00 43.39
219.00 44.20
220.00 44.97
221.00 45.73
222.00 46.40
223.00 46.97
224.00 47.33
225.00 47.46
226.00 47.34
227.00 47.02
228.00 46.49
229.00 45.86
230.00 45.16
231.00 44.41
232.00 43.63
233.00 42.88
234.00 42.12
235.00 41.39
236.00 40.66
237.00 39.96
238.00 39.28
239.00 38.62
240.00 37.97
241.00 37.34
242.00 36.72
243.00 36.13
244.00 35.54
245.00 34.96
246.00 34.39
247.00 33.83
248.00 33.28
249.00 32.75
250.00 32.21
251.00 31.69
252.00 31.16
253.00 30.64
254.00 30.13
255.00 29.62
256.00 29.11
257.00 28.61
258.00 28.11
259.00 27.61
260.00 27.11
261.00 26.62
262.00 26.13
263.00 25.64
264.00 25.15
265.00 24.67
266.00 24.19
267.00 23.71
268.00 23.24
269.00 22.77
270.00 22.30
271.00 21.84
272.00 21.38
273.00 20.93
274.00 20.48
275.00 20.04
276.00 19.60
277.00 19.17
278.00 18.75
279.00 18.32
280.00 17.91
281.00 17.50
282.00 17.09
283.00 16.69
284.00 16.29
285.00 15.90
286.00 15.52
287.00 15.14
288.00 14.77
289.00 14.39
290.00 14.03
291.00 13.67
292.00 13.31
293.00 12.96
294.00 12.61
295.00 12.27
296.00 11.93
297.00 11.60
298.00 11.27
299.00 10.94
300.00 10.62
301.00 10.30
302.00 9.99
303.00 9.68
304.00 9.37
305.00 9.07
306.00 8.78
307.00 8.48
308.00 8.19
309.00 7.90
310.00 7.62
311.00 7.35
312.00 7.08
313.00 6.80
314.00 6.54
315.00 6.28
316.00 6.03
317.00 5.78
318.00 5.53
319.00 5.28
320.00 5.05
321.00 4.82
322.00 4.59
323.00 4.36
324.00 4.15
325.00 3.93
326.00 3.73
327.00 3.52
328.00 3.33
329.00 3.13
330.00 2.95
331.00 2.77
332.00 2.59
333.00 2.42
334.00 2.26
335.00 2.10
336.00 1.94
337.00 1.79
338.00 1.65
339.00 1.51
340.00 1.38
341.00 1.26
342.00 1.14
343.00 1.02
344.00 0.92
345.00 0.81
346.00 0.72
347.00 0.63
348.00 0.54
349.00 0.47
350.00 0.39
351.00 0.33
352.00 0.27
353.00 0.22
354.00 0.17
355.00 0.13
356.00 0.09
357.00 0.06
358.00 0.04
359.00 0.02
VERTICAL 360
0.00 3.08
1.00 1.70
2.00 0.75
3.00 0.18
4.00 0.00
5.00 0.21
6.00 0.81
7.00 1.84
8.00 3.34
9.00 5.36
10.00 8.03
11.00 11.55
12.00 16.39
13.00 23.60
14.00 28.56
15.00 24.34
16.00 23.01
17.00 24.36
18.00 28.76
19.00 33.43
20.00 26.76
21.00 22.58
22.00 20.44
23.00 19.50
24.00 19.47
25.00 20.32
26.00 22.21
27.00 25.45
28.00 29.86
29.00 30.88
30.00 28.38
31.00 26.99
32.00 26.97
33.00 28.17
34.00 31.02
35.00 35.29
36.00 30.06
37.00 24.00
38.00 20.20
39.00 17.88
40.00 16.62
41.00 16.14
42.00 16.16
43.00 16.42
44.00 16.78
45.00 17.26
46.00 18.07
47.00 19.43
48.00 21.46
49.00 24.13
50.00 27.22
51.00 30.67
52.00 35.41
53.00 43.68
54.00 37.63
55.00 32.32
56.00 30.05
57.00 29.43
58.00 29.78
59.00 30.59
60.00 31.27
61.00 31.71
62.00 32.59
63.00 34.78
64.00 38.94
65.00 43.70
66.00 39.64
67.00 34.82
68.00 32.25
69.00 31.63
70.00 32.45
71.00 33.29
72.00 32.81
73.00 31.90
74.00 31.47
75.00 31.91
76.00 33.08
77.00 32.74
78.00 30.13
79.00 27.63
80.00 26.08
81.00 25.65
82.00 26.61
83.00 28.95
84.00 30.17
85.00 28.89
86.00 27.14
87.00 25.82
88.00 25.42
89.00 26.12
90.00 28.00
91.00 31.08
92.00 35.21
93.00 36.05
94.00 31.14
95.00 28.25
96.00 27.21
97.00 27.77
98.00 29.72
99.00 32.60
100.00 35.73
101.00 36.84
102.00 34.53
103.00 32.54
104.00 32.02
105.00 32.62
106.00 33.85
107.00 35.10
108.00 35.12
109.00 33.94
110.00 33.15
111.00 33.34
112.00 34.44
113.00 36.19
114.00 37.50
115.00 36.65
116.00 35.27
117.00 34.93
118.00 35.63
119.00 37.05
120.00 39.12
121.00 41.47
122.00 41.90
123.00 40.16
124.00 38.31
125.00 37.01
126.00 36.60
127.00 37.17
128.00 38.27
129.00 38.97
130.00 38.46
131.00 37.13
132.00 36.11
133.00 36.02
134.00 36.88
135.00 38.42
136.00 40.63
137.00 43.68
138.00 45.43
139.00 43.48
140.00 41.19
141.00 39.73
142.00 39.22
143.00 39.80
144.00 41.23
145.00 42.85
146.00 43.83
147.00 43.34
148.00 41.87
149.00 40.71
150.00 40.17
151.00 39.93
152.00 39.57
153.00 38.50
154.00 36.94
155.00 35.97
156.00 36.25
157.00 37.98
158.00 41.16
159.00 45.22
160.00 45.24
161.00 41.68
162.00 39.66
163.00 39.66
164.00 41.58
165.00 44.93
166.00 47.73
167.00 48.80
168.00 49.53
169.00 47.22
170.00 42.72
171.00 39.00
172.00 36.29
173.00 34.41
174.00 33.28
175.00 32.78
176.00 32.81
177.00 33.03
178.00 33.40
179.00 33.87
180.00 34.56
181.00 35.75
182.00 37.88
183.00 41.25
184.00 44.28
185.00 42.68
186.00 39.92
187.00 38.10
188.00 36.96
189.00 36.07
190.00 35.29
191.00 34.75
192.00 34.75
193.00 35.47
194.00 36.97
195.00 38.96
196.00 40.58
197.00 41.04
198.00 40.75
199.00 40.41
200.00 40.37
201.00 40.93
202.00 42.44
203.00 45.30
204.00 49.73
205.00 52.88
206.00 53.53
207.00 59.28
208.00 50.35
209.00 42.66
210.00 38.36
211.00 35.60
212.00 33.64
213.00 32.31
214.00 31.70
215.00 31.95
216.00 33.14
217.00 35.23
218.00 37.79
219.00 38.96
220.00 37.54
221.00 35.52
222.00 34.04
223.00 33.20
224.00 32.98
225.00 33.44
226.00 34.58
227.00 35.76
228.00 35.86
229.00 35.00
230.00 34.13
231.00 33.75
232.00 34.35
233.00 36.63
234.00 41.73
235.00 47.52
236.00 43.08
237.00 41.03
238.00 40.31
239.00 39.12
240.00 38.39
241.00 39.37
242.00 42.52
243.00 44.38
244.00 41.61
245.00 40.65
246.00 42.65
247.00 43.76
248.00 39.50
249.00 36.78
250.00 36.19
251.00 36.77
252.00 36.61
253.00 34.82
254.00 33.00
255.00 32.12
256.00 32.33
257.00 33.41
258.00 34.62
259.00 34.62
260.00 33.20
261.00 31.66
262.00 30.88
263.00 31.02
264.00 31.80
265.00 32.40
266.00 31.72
267.00 29.87
268.00 28.11
269.00 27.21
270.00 27.33
271.00 28.24
272.00 29.35
273.00 29.77
274.00 29.14
275.00 28.04
276.00 27.28
277.00 27.16
278.00 27.50
279.00 27.73
280.00 27.36
281.00 26.59
282.00 25.92
283.00 25.74
284.00 26.19
285.00 27.15
286.00 28.10
287.00 28.30
288.00 27.67
289.00 26.98
290.00 26.88
291.00 27.64
292.00 29.35
293.00 32.01
294.00 35.33
295.00 37.51
296.00 37.14
297.00 37.05
298.00 38.98
299.00 43.52
300.00 45.21
301.00 40.64
302.00 38.05
303.00 37.37
304.00 37.59
305.00 36.79
306.00 35.07
307.00 34.21
308.00 34.56
309.00 34.41
310.00 31.58
311.00 28.06
312.00 25.32
313.00 23.50
314.00 22.40
315.00 21.61
316.00 20.67
317.00 19.50
318.00 18.39
319.00 17.70
320.00 17.59
321.00 18.14
322.00 19.26
323.00 20.68
324.00 21.92
325.00 22.76
326.00 23.58
327.00 24.95
328.00 27.25
329.00 30.54
330.00 34.15
331.00 36.06
332.00 35.04
333.00 32.90
334.00 31.46
335.00 31.45
336.00 33.38
337.00 36.97
338.00 34.13
339.00 28.66
340.00 24.93
341.00 22.31
342.00 20.40
343.00 19.11
344.00 18.56
345.00 18.90
346.00 20.37
347.00 23.53
348.00 29.80
349.00 32.20
350.00 25.59
351.00 22.64
352.00 22.01
353.00 23.45
354.00 25.92
355.00 21.39
356.00 15.24
357.00 10.77
358.00 7.47
359.00 4.97
