NAME ATR4518R7_0947_X_CO_M45_00T
FREQUENCY 0947
GAIN 15.04 dBd
TILT	ELECTRICAL
COMMENT DATE 05.08.2013 -45 degrees polarized system Lever position 00T deg
HORIZONTAL 360
0.00 0.03
1.00 0.02
2.00 0.01
3.00 0.00
4.00 0.01
5.00 0.02
6.00 0.04
7.00 0.06
8.00 0.09
9.00 0.13
10.00 0.18
11.00 0.23
12.00 0.29
13.00 0.35
14.00 0.43
15.00 0.51
16.00 0.59
17.00 0.69
18.00 0.79
19.00 0.89
20.00 1.01
21.00 1.13
22.00 1.26
23.00 1.39
24.00 1.53
25.00 1.68
26.00 1.84
27.00 2.00
28.00 2.17
29.00 2.35
30.00 2.53
31.00 2.72
32.00 2.92
33.00 3.12
34.00 3.33
35.00 3.55
36.00 3.78
37.00 4.01
38.00 4.25
39.00 4.49
40.00 4.75
41.00 5.01
42.00 5.27
43.00 5.55
44.00 5.83
45.00 6.12
46.00 6.41
47.00 6.72
48.00 7.03
49.00 7.34
50.00 7.67
51.00 8.00
52.00 8.34
53.00 8.69
54.00 9.05
55.00 9.41
56.00 9.78
57.00 10.16
58.00 10.56
59.00 10.95
60.00 11.36
61.00 11.78
62.00 12.20
63.00 12.63
64.00 13.08
65.00 13.54
66.00 14.00
67.00 14.48
68.00 14.96
69.00 15.46
70.00 15.97
71.00 16.49
72.00 17.01
73.00 17.55
74.00 18.11
75.00 18.67
76.00 19.24
77.00 19.81
78.00 20.40
79.00 20.99
80.00 21.59
81.00 22.19
82.00 22.78
83.00 23.37
84.00 23.95
85.00 24.52
86.00 25.06
87.00 25.59
88.00 26.08
89.00 26.54
90.00 26.96
91.00 27.34
92.00 27.68
93.00 27.98
94.00 28.24
95.00 28.47
96.00 28.67
97.00 28.85
98.00 29.01
99.00 29.15
100.00 29.29
101.00 29.43
102.00 29.57
103.00 29.72
104.00 29.87
105.00 30.04
106.00 30.21
107.00 30.41
108.00 30.61
109.00 30.83
110.00 31.07
111.00 31.33
112.00 31.60
113.00 31.89
114.00 32.20
115.00 32.53
116.00 32.86
117.00 33.22
118.00 33.59
119.00 33.97
120.00 34.37
121.00 34.77
122.00 35.18
123.00 35.60
124.00 36.02
125.00 36.44
126.00 36.86
127.00 37.27
128.00 37.67
129.00 38.06
130.00 38.41
131.00 38.73
132.00 39.03
133.00 39.28
134.00 39.49
135.00 39.64
136.00 39.75
137.00 39.81
138.00 39.80
139.00 39.76
140.00 39.66
141.00 39.53
142.00 39.37
143.00 39.17
144.00 38.96
145.00 38.72
146.00 38.48
147.00 38.23
148.00 37.98
149.00 37.73
150.00 37.48
151.00 37.24
152.00 37.01
153.00 36.80
154.00 36.59
155.00 36.40
156.00 36.21
157.00 36.05
158.00 35.90
159.00 35.77
160.00 35.65
161.00 35.55
162.00 35.47
163.00 35.40
164.00 35.36
165.00 35.33
166.00 35.32
167.00 35.33
168.00 35.35
169.00 35.40
170.00 35.46
171.00 35.54
172.00 35.64
173.00 35.75
174.00 35.89
175.00 36.04
176.00 36.22
177.00 36.41
178.00 36.62
179.00 36.84
180.00 37.09
181.00 37.35
182.00 37.63
183.00 37.91
184.00 38.22
185.00 38.53
186.00 38.85
187.00 39.17
188.00 39.47
189.00 39.77
190.00 40.05
191.00 40.28
192.00 40.47
193.00 40.60
194.00 40.68
195.00 40.68
196.00 40.60
197.00 40.45
198.00 40.24
199.00 39.97
200.00 39.65
201.00 39.30
202.00 38.93
203.00 38.54
204.00 38.15
205.00 37.75
206.00 37.36
207.00 36.98
208.00 36.61
209.00 36.26
210.00 35.92
211.00 35.59
212.00 35.29
213.00 35.00
214.00 34.73
215.00 34.47
216.00 34.23
217.00 34.00
218.00 33.80
219.00 33.60
220.00 33.43
221.00 33.26
222.00 33.11
223.00 32.97
224.00 32.84
225.00 32.72
226.00 32.61
227.00 32.51
228.00 32.42
229.00 32.34
230.00 32.26
231.00 32.18
232.00 32.10
233.00 32.03
234.00 31.96
235.00 31.88
236.00 31.80
237.00 31.72
238.00 31.63
239.00 31.53
240.00 31.43
241.00 31.31
242.00 31.18
243.00 31.04
244.00 30.88
245.00 30.71
246.00 30.53
247.00 30.32
248.00 30.10
249.00 29.87
250.00 29.62
251.00 29.35
252.00 29.06
253.00 28.76
254.00 28.45
255.00 28.12
256.00 27.78
257.00 27.43
258.00 27.07
259.00 26.70
260.00 26.32
261.00 25.93
262.00 25.54
263.00 25.15
264.00 24.75
265.00 24.35
266.00 23.94
267.00 23.54
268.00 23.13
269.00 22.73
270.00 22.32
271.00 21.92
272.00 21.52
273.00 21.13
274.00 20.73
275.00 20.34
276.00 19.95
277.00 19.56
278.00 19.18
279.00 18.80
280.00 18.43
281.00 18.06
282.00 17.69
283.00 17.32
284.00 16.96
285.00 16.60
286.00 16.25
287.00 15.89
288.00 15.55
289.00 15.20
290.00 14.86
291.00 14.52
292.00 14.18
293.00 13.84
294.00 13.51
295.00 13.19
296.00 12.86
297.00 12.53
298.00 12.21
299.00 11.89
300.00 11.57
301.00 11.25
302.00 10.94
303.00 10.63
304.00 10.32
305.00 10.02
306.00 9.71
307.00 9.41
308.00 9.11
309.00 8.82
310.00 8.53
311.00 8.24
312.00 7.95
313.00 7.67
314.00 7.39
315.00 7.12
316.00 6.84
317.00 6.58
318.00 6.31
319.00 6.05
320.00 5.80
321.00 5.55
322.00 5.30
323.00 5.06
324.00 4.82
325.00 4.59
326.00 4.36
327.00 4.14
328.00 3.92
329.00 3.70
330.00 3.50
331.00 3.29
332.00 3.10
333.00 2.91
334.00 2.72
335.00 2.54
336.00 2.37
337.00 2.20
338.00 2.04
339.00 1.88
340.00 1.73
341.00 1.58
342.00 1.44
343.00 1.31
344.00 1.18
345.00 1.06
346.00 0.95
347.00 0.84
348.00 0.74
349.00 0.65
350.00 0.56
351.00 0.48
352.00 0.40
353.00 0.33
354.00 0.27
355.00 0.21
356.00 0.16
357.00 0.12
358.00 0.08
359.00 0.06
VERTICAL 360
0.00 0.00
1.00 0.20
2.00 0.81
3.00 1.87
4.00 3.43
5.00 5.57
6.00 8.42
7.00 12.17
8.00 17.03
9.00 22.01
10.00 23.08
11.00 22.60
12.00 23.97
13.00 28.59
14.00 34.27
15.00 26.26
16.00 22.21
17.00 20.61
18.00 20.54
19.00 21.73
20.00 24.39
21.00 29.91
22.00 44.33
23.00 29.57
24.00 24.72
25.00 22.95
26.00 23.17
27.00 25.27
28.00 28.77
29.00 27.67
30.00 22.84
31.00 19.04
32.00 16.28
33.00 14.32
34.00 13.03
35.00 12.30
36.00 12.07
37.00 12.25
38.00 12.80
39.00 13.70
40.00 14.96
41.00 16.56
42.00 18.53
43.00 21.01
44.00 24.43
45.00 29.83
46.00 41.16
47.00 40.35
48.00 34.98
49.00 34.41
50.00 35.46
51.00 35.79
52.00 35.55
53.00 37.14
54.00 42.15
55.00 46.83
56.00 43.06
57.00 42.48
58.00 46.33
59.00 63.65
60.00 43.42
61.00 40.01
62.00 40.49
63.00 40.66
64.00 39.10
65.00 37.88
66.00 36.55
67.00 36.66
68.00 37.47
69.00 34.03
70.00 31.55
71.00 32.18
72.00 35.37
73.00 37.90
74.00 36.45
75.00 32.42
76.00 29.82
77.00 30.13
78.00 34.14
79.00 44.39
80.00 35.67
81.00 29.96
82.00 27.72
83.00 28.41
84.00 32.53
85.00 35.26
86.00 30.35
87.00 27.00
88.00 25.48
89.00 25.99
90.00 29.06
91.00 36.58
92.00 43.54
93.00 31.63
94.00 27.62
95.00 26.68
96.00 28.15
97.00 30.43
98.00 31.27
99.00 32.77
100.00 35.95
101.00 37.52
102.00 37.87
103.00 36.21
104.00 34.36
105.00 35.57
106.00 39.07
107.00 38.60
108.00 38.06
109.00 38.32
110.00 37.13
111.00 37.81
112.00 39.85
113.00 37.45
114.00 35.73
115.00 36.77
116.00 40.12
117.00 43.60
118.00 40.81
119.00 37.45
120.00 36.22
121.00 36.44
122.00 37.13
123.00 37.49
124.00 37.50
125.00 37.76
126.00 37.98
127.00 36.88
128.00 35.24
129.00 34.08
130.00 33.04
131.00 31.69
132.00 30.24
133.00 29.28
134.00 29.25
135.00 30.28
136.00 32.20
137.00 34.54
138.00 36.90
139.00 39.83
140.00 44.86
141.00 44.26
142.00 39.12
143.00 37.04
144.00 37.06
145.00 38.57
146.00 41.42
147.00 46.20
148.00 60.20
149.00 47.25
150.00 39.81
151.00 36.46
152.00 35.17
153.00 35.06
154.00 35.65
155.00 36.87
156.00 38.45
157.00 39.37
158.00 38.84
159.00 37.90
160.00 37.92
161.00 39.64
162.00 42.73
163.00 42.54
164.00 38.72
165.00 35.40
166.00 32.80
167.00 30.78
168.00 29.41
169.00 28.78
170.00 28.75
171.00 28.94
172.00 29.00
173.00 28.89
174.00 28.21
175.00 28.29
176.00 29.25
177.00 31.11
178.00 33.89
179.00 37.62
180.00 37.91
181.00 34.23
182.00 31.76
183.00 31.03
184.00 31.79
185.00 32.03
186.00 32.76
187.00 33.90
188.00 35.73
189.00 38.61
190.00 41.47
191.00 40.95
192.00 39.22
193.00 38.00
194.00 37.16
195.00 36.89
196.00 37.36
197.00 38.60
198.00 41.24
199.00 47.12
200.00 56.50
201.00 45.47
202.00 40.28
203.00 37.62
204.00 36.86
205.00 37.48
206.00 38.37
207.00 38.82
208.00 39.38
209.00 39.53
210.00 37.58
211.00 35.06
212.00 33.71
213.00 33.74
214.00 34.63
215.00 35.27
216.00 34.92
217.00 34.14
218.00 33.63
219.00 33.55
220.00 33.39
221.00 32.60
222.00 31.52
223.00 30.86
224.00 30.91
225.00 31.59
226.00 32.52
227.00 33.18
228.00 33.46
229.00 33.84
230.00 34.91
231.00 36.86
232.00 39.28
233.00 41.25
234.00 41.69
235.00 41.23
236.00 41.14
237.00 41.38
238.00 42.19
239.00 44.43
240.00 46.80
241.00 46.26
242.00 43.64
243.00 41.09
244.00 40.99
245.00 43.99
246.00 44.91
247.00 42.19
248.00 40.01
249.00 37.21
250.00 35.83
251.00 36.89
252.00 40.42
253.00 47.23
254.00 44.90
255.00 37.59
256.00 35.18
257.00 36.23
258.00 40.49
259.00 48.19
260.00 44.90
261.00 38.58
262.00 37.01
263.00 40.17
264.00 56.22
265.00 44.40
266.00 38.97
267.00 36.30
268.00 36.89
269.00 45.01
270.00 39.23
271.00 33.28
272.00 32.17
273.00 32.77
274.00 33.98
275.00 38.71
276.00 44.57
277.00 34.16
278.00 31.35
279.00 31.32
280.00 32.57
281.00 35.95
282.00 43.98
283.00 37.03
284.00 33.24
285.00 32.97
286.00 34.36
287.00 37.02
288.00 40.76
289.00 38.70
290.00 36.18
291.00 36.35
292.00 37.95
293.00 40.26
294.00 45.71
295.00 60.77
296.00 45.17
297.00 41.39
298.00 39.77
299.00 39.00
300.00 38.30
301.00 37.03
302.00 35.16
303.00 33.43
304.00 32.88
305.00 34.17
306.00 37.94
307.00 40.28
308.00 33.84
309.00 29.16
310.00 26.24
311.00 24.09
312.00 22.03
313.00 19.96
314.00 18.17
315.00 16.86
316.00 16.12
317.00 15.83
318.00 15.75
319.00 15.67
320.00 15.58
321.00 15.70
322.00 16.26
323.00 17.38
324.00 18.99
325.00 20.78
326.00 22.47
327.00 24.12
328.00 26.25
329.00 29.48
330.00 34.29
331.00 40.90
332.00 48.27
333.00 53.13
334.00 42.98
335.00 33.30
336.00 27.78
337.00 24.54
338.00 22.68
339.00 21.64
340.00 21.06
341.00 20.85
342.00 21.28
343.00 22.92
344.00 26.78
345.00 32.60
346.00 27.31
347.00 22.87
348.00 21.05
349.00 21.23
350.00 23.42
351.00 23.97
352.00 17.79
353.00 12.42
354.00 8.54
355.00 5.66
356.00 3.52
357.00 1.95
358.00 0.86
359.00 0.23
