NAME ATR4518R7_1880_X_CO_P45_01T_yL
FREQUENCY 1880
GAIN 14.96 dBd
TILT	ELECTRICAL
COMMENT DATE 05.08.2013 +45 degrees polarized system Lever position 01T deg
HORIZONTAL 360
0.00 0.09
1.00 0.06
2.00 0.04
3.00 0.02
4.00 0.01
5.00 0.00
6.00 0.00
7.00 0.01
8.00 0.02
9.00 0.03
10.00 0.06
11.00 0.09
12.00 0.13
13.00 0.18
14.00 0.24
15.00 0.30
16.00 0.38
17.00 0.46
18.00 0.55
19.00 0.65
20.00 0.76
21.00 0.87
22.00 1.00
23.00 1.13
24.00 1.27
25.00 1.42
26.00 1.57
27.00 1.73
28.00 1.90
29.00 2.07
30.00 2.25
31.00 2.44
32.00 2.63
33.00 2.82
34.00 3.02
35.00 3.23
36.00 3.43
37.00 3.65
38.00 3.86
39.00 4.08
40.00 4.30
41.00 4.53
42.00 4.76
43.00 4.99
44.00 5.22
45.00 5.46
46.00 5.69
47.00 5.94
48.00 6.18
49.00 6.42
50.00 6.67
51.00 6.92
52.00 7.17
53.00 7.42
54.00 7.68
55.00 7.93
56.00 8.19
57.00 8.45
58.00 8.71
59.00 8.97
60.00 9.24
61.00 9.50
62.00 9.77
63.00 10.04
64.00 10.32
65.00 10.59
66.00 10.86
67.00 11.14
68.00 11.42
69.00 11.69
70.00 11.97
71.00 12.25
72.00 12.53
73.00 12.81
74.00 13.09
75.00 13.37
76.00 13.65
77.00 13.92
78.00 14.19
79.00 14.47
80.00 14.74
81.00 15.01
82.00 15.29
83.00 15.56
84.00 15.84
85.00 16.12
86.00 16.41
87.00 16.71
88.00 17.01
89.00 17.33
90.00 17.65
91.00 18.00
92.00 18.36
93.00 18.74
94.00 19.14
95.00 19.56
96.00 20.00
97.00 20.48
98.00 20.97
99.00 21.50
100.00 22.05
101.00 22.62
102.00 23.23
103.00 23.85
104.00 24.48
105.00 25.13
106.00 25.78
107.00 26.42
108.00 27.04
109.00 27.63
110.00 28.18
111.00 28.68
112.00 29.13
113.00 29.53
114.00 29.87
115.00 30.17
116.00 30.44
117.00 30.67
118.00 30.89
119.00 31.08
120.00 31.25
121.00 31.39
122.00 31.50
123.00 31.58
124.00 31.61
125.00 31.58
126.00 31.52
127.00 31.40
128.00 31.25
129.00 31.08
130.00 30.89
131.00 30.69
132.00 30.51
133.00 30.33
134.00 30.18
135.00 30.05
136.00 29.95
137.00 29.88
138.00 29.83
139.00 29.81
140.00 29.81
141.00 29.84
142.00 29.88
143.00 29.94
144.00 30.02
145.00 30.11
146.00 30.21
147.00 30.34
148.00 30.48
149.00 30.64
150.00 30.82
151.00 31.04
152.00 31.28
153.00 31.55
154.00 31.85
155.00 32.18
156.00 32.52
157.00 32.88
158.00 33.24
159.00 33.59
160.00 33.91
161.00 34.17
162.00 34.38
163.00 34.53
164.00 34.62
165.00 34.66
166.00 34.68
167.00 34.70
168.00 34.75
169.00 34.84
170.00 35.00
171.00 35.25
172.00 35.60
173.00 36.09
174.00 36.71
175.00 37.52
176.00 38.53
177.00 39.81
178.00 41.39
179.00 43.38
180.00 45.84
181.00 48.55
182.00 50.11
183.00 48.89
184.00 46.53
185.00 44.44
186.00 42.84
187.00 41.68
188.00 40.88
189.00 40.40
190.00 40.21
191.00 40.31
192.00 40.71
193.00 41.47
194.00 42.66
195.00 44.46
196.00 47.26
197.00 52.20
198.00 65.40
199.00 54.06
200.00 47.29
201.00 43.43
202.00 40.76
203.00 38.75
204.00 37.17
205.00 35.92
206.00 34.92
207.00 34.12
208.00 33.50
209.00 33.04
210.00 32.73
211.00 32.56
212.00 32.53
213.00 32.63
214.00 32.87
215.00 33.26
216.00 33.82
217.00 34.57
218.00 35.54
219.00 36.78
220.00 38.37
221.00 40.43
222.00 43.09
223.00 46.13
224.00 47.25
225.00 44.69
226.00 41.54
227.00 38.97
228.00 36.94
229.00 35.31
230.00 33.98
231.00 32.87
232.00 31.95
233.00 31.18
234.00 30.53
235.00 29.99
236.00 29.54
237.00 29.17
238.00 28.87
239.00 28.64
240.00 28.46
241.00 28.33
242.00 28.23
243.00 28.16
244.00 28.12
245.00 28.09
246.00 28.06
247.00 28.02
248.00 27.95
249.00 27.86
250.00 27.73
251.00 27.55
252.00 27.33
253.00 27.06
254.00 26.76
255.00 26.42
256.00 26.05
257.00 25.67
258.00 25.28
259.00 24.88
260.00 24.48
261.00 24.09
262.00 23.70
263.00 23.32
264.00 22.95
265.00 22.60
266.00 22.25
267.00 21.90
268.00 21.57
269.00 21.24
270.00 20.91
271.00 20.59
272.00 20.27
273.00 19.95
274.00 19.63
275.00 19.31
276.00 18.99
277.00 18.67
278.00 18.34
279.00 18.02
280.00 17.70
281.00 17.37
282.00 17.05
283.00 16.73
284.00 16.41
285.00 16.09
286.00 15.77
287.00 15.46
288.00 15.14
289.00 14.84
290.00 14.53
291.00 14.23
292.00 13.93
293.00 13.64
294.00 13.35
295.00 13.07
296.00 12.79
297.00 12.51
298.00 12.24
299.00 11.98
300.00 11.71
301.00 11.45
302.00 11.20
303.00 10.95
304.00 10.70
305.00 10.45
306.00 10.21
307.00 9.97
308.00 9.72
309.00 9.48
310.00 9.23
311.00 8.98
312.00 8.73
313.00 8.48
314.00 8.22
315.00 7.96
316.00 7.70
317.00 7.43
318.00 7.16
319.00 6.89
320.00 6.61
321.00 6.34
322.00 6.06
323.00 5.78
324.00 5.51
325.00 5.24
326.00 4.97
327.00 4.70
328.00 4.44
329.00 4.18
330.00 3.93
331.00 3.69
332.00 3.45
333.00 3.22
334.00 3.00
335.00 2.78
336.00 2.58
337.00 2.38
338.00 2.20
339.00 2.02
340.00 1.85
341.00 1.69
342.00 1.54
343.00 1.40
344.00 1.26
345.00 1.14
346.00 1.02
347.00 0.91
348.00 0.81
349.00 0.72
350.00 0.63
351.00 0.55
352.00 0.48
353.00 0.41
354.00 0.35
355.00 0.30
356.00 0.25
357.00 0.20
358.00 0.16
359.00 0.12
VERTICAL 360
0.00 0.64
1.00 0.04
2.00 0.14
3.00 0.97
4.00 2.65
5.00 5.45
6.00 9.99
7.00 18.81
8.00 24.82
9.00 15.66
10.00 13.37
11.00 13.69
12.00 16.23
13.00 21.82
14.00 25.47
15.00 19.56
16.00 16.74
17.00 16.08
18.00 16.90
19.00 18.77
20.00 20.56
21.00 20.49
22.00 19.17
23.00 18.16
24.00 17.92
25.00 18.65
26.00 20.74
27.00 25.32
28.00 40.14
29.00 28.01
30.00 21.90
31.00 19.25
32.00 18.16
33.00 17.92
34.00 17.97
35.00 17.87
36.00 17.52
37.00 17.10
38.00 16.74
39.00 16.47
40.00 16.28
41.00 16.10
42.00 16.00
43.00 16.10
44.00 16.60
45.00 17.70
46.00 19.57
47.00 22.42
48.00 26.72
49.00 33.92
50.00 52.12
51.00 35.82
52.00 31.23
53.00 28.56
54.00 26.60
55.00 25.29
56.00 24.80
57.00 25.22
58.00 26.58
59.00 28.83
60.00 31.79
61.00 35.05
62.00 37.69
63.00 38.24
64.00 37.00
65.00 35.70
66.00 34.91
67.00 34.70
68.00 35.08
69.00 35.99
70.00 37.00
71.00 37.47
72.00 37.12
73.00 36.27
74.00 35.52
75.00 35.25
76.00 35.48
77.00 35.91
78.00 36.22
79.00 36.42
80.00 36.69
81.00 37.11
82.00 37.51
83.00 37.78
84.00 38.38
85.00 40.02
86.00 42.50
87.00 42.89
88.00 41.97
89.00 42.58
90.00 41.62
91.00 38.22
92.00 36.76
93.00 38.49
94.00 45.72
95.00 45.37
96.00 38.80
97.00 37.11
98.00 37.70
99.00 39.66
100.00 42.83
101.00 45.00
102.00 42.31
103.00 40.30
104.00 40.38
105.00 41.85
106.00 43.25
107.00 42.90
108.00 41.11
109.00 39.58
110.00 39.15
111.00 39.75
112.00 40.61
113.00 40.73
114.00 40.08
115.00 39.57
116.00 40.01
117.00 41.73
118.00 43.81
119.00 43.68
120.00 42.56
121.00 42.69
122.00 44.32
123.00 46.19
124.00 46.86
125.00 48.11
126.00 50.67
127.00 48.69
128.00 44.92
129.00 42.21
130.00 39.93
131.00 38.29
132.00 37.55
133.00 37.22
134.00 36.61
135.00 35.99
136.00 36.17
137.00 37.60
138.00 40.35
139.00 43.96
140.00 45.91
141.00 43.58
142.00 40.60
143.00 38.88
144.00 38.54
145.00 39.27
146.00 40.57
147.00 41.80
148.00 42.05
149.00 41.49
150.00 41.60
151.00 42.19
152.00 40.76
153.00 38.54
154.00 37.44
155.00 36.96
156.00 36.26
157.00 35.96
158.00 36.97
159.00 38.95
160.00 39.24
161.00 37.33
162.00 35.36
163.00 33.83
164.00 33.01
165.00 33.24
166.00 34.32
167.00 35.28
168.00 35.43
169.00 35.76
170.00 37.14
171.00 39.37
172.00 41.65
173.00 44.50
174.00 45.36
175.00 40.73
176.00 38.11
177.00 38.28
178.00 41.15
179.00 46.21
180.00 46.90
181.00 44.00
182.00 42.03
183.00 41.33
184.00 42.39
185.00 45.16
186.00 47.55
187.00 48.32
188.00 49.79
189.00 49.57
190.00 46.84
191.00 44.46
192.00 42.42
193.00 40.44
194.00 38.56
195.00 37.10
196.00 36.32
197.00 35.87
198.00 35.09
199.00 34.11
200.00 33.75
201.00 34.53
202.00 36.64
203.00 40.28
204.00 46.48
205.00 72.58
206.00 44.44
207.00 38.18
208.00 35.13
209.00 34.14
210.00 34.80
211.00 36.25
212.00 36.30
213.00 34.83
214.00 33.69
215.00 33.28
216.00 33.28
217.00 33.50
218.00 34.08
219.00 35.21
220.00 36.85
221.00 38.56
222.00 39.50
223.00 39.32
224.00 39.01
225.00 39.81
226.00 42.23
227.00 43.60
228.00 40.78
229.00 38.66
230.00 38.45
231.00 39.93
232.00 42.84
233.00 46.33
234.00 47.73
235.00 46.15
236.00 43.91
237.00 41.98
238.00 40.79
239.00 40.88
240.00 43.14
241.00 50.67
242.00 53.40
243.00 43.53
244.00 40.63
245.00 40.32
246.00 41.61
247.00 43.57
248.00 44.58
249.00 43.55
250.00 41.79
251.00 40.57
252.00 40.05
253.00 39.61
254.00 38.60
255.00 37.37
256.00 36.45
257.00 35.80
258.00 35.25
259.00 34.98
260.00 35.31
261.00 36.37
262.00 38.01
263.00 40.07
264.00 42.35
265.00 43.69
266.00 42.76
267.00 41.32
268.00 40.81
269.00 41.55
270.00 43.61
271.00 47.11
272.00 52.00
273.00 55.16
274.00 52.94
275.00 51.04
276.00 50.80
277.00 52.95
278.00 54.57
279.00 45.14
280.00 39.08
281.00 35.60
282.00 33.77
283.00 33.05
284.00 32.88
285.00 32.65
286.00 32.11
287.00 31.69
288.00 32.11
289.00 34.01
290.00 38.09
291.00 40.68
292.00 35.98
293.00 32.51
294.00 30.48
295.00 29.12
296.00 28.00
297.00 27.01
298.00 26.25
299.00 25.93
300.00 26.25
301.00 27.35
302.00 29.33
303.00 32.17
304.00 35.66
305.00 38.73
306.00 37.68
307.00 33.32
308.00 29.29
309.00 26.37
310.00 24.63
311.00 24.01
312.00 24.39
313.00 25.58
314.00 27.21
315.00 28.47
316.00 28.14
317.00 26.00
318.00 23.24
319.00 20.71
320.00 18.72
321.00 17.27
322.00 16.30
323.00 15.72
324.00 15.47
325.00 15.64
326.00 16.41
327.00 18.13
328.00 21.53
329.00 29.29
330.00 34.50
331.00 23.51
332.00 19.71
333.00 18.19
334.00 18.23
335.00 19.91
336.00 24.26
337.00 40.43
338.00 26.81
339.00 20.58
340.00 18.06
341.00 17.54
342.00 18.94
343.00 23.44
344.00 35.66
345.00 23.03
346.00 18.03
347.00 16.29
348.00 16.65
349.00 19.23
350.00 25.32
351.00 29.49
352.00 23.38
353.00 22.78
354.00 28.94
355.00 20.42
356.00 12.11
357.00 7.25
358.00 4.06
359.00 1.94
