NAME ATR4518R7_2140_X_CO_M45_09T_yL
FREQUENCY 2140
GAIN 15.61 dBd
TILT	ELECTRICAL
COMMENT DATE 05.08.2013 -45 degrees polarized system Lever position 09T deg
HORIZONTAL 360
0.00 0.01
1.00 0.02
2.00 0.04
3.00 0.06
4.00 0.09
5.00 0.12
6.00 0.16
7.00 0.20
8.00 0.25
9.00 0.31
10.00 0.37
11.00 0.44
12.00 0.51
13.00 0.59
14.00 0.68
15.00 0.78
16.00 0.88
17.00 0.99
18.00 1.11
19.00 1.24
20.00 1.37
21.00 1.51
22.00 1.66
23.00 1.82
24.00 1.99
25.00 2.17
26.00 2.35
27.00 2.55
28.00 2.75
29.00 2.97
30.00 3.19
31.00 3.42
32.00 3.67
33.00 3.92
34.00 4.19
35.00 4.46
36.00 4.74
37.00 5.03
38.00 5.33
39.00 5.64
40.00 5.95
41.00 6.26
42.00 6.58
43.00 6.91
44.00 7.23
45.00 7.56
46.00 7.88
47.00 8.20
48.00 8.52
49.00 8.83
50.00 9.14
51.00 9.44
52.00 9.73
53.00 10.02
54.00 10.31
55.00 10.58
56.00 10.85
57.00 11.12
58.00 11.38
59.00 11.65
60.00 11.90
61.00 12.16
62.00 12.42
63.00 12.69
64.00 12.96
65.00 13.23
66.00 13.51
67.00 13.79
68.00 14.09
69.00 14.39
70.00 14.70
71.00 15.01
72.00 15.33
73.00 15.67
74.00 16.00
75.00 16.35
76.00 16.70
77.00 17.05
78.00 17.40
79.00 17.76
80.00 18.11
81.00 18.46
82.00 18.80
83.00 19.14
84.00 19.47
85.00 19.80
86.00 20.12
87.00 20.44
88.00 20.76
89.00 21.08
90.00 21.41
91.00 21.75
92.00 22.11
93.00 22.48
94.00 22.89
95.00 23.33
96.00 23.81
97.00 24.34
98.00 24.93
99.00 25.58
100.00 26.31
101.00 27.12
102.00 28.03
103.00 29.06
104.00 30.21
105.00 31.52
106.00 33.02
107.00 34.73
108.00 36.69
109.00 38.91
110.00 41.26
111.00 43.29
112.00 44.12
113.00 43.54
114.00 42.40
115.00 41.34
116.00 40.58
117.00 40.12
118.00 39.95
119.00 40.07
120.00 40.46
121.00 41.10
122.00 41.95
123.00 42.92
124.00 43.81
125.00 44.21
126.00 43.80
127.00 42.70
128.00 41.30
129.00 39.91
130.00 38.64
131.00 37.56
132.00 36.64
133.00 35.89
134.00 35.28
135.00 34.79
136.00 34.42
137.00 34.15
138.00 33.96
139.00 33.86
140.00 33.81
141.00 33.83
142.00 33.89
143.00 34.00
144.00 34.15
145.00 34.35
146.00 34.59
147.00 34.88
148.00 35.23
149.00 35.66
150.00 36.18
151.00 36.79
152.00 37.53
153.00 38.39
154.00 39.35
155.00 40.39
156.00 41.35
157.00 41.98
158.00 41.99
159.00 41.35
160.00 40.28
161.00 39.08
162.00 37.93
163.00 36.91
164.00 36.07
165.00 35.39
166.00 34.87
167.00 34.53
168.00 34.35
169.00 34.35
170.00 34.51
171.00 34.87
172.00 35.44
173.00 36.25
174.00 37.36
175.00 38.83
176.00 40.81
177.00 43.47
178.00 46.82
179.00 48.79
180.00 46.28
181.00 42.88
182.00 40.22
183.00 38.21
184.00 36.68
185.00 35.52
186.00 34.65
187.00 34.02
188.00 33.60
189.00 33.38
190.00 33.34
191.00 33.49
192.00 33.83
193.00 34.37
194.00 35.13
195.00 36.13
196.00 37.41
197.00 38.99
198.00 40.82
199.00 42.57
200.00 43.34
201.00 42.45
202.00 40.67
203.00 38.85
204.00 37.29
205.00 36.03
206.00 35.04
207.00 34.29
208.00 33.75
209.00 33.41
210.00 33.25
211.00 33.27
212.00 33.47
213.00 33.85
214.00 34.43
215.00 35.24
216.00 36.29
217.00 37.63
218.00 39.27
219.00 41.12
220.00 42.65
221.00 42.76
222.00 41.23
223.00 39.13
224.00 37.14
225.00 35.44
226.00 34.00
227.00 32.80
228.00 31.80
229.00 30.95
230.00 30.24
231.00 29.66
232.00 29.17
233.00 28.78
234.00 28.46
235.00 28.22
236.00 28.05
237.00 27.93
238.00 27.87
239.00 27.86
240.00 27.88
241.00 27.94
242.00 28.02
243.00 28.11
244.00 28.19
245.00 28.26
246.00 28.30
247.00 28.28
248.00 28.21
249.00 28.07
250.00 27.86
251.00 27.58
252.00 27.25
253.00 26.88
254.00 26.48
255.00 26.06
256.00 25.63
257.00 25.21
258.00 24.79
259.00 24.39
260.00 24.00
261.00 23.62
262.00 23.25
263.00 22.89
264.00 22.53
265.00 22.18
266.00 21.83
267.00 21.48
268.00 21.12
269.00 20.76
270.00 20.38
271.00 20.00
272.00 19.60
273.00 19.20
274.00 18.79
275.00 18.38
276.00 17.96
277.00 17.54
278.00 17.12
279.00 16.71
280.00 16.30
281.00 15.90
282.00 15.50
283.00 15.11
284.00 14.72
285.00 14.35
286.00 13.99
287.00 13.63
288.00 13.29
289.00 12.95
290.00 12.62
291.00 12.30
292.00 11.99
293.00 11.68
294.00 11.39
295.00 11.09
296.00 10.81
297.00 10.53
298.00 10.25
299.00 9.98
300.00 9.72
301.00 9.45
302.00 9.19
303.00 8.93
304.00 8.67
305.00 8.42
306.00 8.16
307.00 7.91
308.00 7.66
309.00 7.40
310.00 7.15
311.00 6.90
312.00 6.65
313.00 6.40
314.00 6.15
315.00 5.90
316.00 5.65
317.00 5.40
318.00 5.16
319.00 4.92
320.00 4.68
321.00 4.45
322.00 4.21
323.00 3.99
324.00 3.77
325.00 3.55
326.00 3.34
327.00 3.13
328.00 2.93
329.00 2.73
330.00 2.54
331.00 2.36
332.00 2.18
333.00 2.01
334.00 1.85
335.00 1.69
336.00 1.55
337.00 1.40
338.00 1.27
339.00 1.14
340.00 1.02
341.00 0.90
342.00 0.80
343.00 0.70
344.00 0.61
345.00 0.52
346.00 0.44
347.00 0.37
348.00 0.31
349.00 0.25
350.00 0.20
351.00 0.15
352.00 0.11
353.00 0.08
354.00 0.06
355.00 0.04
356.00 0.02
357.00 0.01
358.00 0.00
359.00 0.00
VERTICAL 360
0.00 21.80
1.00 22.96
2.00 21.65
3.00 16.85
4.00 11.76
5.00 7.64
6.00 4.49
7.00 2.21
8.00 0.73
9.00 0.04
10.00 0.19
11.00 1.29
12.00 3.56
13.00 7.52
14.00 15.11
15.00 29.70
16.00 14.97
17.00 11.97
18.00 11.86
19.00 13.94
20.00 18.70
21.00 22.71
22.00 17.87
23.00 15.25
24.00 15.04
25.00 16.83
26.00 21.19
27.00 32.52
28.00 26.49
29.00 20.16
30.00 18.09
31.00 18.61
32.00 22.27
33.00 35.77
34.00 26.84
35.00 20.91
36.00 19.37
37.00 20.12
38.00 22.94
39.00 29.12
40.00 37.13
41.00 26.07
42.00 21.16
43.00 18.40
44.00 16.83
45.00 16.15
46.00 16.30
47.00 17.32
48.00 19.34
49.00 22.52
50.00 27.03
51.00 32.30
52.00 36.30
53.00 40.50
54.00 38.75
55.00 32.51
56.00 29.28
57.00 27.95
58.00 27.66
59.00 27.94
60.00 28.67
61.00 29.97
62.00 31.74
63.00 33.27
64.00 33.39
65.00 32.64
66.00 32.32
67.00 32.81
68.00 33.81
69.00 34.77
70.00 35.21
71.00 35.11
72.00 34.95
73.00 35.12
74.00 35.48
75.00 35.60
76.00 35.16
77.00 34.42
78.00 33.90
79.00 33.90
80.00 34.52
81.00 35.72
82.00 37.45
83.00 39.74
84.00 43.06
85.00 48.60
86.00 57.18
87.00 55.82
88.00 47.10
89.00 41.19
90.00 38.23
91.00 37.59
92.00 38.83
93.00 41.31
94.00 43.64
95.00 44.12
96.00 43.16
97.00 42.45
98.00 42.74
99.00 43.84
100.00 44.85
101.00 44.94
102.00 44.40
103.00 44.15
104.00 44.60
105.00 45.43
106.00 45.89
107.00 45.74
108.00 45.86
109.00 47.29
110.00 50.35
111.00 54.83
112.00 62.50
113.00 51.73
114.00 45.35
115.00 42.64
116.00 42.17
117.00 43.07
118.00 44.10
119.00 43.83
120.00 42.81
121.00 42.76
122.00 44.91
123.00 50.80
124.00 62.78
125.00 54.86
126.00 51.60
127.00 48.56
128.00 46.30
129.00 45.43
130.00 45.76
131.00 46.97
132.00 47.56
133.00 46.21
134.00 44.97
135.00 44.69
136.00 44.99
137.00 45.06
138.00 42.40
139.00 38.29
140.00 35.45
141.00 34.26
142.00 34.56
143.00 36.08
144.00 38.20
145.00 39.91
146.00 40.92
147.00 42.13
148.00 44.13
149.00 46.67
150.00 47.97
151.00 46.34
152.00 43.54
153.00 41.04
154.00 39.23
155.00 38.23
156.00 38.23
157.00 39.51
158.00 41.86
159.00 42.21
160.00 40.24
161.00 39.66
162.00 40.98
163.00 42.09
164.00 41.21
165.00 41.50
166.00 44.44
167.00 43.93
168.00 39.98
169.00 39.29
170.00 43.28
171.00 48.99
172.00 39.60
173.00 36.87
174.00 38.39
175.00 45.93
176.00 45.31
177.00 39.47
178.00 38.98
179.00 40.75
180.00 40.21
181.00 37.62
182.00 36.17
183.00 36.39
184.00 38.41
185.00 40.58
186.00 39.08
187.00 37.97
188.00 39.73
189.00 44.27
190.00 44.35
191.00 43.14
192.00 47.14
193.00 67.74
194.00 47.52
195.00 47.00
196.00 53.74
197.00 44.54
198.00 39.92
199.00 39.45
200.00 41.26
201.00 39.81
202.00 36.53
203.00 35.34
204.00 36.16
205.00 38.16
206.00 40.29
207.00 43.02
208.00 44.77
209.00 40.43
210.00 37.11
211.00 35.86
212.00 35.98
213.00 36.75
214.00 37.63
215.00 38.57
216.00 40.15
217.00 43.07
218.00 47.06
219.00 46.28
220.00 42.90
221.00 41.02
222.00 40.31
223.00 40.11
224.00 39.89
225.00 39.36
226.00 38.57
227.00 38.12
228.00 38.71
229.00 40.15
230.00 40.00
231.00 37.75
232.00 35.86
233.00 35.02
234.00 35.52
235.00 38.35
236.00 47.69
237.00 44.33
238.00 36.92
239.00 34.37
240.00 33.91
241.00 34.90
242.00 37.43
243.00 42.52
244.00 46.01
245.00 39.00
246.00 34.72
247.00 32.24
248.00 30.76
249.00 29.99
250.00 29.95
251.00 30.83
252.00 32.96
253.00 36.86
254.00 44.32
255.00 46.86
256.00 38.06
257.00 33.24
258.00 30.00
259.00 27.77
260.00 26.30
261.00 25.32
262.00 24.51
263.00 23.65
264.00 22.73
265.00 21.94
266.00 21.41
267.00 21.18
268.00 21.12
269.00 21.05
270.00 20.87
271.00 20.58
272.00 20.30
273.00 20.13
274.00 20.09
275.00 20.14
276.00 20.28
277.00 20.50
278.00 20.75
279.00 20.84
280.00 20.57
281.00 19.92
282.00 19.07
283.00 18.23
284.00 17.50
285.00 16.88
286.00 16.37
287.00 16.00
288.00 15.83
289.00 15.95
290.00 16.38
291.00 17.14
292.00 18.18
293.00 19.45
294.00 20.82
295.00 22.11
296.00 23.31
297.00 24.78
298.00 27.24
299.00 31.99
300.00 39.16
301.00 33.13
302.00 29.09
303.00 27.29
304.00 26.22
305.00 25.54
306.00 25.89
307.00 28.29
308.00 35.13
309.00 37.98
310.00 29.61
311.00 26.66
312.00 25.50
313.00 24.36
314.00 23.01
315.00 22.57
316.00 24.18
317.00 30.02
318.00 40.28
319.00 26.61
320.00 23.06
321.00 22.48
322.00 23.98
323.00 27.59
324.00 31.79
325.00 27.56
326.00 22.92
327.00 20.19
328.00 19.02
329.00 19.49
330.00 22.38
331.00 29.07
332.00 24.23
333.00 18.89
334.00 16.15
335.00 15.06
336.00 15.26
337.00 16.68
338.00 19.54
339.00 24.44
340.00 29.48
341.00 26.09
342.00 25.07
343.00 27.84
344.00 31.54
345.00 26.77
346.00 23.20
347.00 21.68
348.00 21.60
349.00 23.05
350.00 26.72
351.00 34.48
352.00 37.08
353.00 33.72
354.00 34.60
355.00 29.87
356.00 24.54
357.00 21.61
358.00 20.47
359.00 20.68
