NAME ATR4518R7_1950_X_CO_M45_00T_yyR
FREQUENCY 1950
GAIN 15.29 dBd
TILT	ELECTRICAL
COMMENT DATE 05.08.2013 -45 degrees polarized system Lever position 00T deg
HORIZONTAL 360
0.00 0.06
1.00 0.04
2.00 0.02
3.00 0.01
4.00 0.00
5.00 0.00
6.00 0.00
7.00 0.01
8.00 0.03
9.00 0.05
10.00 0.08
11.00 0.12
12.00 0.16
13.00 0.21
14.00 0.27
15.00 0.34
16.00 0.42
17.00 0.51
18.00 0.61
19.00 0.72
20.00 0.84
21.00 0.97
22.00 1.12
23.00 1.27
24.00 1.44
25.00 1.62
26.00 1.81
27.00 2.02
28.00 2.24
29.00 2.46
30.00 2.71
31.00 2.96
32.00 3.23
33.00 3.51
34.00 3.80
35.00 4.10
36.00 4.41
37.00 4.73
38.00 5.07
39.00 5.41
40.00 5.77
41.00 6.13
42.00 6.50
43.00 6.88
44.00 7.27
45.00 7.66
46.00 8.07
47.00 8.47
48.00 8.89
49.00 9.31
50.00 9.74
51.00 10.17
52.00 10.61
53.00 11.06
54.00 11.50
55.00 11.96
56.00 12.42
57.00 12.88
58.00 13.35
59.00 13.81
60.00 14.28
61.00 14.75
62.00 15.21
63.00 15.68
64.00 16.13
65.00 16.59
66.00 17.03
67.00 17.45
68.00 17.87
69.00 18.27
70.00 18.66
71.00 19.03
72.00 19.38
73.00 19.72
74.00 20.05
75.00 20.36
76.00 20.67
77.00 20.98
78.00 21.28
79.00 21.59
80.00 21.90
81.00 22.23
82.00 22.57
83.00 22.93
84.00 23.31
85.00 23.72
86.00 24.15
87.00 24.63
88.00 25.13
89.00 25.69
90.00 26.29
91.00 26.94
92.00 27.65
93.00 28.44
94.00 29.31
95.00 30.27
96.00 31.35
97.00 32.58
98.00 34.00
99.00 35.68
100.00 37.73
101.00 40.36
102.00 44.05
103.00 50.32
104.00 63.43
105.00 49.44
106.00 43.94
107.00 40.66
108.00 38.36
109.00 36.60
110.00 35.19
111.00 34.03
112.00 33.05
113.00 32.22
114.00 31.52
115.00 30.91
116.00 30.39
117.00 29.94
118.00 29.57
119.00 29.26
120.00 29.02
121.00 28.83
122.00 28.71
123.00 28.64
124.00 28.62
125.00 28.66
126.00 28.75
127.00 28.90
128.00 29.11
129.00 29.37
130.00 29.69
131.00 30.06
132.00 30.49
133.00 30.98
134.00 31.52
135.00 32.10
136.00 32.72
137.00 33.37
138.00 34.02
139.00 34.66
140.00 35.26
141.00 35.80
142.00 36.24
143.00 36.58
144.00 36.84
145.00 37.02
146.00 37.16
147.00 37.29
148.00 37.45
149.00 37.67
150.00 37.98
151.00 38.40
152.00 38.96
153.00 39.69
154.00 40.61
155.00 41.76
156.00 43.18
157.00 44.85
158.00 46.57
159.00 47.70
160.00 47.33
161.00 45.70
162.00 43.75
163.00 41.96
164.00 40.43
165.00 39.17
166.00 38.13
167.00 37.28
168.00 36.62
169.00 36.10
170.00 35.73
171.00 35.49
172.00 35.38
173.00 35.39
174.00 35.53
175.00 35.80
176.00 36.20
177.00 36.75
178.00 37.45
179.00 38.34
180.00 39.43
181.00 40.77
182.00 42.39
183.00 44.31
184.00 46.43
185.00 48.21
186.00 48.50
187.00 47.18
188.00 45.34
189.00 43.66
190.00 42.29
191.00 41.23
192.00 40.43
193.00 39.87
194.00 39.52
195.00 39.37
196.00 39.43
197.00 39.67
198.00 40.13
199.00 40.83
200.00 41.81
201.00 43.12
202.00 44.83
203.00 46.96
204.00 49.16
205.00 49.82
206.00 47.94
207.00 45.26
208.00 42.86
209.00 40.88
210.00 39.26
211.00 37.92
212.00 36.83
213.00 35.91
214.00 35.16
215.00 34.56
216.00 34.08
217.00 33.72
218.00 33.46
219.00 33.30
220.00 33.25
221.00 33.29
222.00 33.42
223.00 33.65
224.00 33.98
225.00 34.40
226.00 34.93
227.00 35.55
228.00 36.28
229.00 37.09
230.00 37.97
231.00 38.86
232.00 39.68
233.00 40.25
234.00 40.46
235.00 40.22
236.00 39.60
237.00 38.76
238.00 37.84
239.00 36.94
240.00 36.08
241.00 35.29
242.00 34.59
243.00 33.96
244.00 33.40
245.00 32.90
246.00 32.45
247.00 32.06
248.00 31.70
249.00 31.38
250.00 31.09
251.00 30.82
252.00 30.56
253.00 30.31
254.00 30.06
255.00 29.81
256.00 29.55
257.00 29.27
258.00 28.98
259.00 28.65
260.00 28.31
261.00 27.93
262.00 27.53
263.00 27.09
264.00 26.64
265.00 26.16
266.00 25.67
267.00 25.16
268.00 24.65
269.00 24.13
270.00 23.61
271.00 23.10
272.00 22.59
273.00 22.09
274.00 21.60
275.00 21.13
276.00 20.66
277.00 20.21
278.00 19.77
279.00 19.35
280.00 18.94
281.00 18.55
282.00 18.17
283.00 17.79
284.00 17.44
285.00 17.09
286.00 16.75
287.00 16.42
288.00 16.09
289.00 15.78
290.00 15.46
291.00 15.16
292.00 14.85
293.00 14.55
294.00 14.25
295.00 13.96
296.00 13.66
297.00 13.36
298.00 13.06
299.00 12.76
300.00 12.46
301.00 12.15
302.00 11.85
303.00 11.54
304.00 11.23
305.00 10.92
306.00 10.61
307.00 10.29
308.00 9.98
309.00 9.66
310.00 9.35
311.00 9.03
312.00 8.71
313.00 8.40
314.00 8.08
315.00 7.77
316.00 7.46
317.00 7.15
318.00 6.85
319.00 6.55
320.00 6.25
321.00 5.95
322.00 5.67
323.00 5.38
324.00 5.11
325.00 4.84
326.00 4.57
327.00 4.31
328.00 4.06
329.00 3.82
330.00 3.59
331.00 3.36
332.00 3.14
333.00 2.92
334.00 2.72
335.00 2.53
336.00 2.34
337.00 2.16
338.00 1.99
339.00 1.83
340.00 1.67
341.00 1.53
342.00 1.39
343.00 1.26
344.00 1.14
345.00 1.02
346.00 0.91
347.00 0.81
348.00 0.72
349.00 0.64
350.00 0.55
351.00 0.48
352.00 0.41
353.00 0.35
354.00 0.29
355.00 0.24
356.00 0.20
357.00 0.16
358.00 0.12
359.00 0.09
VERTICAL 360
0.00 0.04
1.00 0.13
2.00 0.99
3.00 2.75
4.00 5.68
5.00 10.53
6.00 20.60
7.00 26.04
8.00 16.71
9.00 15.27
10.00 17.01
11.00 22.26
12.00 23.37
13.00 17.23
14.00 14.10
15.00 13.22
16.00 14.07
17.00 16.74
18.00 21.86
19.00 28.37
20.00 25.62
21.00 22.54
22.00 21.91
23.00 23.07
24.00 26.46
25.00 35.26
26.00 31.50
27.00 23.92
28.00 20.74
29.00 19.69
30.00 20.16
31.00 21.89
32.00 24.43
33.00 26.72
34.00 27.22
35.00 25.79
36.00 23.79
37.00 22.17
38.00 21.17
39.00 20.70
40.00 20.61
41.00 20.85
42.00 21.45
43.00 22.55
44.00 24.30
45.00 26.72
46.00 29.72
47.00 32.91
48.00 35.04
49.00 34.07
50.00 31.37
51.00 29.37
52.00 28.91
53.00 30.46
54.00 35.29
55.00 44.79
56.00 37.64
57.00 33.56
58.00 32.93
59.00 33.93
60.00 35.52
61.00 37.02
62.00 38.81
63.00 42.03
64.00 45.29
65.00 42.14
66.00 38.66
67.00 36.80
68.00 35.72
69.00 34.62
70.00 33.15
71.00 31.53
72.00 30.14
73.00 29.18
74.00 28.59
75.00 28.17
76.00 27.69
77.00 27.06
78.00 26.40
79.00 25.85
80.00 25.55
81.00 25.52
82.00 25.74
83.00 26.19
84.00 26.85
85.00 27.71
86.00 28.65
87.00 29.48
88.00 30.04
89.00 30.27
90.00 29.78
91.00 28.57
92.00 27.56
93.00 27.36
94.00 28.03
95.00 29.36
96.00 30.98
97.00 32.52
98.00 33.71
99.00 34.68
100.00 36.02
101.00 38.11
102.00 40.81
103.00 43.86
104.00 46.31
105.00 46.19
106.00 45.73
107.00 47.25
108.00 49.32
109.00 47.31
110.00 43.60
111.00 40.87
112.00 39.41
113.00 39.04
114.00 39.22
115.00 39.23
116.00 38.79
117.00 38.10
118.00 37.60
119.00 37.74
120.00 38.76
121.00 40.74
122.00 43.90
123.00 47.83
124.00 46.11
125.00 41.13
126.00 37.74
127.00 35.94
128.00 35.60
129.00 36.60
130.00 38.62
131.00 40.99
132.00 43.73
133.00 48.44
134.00 54.36
135.00 50.49
136.00 47.66
137.00 47.50
138.00 47.72
139.00 45.97
140.00 43.79
141.00 42.76
142.00 42.53
143.00 42.55
144.00 43.92
145.00 50.14
146.00 52.27
147.00 42.55
148.00 39.25
149.00 38.51
150.00 39.04
151.00 40.03
152.00 40.98
153.00 41.61
154.00 42.40
155.00 44.77
156.00 51.26
157.00 56.28
158.00 48.21
159.00 44.90
160.00 43.73
161.00 44.08
162.00 45.94
163.00 48.90
164.00 51.35
165.00 50.11
166.00 46.41
167.00 43.99
168.00 42.97
169.00 41.79
170.00 39.94
171.00 38.49
172.00 37.99
173.00 38.48
174.00 40.10
175.00 43.60
176.00 51.31
177.00 56.47
178.00 49.02
179.00 47.53
180.00 49.62
181.00 48.57
182.00 43.01
183.00 39.63
184.00 38.34
185.00 38.37
186.00 39.03
187.00 39.71
188.00 39.95
189.00 39.92
190.00 40.49
191.00 42.34
192.00 44.57
193.00 44.53
194.00 42.85
195.00 40.38
196.00 37.72
197.00 36.10
198.00 35.89
199.00 36.79
200.00 38.19
201.00 40.11
202.00 43.94
203.00 48.13
204.00 43.36
205.00 39.64
206.00 38.42
207.00 38.57
208.00 39.53
209.00 41.29
210.00 42.34
211.00 39.68
212.00 36.50
213.00 34.92
214.00 34.93
215.00 36.20
216.00 38.01
217.00 39.31
218.00 40.13
219.00 41.65
220.00 45.01
221.00 50.88
222.00 50.98
223.00 47.48
224.00 47.47
225.00 50.81
226.00 51.22
227.00 46.38
228.00 43.49
229.00 42.27
230.00 41.76
231.00 41.45
232.00 41.45
233.00 42.40
234.00 45.15
235.00 50.41
236.00 50.42
237.00 46.07
238.00 44.52
239.00 45.37
240.00 48.30
241.00 51.75
242.00 51.16
243.00 49.18
244.00 48.33
245.00 48.36
246.00 50.27
247.00 57.08
248.00 49.52
249.00 42.18
250.00 38.80
251.00 37.48
252.00 37.36
253.00 37.67
254.00 37.71
255.00 37.36
256.00 37.13
257.00 37.73
258.00 39.76
259.00 43.59
260.00 46.44
261.00 44.21
262.00 41.26
263.00 38.75
264.00 36.70
265.00 35.43
266.00 35.12
267.00 35.83
268.00 37.54
269.00 40.05
270.00 42.58
271.00 43.30
272.00 41.35
273.00 38.61
274.00 36.33
275.00 34.55
276.00 33.00
277.00 31.67
278.00 30.61
279.00 29.79
280.00 28.98
281.00 28.02
282.00 26.87
283.00 25.66
284.00 24.57
285.00 23.71
286.00 23.14
287.00 22.85
288.00 22.82
289.00 22.98
290.00 23.31
291.00 23.79
292.00 24.48
293.00 25.42
294.00 26.75
295.00 28.62
296.00 31.35
297.00 35.40
298.00 39.18
299.00 36.50
300.00 32.55
301.00 30.03
302.00 28.49
303.00 27.49
304.00 26.68
305.00 25.83
306.00 24.83
307.00 23.76
308.00 22.76
309.00 21.95
310.00 21.37
311.00 20.99
312.00 20.75
313.00 20.61
314.00 20.57
315.00 20.61
316.00 20.72
317.00 20.82
318.00 20.83
319.00 20.65
320.00 20.22
321.00 19.59
322.00 18.87
323.00 18.20
324.00 17.68
325.00 17.42
326.00 17.49
327.00 17.98
328.00 19.01
329.00 20.77
330.00 23.62
331.00 28.14
332.00 31.39
333.00 27.94
334.00 25.12
335.00 24.79
336.00 27.24
337.00 31.17
338.00 26.80
339.00 22.22
340.00 20.48
341.00 21.11
342.00 24.50
343.00 28.98
344.00 24.43
345.00 20.12
346.00 18.40
347.00 18.68
348.00 21.22
349.00 28.28
350.00 33.44
351.00 24.24
352.00 21.96
353.00 22.32
354.00 18.61
355.00 12.30
356.00 7.57
357.00 4.29
358.00 2.06
359.00 0.68
