NAME ATR4518R7_1950_X_CO_P45_00T_yL
FREQUENCY 1950
GAIN 15.23 dBd
TILT	ELECTRICAL
COMMENT DATE 05.08.2013 +45 degrees polarized system Lever position 00T deg
HORIZONTAL 360
0.00 0.12
1.00 0.09
2.00 0.06
3.00 0.04
4.00 0.02
5.00 0.01
6.00 0.00
7.00 0.00
8.00 0.00
9.00 0.01
10.00 0.03
11.00 0.06
12.00 0.09
13.00 0.13
14.00 0.18
15.00 0.23
16.00 0.30
17.00 0.37
18.00 0.45
19.00 0.54
20.00 0.63
21.00 0.74
22.00 0.85
23.00 0.96
24.00 1.09
25.00 1.22
26.00 1.35
27.00 1.49
28.00 1.64
29.00 1.79
30.00 1.95
31.00 2.11
32.00 2.28
33.00 2.45
34.00 2.63
35.00 2.81
36.00 3.00
37.00 3.19
38.00 3.39
39.00 3.59
40.00 3.79
41.00 4.00
42.00 4.21
43.00 4.42
44.00 4.64
45.00 4.85
46.00 5.07
47.00 5.29
48.00 5.51
49.00 5.73
50.00 5.95
51.00 6.17
52.00 6.40
53.00 6.62
54.00 6.84
55.00 7.06
56.00 7.29
57.00 7.51
58.00 7.74
59.00 7.97
60.00 8.20
61.00 8.43
62.00 8.67
63.00 8.91
64.00 9.16
65.00 9.40
66.00 9.66
67.00 9.92
68.00 10.19
69.00 10.46
70.00 10.74
71.00 11.02
72.00 11.31
73.00 11.61
74.00 11.91
75.00 12.21
76.00 12.52
77.00 12.83
78.00 13.15
79.00 13.47
80.00 13.79
81.00 14.12
82.00 14.44
83.00 14.77
84.00 15.09
85.00 15.42
86.00 15.75
87.00 16.09
88.00 16.42
89.00 16.76
90.00 17.11
91.00 17.45
92.00 17.81
93.00 18.17
94.00 18.54
95.00 18.91
96.00 19.29
97.00 19.68
98.00 20.08
99.00 20.48
100.00 20.89
101.00 21.29
102.00 21.69
103.00 22.09
104.00 22.48
105.00 22.86
106.00 23.22
107.00 23.56
108.00 23.88
109.00 24.19
110.00 24.48
111.00 24.77
112.00 25.05
113.00 25.33
114.00 25.63
115.00 25.94
116.00 26.28
117.00 26.66
118.00 27.07
119.00 27.53
120.00 28.05
121.00 28.63
122.00 29.27
123.00 29.98
124.00 30.76
125.00 31.61
126.00 32.53
127.00 33.50
128.00 34.51
129.00 35.51
130.00 36.48
131.00 37.33
132.00 38.02
133.00 38.51
134.00 38.79
135.00 38.92
136.00 38.93
137.00 38.89
138.00 38.85
139.00 38.82
140.00 38.82
141.00 38.83
142.00 38.87
143.00 38.90
144.00 38.93
145.00 38.96
146.00 38.97
147.00 38.99
148.00 39.00
149.00 39.03
150.00 39.09
151.00 39.18
152.00 39.29
153.00 39.42
154.00 39.53
155.00 39.58
156.00 39.53
157.00 39.32
158.00 38.95
159.00 38.40
160.00 37.74
161.00 37.01
162.00 36.26
163.00 35.55
164.00 34.88
165.00 34.29
166.00 33.78
167.00 33.37
168.00 33.05
169.00 32.83
170.00 32.71
171.00 32.68
172.00 32.74
173.00 32.90
174.00 33.13
175.00 33.43
176.00 33.78
177.00 34.14
178.00 34.47
179.00 34.73
180.00 34.85
181.00 34.82
182.00 34.62
183.00 34.29
184.00 33.88
185.00 33.43
186.00 33.00
187.00 32.61
188.00 32.30
189.00 32.07
190.00 31.94
191.00 31.91
192.00 32.00
193.00 32.20
194.00 32.53
195.00 32.99
196.00 33.60
197.00 34.35
198.00 35.27
199.00 36.33
200.00 37.49
201.00 38.66
202.00 39.59
203.00 39.98
204.00 39.65
205.00 38.80
206.00 37.72
207.00 36.65
208.00 35.70
209.00 34.90
210.00 34.26
211.00 33.78
212.00 33.45
213.00 33.26
214.00 33.22
215.00 33.32
216.00 33.56
217.00 33.96
218.00 34.52
219.00 35.28
220.00 36.25
221.00 37.49
222.00 39.08
223.00 41.13
224.00 43.81
225.00 47.13
226.00 49.17
227.00 46.88
228.00 43.51
229.00 40.79
230.00 38.68
231.00 37.01
232.00 35.67
233.00 34.58
234.00 33.67
235.00 32.92
236.00 32.31
237.00 31.80
238.00 31.40
239.00 31.08
240.00 30.84
241.00 30.67
242.00 30.57
243.00 30.52
244.00 30.53
245.00 30.58
246.00 30.67
247.00 30.78
248.00 30.90
249.00 31.00
250.00 31.08
251.00 31.09
252.00 31.02
253.00 30.86
254.00 30.59
255.00 30.22
256.00 29.76
257.00 29.23
258.00 28.66
259.00 28.07
260.00 27.47
261.00 26.88
262.00 26.30
263.00 25.75
264.00 25.23
265.00 24.74
266.00 24.28
267.00 23.85
268.00 23.44
269.00 23.07
270.00 22.71
271.00 22.37
272.00 22.06
273.00 21.75
274.00 21.45
275.00 21.16
276.00 20.87
277.00 20.58
278.00 20.28
279.00 19.98
280.00 19.67
281.00 19.35
282.00 19.02
283.00 18.68
284.00 18.32
285.00 17.97
286.00 17.60
287.00 17.23
288.00 16.86
289.00 16.48
290.00 16.11
291.00 15.74
292.00 15.37
293.00 15.01
294.00 14.65
295.00 14.30
296.00 13.95
297.00 13.61
298.00 13.28
299.00 12.95
300.00 12.63
301.00 12.31
302.00 11.99
303.00 11.67
304.00 11.35
305.00 11.03
306.00 10.71
307.00 10.38
308.00 10.05
309.00 9.72
310.00 9.38
311.00 9.04
312.00 8.69
313.00 8.35
314.00 8.00
315.00 7.66
316.00 7.31
317.00 6.97
318.00 6.63
319.00 6.30
320.00 5.98
321.00 5.66
322.00 5.35
323.00 5.05
324.00 4.76
325.00 4.48
326.00 4.21
327.00 3.95
328.00 3.70
329.00 3.46
330.00 3.23
331.00 3.01
332.00 2.80
333.00 2.60
334.00 2.42
335.00 2.23
336.00 2.06
337.00 1.90
338.00 1.75
339.00 1.61
340.00 1.47
341.00 1.35
342.00 1.23
343.00 1.12
344.00 1.02
345.00 0.92
346.00 0.84
347.00 0.76
348.00 0.68
349.00 0.62
350.00 0.55
351.00 0.49
352.00 0.44
353.00 0.39
354.00 0.34
355.00 0.30
356.00 0.26
357.00 0.22
358.00 0.18
359.00 0.15
VERTICAL 360
0.00 0.03
1.00 0.15
2.00 0.99
3.00 2.66
4.00 5.37
5.00 9.67
6.00 17.40
7.00 27.95
8.00 18.34
9.00 16.54
10.00 18.10
11.00 22.30
12.00 22.53
13.00 17.87
14.00 15.14
15.00 14.10
16.00 14.40
17.00 15.99
18.00 18.85
19.00 22.07
20.00 22.10
21.00 20.01
22.00 18.82
23.00 19.09
24.00 21.24
25.00 26.57
26.00 31.89
27.00 23.84
28.00 20.00
29.00 18.37
30.00 17.88
31.00 17.88
32.00 17.85
33.00 17.54
34.00 16.94
35.00 16.24
36.00 15.57
37.00 15.03
38.00 14.64
39.00 14.45
40.00 14.48
41.00 14.79
42.00 15.47
43.00 16.67
44.00 18.62
45.00 21.72
46.00 26.93
47.00 39.09
48.00 35.85
49.00 29.27
50.00 27.00
51.00 26.21
52.00 26.16
53.00 26.57
54.00 27.33
55.00 28.45
56.00 30.19
57.00 33.20
58.00 38.35
59.00 37.47
60.00 31.88
61.00 28.63
62.00 26.92
63.00 26.20
64.00 26.13
65.00 26.47
66.00 26.96
67.00 27.50
68.00 28.08
69.00 28.78
70.00 29.72
71.00 30.86
72.00 32.03
73.00 32.93
74.00 33.47
75.00 33.86
76.00 34.44
77.00 35.44
78.00 36.72
79.00 37.61
80.00 37.53
81.00 37.13
82.00 37.47
83.00 39.20
84.00 42.69
85.00 47.81
86.00 50.52
87.00 46.86
88.00 42.86
89.00 40.47
90.00 39.69
91.00 40.18
92.00 41.64
93.00 44.18
94.00 48.80
95.00 56.79
96.00 53.03
97.00 48.74
98.00 45.45
99.00 42.40
100.00 40.63
101.00 40.56
102.00 42.18
103.00 45.06
104.00 47.61
105.00 47.27
106.00 45.05
107.00 43.41
108.00 43.18
109.00 44.26
110.00 45.74
111.00 45.93
112.00 44.55
113.00 43.20
114.00 42.98
115.00 44.18
116.00 46.55
117.00 48.87
118.00 48.71
119.00 45.51
120.00 42.41
121.00 40.82
122.00 40.82
123.00 42.18
124.00 44.11
125.00 44.54
126.00 42.93
127.00 41.22
128.00 40.23
129.00 39.57
130.00 38.59
131.00 37.59
132.00 37.34
133.00 37.98
134.00 38.71
135.00 38.53
136.00 38.04
137.00 38.12
138.00 38.59
139.00 38.33
140.00 36.81
141.00 35.04
142.00 33.90
143.00 33.67
144.00 34.34
145.00 35.72
146.00 37.36
147.00 38.88
148.00 40.34
149.00 41.82
150.00 42.91
151.00 43.92
152.00 46.47
153.00 52.26
154.00 48.82
155.00 43.55
156.00 41.67
157.00 41.73
158.00 41.75
159.00 40.51
160.00 39.63
161.00 39.67
162.00 39.31
163.00 38.23
164.00 38.16
165.00 40.11
166.00 42.95
167.00 41.77
168.00 40.14
169.00 41.08
170.00 45.04
171.00 49.10
172.00 46.27
173.00 44.47
174.00 42.70
175.00 39.41
176.00 36.38
177.00 34.35
178.00 33.19
179.00 32.67
180.00 32.70
181.00 33.25
182.00 34.30
183.00 35.67
184.00 36.95
185.00 37.69
186.00 37.84
187.00 37.90
188.00 38.42
189.00 39.29
190.00 39.27
191.00 38.09
192.00 37.26
193.00 37.67
194.00 39.45
195.00 42.06
196.00 44.05
197.00 45.80
198.00 49.91
199.00 50.30
200.00 44.12
201.00 41.24
202.00 40.85
203.00 42.39
204.00 44.71
205.00 45.55
206.00 45.60
207.00 44.80
208.00 41.11
209.00 37.73
210.00 36.04
211.00 35.77
212.00 36.18
213.00 36.21
214.00 35.75
215.00 35.48
216.00 35.38
217.00 34.91
218.00 34.30
219.00 34.33
220.00 35.38
221.00 36.96
222.00 37.48
223.00 36.92
224.00 36.76
225.00 37.38
226.00 38.33
227.00 38.77
228.00 38.27
229.00 37.55
230.00 37.59
231.00 38.82
232.00 40.57
233.00 40.19
234.00 38.22
235.00 37.14
236.00 37.54
237.00 39.45
238.00 42.96
239.00 48.56
240.00 59.55
241.00 59.01
242.00 50.89
243.00 47.60
244.00 46.73
245.00 47.87
246.00 47.97
247.00 44.38
248.00 41.63
249.00 40.48
250.00 40.00
251.00 39.06
252.00 37.44
253.00 35.78
254.00 34.60
255.00 34.20
256.00 34.67
257.00 35.88
258.00 37.45
259.00 38.84
260.00 39.72
261.00 40.21
262.00 40.76
263.00 41.70
264.00 43.15
265.00 45.04
266.00 47.28
267.00 49.69
268.00 51.78
269.00 51.42
270.00 47.32
271.00 43.06
272.00 40.14
273.00 38.58
274.00 38.21
275.00 38.79
276.00 39.43
277.00 38.07
278.00 35.13
279.00 32.59
280.00 30.94
281.00 30.01
282.00 29.52
283.00 29.27
284.00 29.31
285.00 29.84
286.00 31.16
287.00 33.65
288.00 38.24
289.00 48.25
290.00 42.75
291.00 36.57
292.00 33.74
293.00 32.31
294.00 31.29
295.00 30.09
296.00 28.67
297.00 27.32
298.00 26.24
299.00 25.51
300.00 25.20
301.00 25.38
302.00 26.17
303.00 27.80
304.00 30.98
305.00 38.41
306.00 42.07
307.00 31.65
308.00 27.62
309.00 25.59
310.00 24.48
311.00 23.72
312.00 23.06
313.00 22.51
314.00 22.12
315.00 21.75
316.00 21.13
317.00 20.28
318.00 19.41
319.00 18.57
320.00 17.64
321.00 16.55
322.00 15.41
323.00 14.46
324.00 13.92
325.00 14.01
326.00 14.88
327.00 16.73
328.00 19.96
329.00 25.71
330.00 33.31
331.00 25.03
332.00 20.47
333.00 18.29
334.00 17.67
335.00 18.53
336.00 21.26
337.00 27.61
338.00 33.52
339.00 24.01
340.00 20.35
341.00 19.30
342.00 20.36
343.00 24.27
344.00 31.14
345.00 23.90
346.00 19.29
347.00 17.57
348.00 17.89
349.00 20.35
350.00 26.20
351.00 40.48
352.00 30.98
353.00 26.30
354.00 18.65
355.00 12.16
356.00 7.53
357.00 4.26
358.00 2.02
359.00 0.65
