NAME ATR4518R7_2655_X_CO_M45_02T_yyR
FREQUENCY 2655
GAIN 15.95 dBd
TILT	ELECTRICAL
COMMENT DATE 05.08.2013 -45 degrees polarized system Lever position 02T deg
HORIZONTAL 360
0.00 0.02
1.00 0.01
2.00 0.00
3.00 0.01
4.00 0.04
5.00 0.07
6.00 0.12
7.00 0.18
8.00 0.25
9.00 0.35
10.00 0.44
11.00 0.56
12.00 0.68
13.00 0.82
14.00 0.98
15.00 1.14
16.00 1.30
17.00 1.48
18.00 1.66
19.00 1.85
20.00 2.05
21.00 2.25
22.00 2.45
23.00 2.65
24.00 2.85
25.00 3.05
26.00 3.25
27.00 3.44
28.00 3.64
29.00 3.83
30.00 4.03
31.00 4.22
32.00 4.42
33.00 4.61
34.00 4.81
35.00 5.01
36.00 5.23
37.00 5.45
38.00 5.68
39.00 5.91
40.00 6.17
41.00 6.44
42.00 6.74
43.00 7.05
44.00 7.38
45.00 7.72
46.00 8.08
47.00 8.46
48.00 8.85
49.00 9.26
50.00 9.68
51.00 10.13
52.00 10.58
53.00 11.06
54.00 11.56
55.00 12.06
56.00 12.59
57.00 13.13
58.00 13.69
59.00 14.28
60.00 14.88
61.00 15.51
62.00 16.17
63.00 16.85
64.00 17.59
65.00 18.35
66.00 19.16
67.00 20.03
68.00 20.94
69.00 21.91
70.00 22.96
71.00 24.08
72.00 25.28
73.00 26.57
74.00 27.96
75.00 29.48
76.00 31.11
77.00 32.86
78.00 34.70
79.00 36.55
80.00 38.17
81.00 39.23
82.00 39.40
83.00 38.80
84.00 37.77
85.00 36.62
86.00 35.48
87.00 34.41
88.00 33.42
89.00 32.52
90.00 31.71
91.00 30.98
92.00 30.34
93.00 29.80
94.00 29.33
95.00 28.96
96.00 28.67
97.00 28.47
98.00 28.36
99.00 28.33
100.00 28.39
101.00 28.53
102.00 28.75
103.00 29.04
104.00 29.39
105.00 29.80
106.00 30.24
107.00 30.69
108.00 31.14
109.00 31.57
110.00 31.94
111.00 32.27
112.00 32.55
113.00 32.81
114.00 33.08
115.00 33.40
116.00 33.81
117.00 34.35
118.00 35.08
119.00 36.05
120.00 37.32
121.00 39.00
122.00 41.14
123.00 43.50
124.00 44.57
125.00 42.84
126.00 40.08
127.00 37.63
128.00 35.65
129.00 34.08
130.00 32.83
131.00 31.86
132.00 31.13
133.00 30.60
134.00 30.25
135.00 30.09
136.00 30.11
137.00 30.30
138.00 30.67
139.00 31.24
140.00 32.04
141.00 33.08
142.00 34.41
143.00 36.10
144.00 38.19
145.00 40.67
146.00 42.97
147.00 43.44
148.00 41.83
149.00 39.79
150.00 38.11
151.00 36.86
152.00 36.00
153.00 35.48
154.00 35.24
155.00 35.25
156.00 35.45
157.00 35.79
158.00 36.16
159.00 36.37
160.00 36.26
161.00 35.71
162.00 34.81
163.00 33.73
164.00 32.63
165.00 31.62
166.00 30.73
167.00 29.98
168.00 29.40
169.00 28.97
170.00 28.69
171.00 28.56
172.00 28.59
173.00 28.76
174.00 29.11
175.00 29.61
176.00 30.31
177.00 31.21
178.00 32.35
179.00 33.79
180.00 35.60
181.00 37.93
182.00 41.05
183.00 45.47
184.00 50.84
185.00 48.65
186.00 44.13
187.00 41.14
188.00 39.12
189.00 37.68
190.00 36.61
191.00 35.78
192.00 35.12
193.00 34.55
194.00 34.04
195.00 33.54
196.00 33.06
197.00 32.59
198.00 32.15
199.00 31.74
200.00 31.38
201.00 31.09
202.00 30.87
203.00 30.74
204.00 30.70
205.00 30.74
206.00 30.88
207.00 31.10
208.00 31.38
209.00 31.70
210.00 32.03
211.00 32.33
212.00 32.54
213.00 32.63
214.00 32.56
215.00 32.36
216.00 32.04
217.00 31.66
218.00 31.25
219.00 30.85
220.00 30.47
221.00 30.13
222.00 29.82
223.00 29.55
224.00 29.30
225.00 29.07
226.00 28.84
227.00 28.60
228.00 28.36
229.00 28.10
230.00 27.84
231.00 27.58
232.00 27.32
233.00 27.09
234.00 26.88
235.00 26.71
236.00 26.59
237.00 26.52
238.00 26.51
239.00 26.55
240.00 26.67
241.00 26.84
242.00 27.08
243.00 27.39
244.00 27.76
245.00 28.19
246.00 28.66
247.00 29.19
248.00 29.76
249.00 30.35
250.00 30.95
251.00 31.53
252.00 32.09
253.00 32.60
254.00 33.05
255.00 33.43
256.00 33.75
257.00 34.00
258.00 34.19
259.00 34.34
260.00 34.45
261.00 34.53
262.00 34.57
263.00 34.56
264.00 34.50
265.00 34.36
266.00 34.13
267.00 33.81
268.00 33.40
269.00 32.92
270.00 32.36
271.00 31.74
272.00 31.14
273.00 30.48
274.00 29.84
275.00 29.21
276.00 28.57
277.00 27.95
278.00 27.38
279.00 26.79
280.00 26.22
281.00 25.67
282.00 25.14
283.00 24.60
284.00 24.07
285.00 23.55
286.00 23.01
287.00 22.46
288.00 21.91
289.00 21.37
290.00 20.80
291.00 20.22
292.00 19.65
293.00 19.06
294.00 18.49
295.00 17.90
296.00 17.31
297.00 16.74
298.00 16.16
299.00 15.61
300.00 15.05
301.00 14.51
302.00 13.98
303.00 13.47
304.00 12.96
305.00 12.46
306.00 11.99
307.00 11.52
308.00 11.05
309.00 10.61
310.00 10.17
311.00 9.74
312.00 9.35
313.00 8.95
314.00 8.57
315.00 8.20
316.00 7.83
317.00 7.47
318.00 7.12
319.00 6.77
320.00 6.43
321.00 6.10
322.00 5.77
323.00 5.46
324.00 5.15
325.00 4.85
326.00 4.56
327.00 4.28
328.00 4.01
329.00 3.76
330.00 3.51
331.00 3.28
332.00 3.04
333.00 2.83
334.00 2.63
335.00 2.43
336.00 2.25
337.00 2.09
338.00 1.92
339.00 1.77
340.00 1.63
341.00 1.49
342.00 1.37
343.00 1.24
344.00 1.14
345.00 1.03
346.00 0.92
347.00 0.83
348.00 0.74
349.00 0.65
350.00 0.56
351.00 0.49
352.00 0.41
353.00 0.34
354.00 0.27
355.00 0.21
356.00 0.16
357.00 0.12
358.00 0.07
359.00 0.04
VERTICAL 360
0.00 2.62
1.00 0.63
2.00 0.00
3.00 0.71
4.00 2.95
5.00 7.29
6.00 15.03
7.00 18.16
8.00 14.80
9.00 15.94
10.00 20.34
11.00 18.67
12.00 14.60
13.00 13.73
14.00 15.96
15.00 21.15
16.00 20.06
17.00 16.19
18.00 15.84
19.00 18.86
20.00 24.59
21.00 21.88
22.00 17.50
23.00 15.82
24.00 15.72
25.00 16.49
26.00 17.31
27.00 17.35
28.00 16.51
29.00 15.37
30.00 14.49
31.00 14.21
32.00 14.89
33.00 17.20
34.00 23.04
35.00 34.36
36.00 23.45
37.00 20.16
38.00 20.96
39.00 25.88
40.00 35.42
41.00 25.99
42.00 21.51
43.00 20.51
44.00 21.77
45.00 25.16
46.00 30.74
47.00 37.27
48.00 42.73
49.00 47.78
50.00 48.34
51.00 54.41
52.00 39.66
53.00 34.06
54.00 31.09
55.00 29.20
56.00 28.77
57.00 30.10
58.00 32.64
59.00 31.43
60.00 25.49
61.00 20.92
62.00 18.13
63.00 16.57
64.00 15.75
65.00 15.31
66.00 15.12
67.00 15.19
68.00 15.58
69.00 16.19
70.00 16.86
71.00 17.50
72.00 18.14
73.00 18.85
74.00 19.64
75.00 20.46
76.00 21.40
77.00 22.63
78.00 24.04
79.00 25.26
80.00 26.29
81.00 27.84
82.00 31.45
83.00 34.51
84.00 30.58
85.00 27.47
86.00 25.91
87.00 25.34
88.00 26.24
89.00 29.14
90.00 32.28
91.00 30.90
92.00 28.80
93.00 27.85
94.00 27.50
95.00 28.63
96.00 31.83
97.00 35.02
98.00 34.34
99.00 32.48
100.00 31.12
101.00 30.76
102.00 31.55
103.00 32.81
104.00 33.39
105.00 33.21
106.00 33.02
107.00 33.39
108.00 34.56
109.00 36.62
110.00 38.94
111.00 39.19
112.00 37.57
113.00 36.19
114.00 35.67
115.00 36.07
116.00 37.15
117.00 38.66
118.00 40.84
119.00 43.64
120.00 45.67
121.00 44.67
122.00 41.06
123.00 37.82
124.00 36.52
125.00 37.63
126.00 40.69
127.00 43.02
128.00 43.17
129.00 42.62
130.00 42.69
131.00 42.87
132.00 41.03
133.00 40.40
134.00 42.13
135.00 43.50
136.00 41.09
137.00 37.21
138.00 35.66
139.00 37.25
140.00 39.94
141.00 40.47
142.00 43.72
143.00 62.55
144.00 60.80
145.00 53.88
146.00 43.71
147.00 42.95
148.00 47.24
149.00 45.57
150.00 45.06
151.00 51.60
152.00 54.60
153.00 50.04
154.00 44.12
155.00 41.48
156.00 42.39
157.00 44.08
158.00 39.90
159.00 35.40
160.00 34.08
161.00 35.68
162.00 38.53
163.00 41.37
164.00 47.62
165.00 43.15
166.00 39.86
167.00 43.48
168.00 55.31
169.00 43.14
170.00 38.75
171.00 39.63
172.00 46.05
173.00 39.35
174.00 34.82
175.00 35.15
176.00 37.65
177.00 39.38
178.00 41.05
179.00 43.10
180.00 42.73
181.00 39.68
182.00 38.05
183.00 39.46
184.00 42.62
185.00 39.96
186.00 36.53
187.00 35.22
188.00 34.79
189.00 35.11
190.00 36.86
191.00 39.47
192.00 39.88
193.00 40.84
194.00 45.76
195.00 50.06
196.00 43.14
197.00 37.58
198.00 35.82
199.00 37.32
200.00 37.78
201.00 35.23
202.00 34.74
203.00 36.49
204.00 38.34
205.00 37.61
206.00 35.19
207.00 33.87
208.00 35.17
209.00 40.89
210.00 47.97
211.00 41.49
212.00 40.55
213.00 41.07
214.00 39.99
215.00 39.08
216.00 38.41
217.00 37.15
218.00 35.63
219.00 34.99
220.00 35.37
221.00 35.35
222.00 35.22
223.00 37.12
224.00 42.03
225.00 50.70
226.00 46.47
227.00 38.67
228.00 36.32
229.00 36.51
230.00 36.13
231.00 34.98
232.00 34.96
233.00 35.78
234.00 36.52
235.00 37.70
236.00 40.79
237.00 41.13
238.00 36.44
239.00 34.37
240.00 34.79
241.00 36.47
242.00 37.94
243.00 38.14
244.00 37.82
245.00 38.30
246.00 39.29
247.00 39.36
248.00 38.57
249.00 38.26
250.00 37.40
251.00 34.19
252.00 31.54
253.00 30.93
254.00 32.29
255.00 34.92
256.00 36.71
257.00 36.39
258.00 36.38
259.00 38.10
260.00 39.63
261.00 37.22
262.00 35.03
263.00 35.67
264.00 40.71
265.00 51.73
266.00 42.18
267.00 38.27
268.00 36.97
269.00 37.12
270.00 37.70
271.00 35.98
272.00 33.53
273.00 32.54
274.00 32.89
275.00 33.84
276.00 35.04
277.00 36.08
278.00 35.41
279.00 34.13
280.00 33.45
281.00 32.62
282.00 31.81
283.00 31.69
284.00 31.61
285.00 30.96
286.00 30.23
287.00 29.96
288.00 30.61
289.00 31.94
290.00 32.00
291.00 30.38
292.00 28.60
293.00 26.54
294.00 23.85
295.00 21.05
296.00 18.72
297.00 16.99
298.00 15.75
299.00 14.84
300.00 14.22
301.00 14.01
302.00 14.34
303.00 15.32
304.00 17.06
305.00 19.82
306.00 24.56
307.00 35.30
308.00 31.03
309.00 24.30
310.00 22.17
311.00 22.44
312.00 24.32
313.00 25.14
314.00 23.34
315.00 22.17
316.00 22.80
317.00 24.75
318.00 26.27
319.00 25.72
320.00 23.57
321.00 21.13
322.00 19.80
323.00 20.42
324.00 23.91
325.00 28.73
326.00 23.99
327.00 19.68
328.00 18.05
329.00 18.51
330.00 21.27
331.00 27.22
332.00 34.33
333.00 31.91
334.00 27.17
335.00 22.31
336.00 18.95
337.00 17.24
338.00 17.24
339.00 19.51
340.00 26.61
341.00 31.78
342.00 22.41
343.00 20.48
344.00 22.41
345.00 29.85
346.00 32.37
347.00 24.83
348.00 23.92
349.00 27.12
350.00 28.63
351.00 24.67
352.00 23.95
353.00 26.71
354.00 26.89
355.00 23.97
356.00 27.03
357.00 23.92
358.00 12.31
359.00 6.25
