NAME ATR4518R7_0894_X_CO_P45_09T
FREQUENCY 0894
GAIN 14.62 dBd
TILT	ELECTRICAL
COMMENT DATE 05.08.2013 +45 degrees polarized system Lever position 09T deg
HORIZONTAL 360
0.00 0.00
1.00 0.00
2.00 0.00
3.00 0.01
4.00 0.02
5.00 0.04
6.00 0.07
7.00 0.10
8.00 0.14
9.00 0.18
10.00 0.23
11.00 0.29
12.00 0.35
13.00 0.42
14.00 0.50
15.00 0.58
16.00 0.67
17.00 0.76
18.00 0.86
19.00 0.96
20.00 1.07
21.00 1.19
22.00 1.31
23.00 1.44
24.00 1.58
25.00 1.72
26.00 1.86
27.00 2.02
28.00 2.17
29.00 2.34
30.00 2.51
31.00 2.69
32.00 2.87
33.00 3.06
34.00 3.25
35.00 3.45
36.00 3.65
37.00 3.86
38.00 4.08
39.00 4.30
40.00 4.52
41.00 4.76
42.00 4.99
43.00 5.24
44.00 5.48
45.00 5.73
46.00 5.99
47.00 6.25
48.00 6.52
49.00 6.79
50.00 7.07
51.00 7.35
52.00 7.64
53.00 7.92
54.00 8.22
55.00 8.52
56.00 8.82
57.00 9.13
58.00 9.44
59.00 9.75
60.00 10.07
61.00 10.39
62.00 10.71
63.00 11.04
64.00 11.38
65.00 11.71
66.00 12.05
67.00 12.40
68.00 12.74
69.00 13.09
70.00 13.45
71.00 13.80
72.00 14.17
73.00 14.53
74.00 14.90
75.00 15.28
76.00 15.66
77.00 16.04
78.00 16.43
79.00 16.83
80.00 17.23
81.00 17.63
82.00 18.05
83.00 18.47
84.00 18.90
85.00 19.33
86.00 19.78
87.00 20.23
88.00 20.69
89.00 21.17
90.00 21.66
91.00 22.16
92.00 22.67
93.00 23.19
94.00 23.74
95.00 24.29
96.00 24.87
97.00 25.46
98.00 26.08
99.00 26.71
100.00 27.37
101.00 28.05
102.00 28.75
103.00 29.47
104.00 30.21
105.00 30.97
106.00 31.74
107.00 32.52
108.00 33.28
109.00 34.01
110.00 34.68
111.00 35.27
112.00 35.74
113.00 36.06
114.00 36.22
115.00 36.23
116.00 36.11
117.00 35.88
118.00 35.58
119.00 35.24
120.00 34.88
121.00 34.53
122.00 34.18
123.00 33.84
124.00 33.54
125.00 33.26
126.00 33.01
127.00 32.78
128.00 32.58
129.00 32.42
130.00 32.28
131.00 32.17
132.00 32.08
133.00 32.03
134.00 32.00
135.00 31.99
136.00 32.02
137.00 32.07
138.00 32.15
139.00 32.25
140.00 32.38
141.00 32.55
142.00 32.74
143.00 32.96
144.00 33.21
145.00 33.50
146.00 33.81
147.00 34.17
148.00 34.56
149.00 34.99
150.00 35.46
151.00 35.97
152.00 36.52
153.00 37.11
154.00 37.73
155.00 38.36
156.00 39.00
157.00 39.60
158.00 40.12
159.00 40.51
160.00 40.71
161.00 40.70
162.00 40.44
163.00 40.01
164.00 39.43
165.00 38.77
166.00 38.07
167.00 37.37
168.00 36.68
169.00 36.03
170.00 35.41
171.00 34.83
172.00 34.30
173.00 33.80
174.00 33.34
175.00 32.91
176.00 32.53
177.00 32.17
178.00 31.85
179.00 31.56
180.00 31.30
181.00 31.07
182.00 30.87
183.00 30.69
184.00 30.54
185.00 30.41
186.00 30.31
187.00 30.23
188.00 30.17
189.00 30.14
190.00 30.13
191.00 30.14
192.00 30.18
193.00 30.23
194.00 30.30
195.00 30.40
196.00 30.52
197.00 30.65
198.00 30.81
199.00 30.99
200.00 31.18
201.00 31.40
202.00 31.63
203.00 31.88
204.00 32.15
205.00 32.43
206.00 32.73
207.00 33.04
208.00 33.36
209.00 33.69
210.00 34.02
211.00 34.34
212.00 34.67
213.00 34.97
214.00 35.27
215.00 35.53
216.00 35.76
217.00 35.96
218.00 36.10
219.00 36.20
220.00 36.25
221.00 36.25
222.00 36.20
223.00 36.10
224.00 35.97
225.00 35.80
226.00 35.60
227.00 35.38
228.00 35.15
229.00 34.90
230.00 34.65
231.00 34.39
232.00 34.12
233.00 33.85
234.00 33.59
235.00 33.32
236.00 33.06
237.00 32.79
238.00 32.53
239.00 32.27
240.00 32.01
241.00 31.75
242.00 31.49
243.00 31.23
244.00 30.97
245.00 30.70
246.00 30.43
247.00 30.16
248.00 29.88
249.00 29.60
250.00 29.32
251.00 29.02
252.00 28.72
253.00 28.42
254.00 28.10
255.00 27.78
256.00 27.45
257.00 27.10
258.00 26.76
259.00 26.40
260.00 26.03
261.00 25.66
262.00 25.27
263.00 24.89
264.00 24.49
265.00 24.09
266.00 23.68
267.00 23.27
268.00 22.85
269.00 22.43
270.00 22.01
271.00 21.59
272.00 21.17
273.00 20.75
274.00 20.32
275.00 19.90
276.00 19.48
277.00 19.06
278.00 18.65
279.00 18.24
280.00 17.83
281.00 17.42
282.00 17.02
283.00 16.62
284.00 16.23
285.00 15.84
286.00 15.45
287.00 15.07
288.00 14.70
289.00 14.32
290.00 13.96
291.00 13.60
292.00 13.24
293.00 12.88
294.00 12.53
295.00 12.19
296.00 11.85
297.00 11.51
298.00 11.18
299.00 10.85
300.00 10.53
301.00 10.20
302.00 9.89
303.00 9.58
304.00 9.27
305.00 8.97
306.00 8.67
307.00 8.38
308.00 8.09
309.00 7.80
310.00 7.52
311.00 7.24
312.00 6.97
313.00 6.70
314.00 6.44
315.00 6.18
316.00 5.92
317.00 5.68
318.00 5.43
319.00 5.19
320.00 4.95
321.00 4.72
322.00 4.50
323.00 4.28
324.00 4.06
325.00 3.85
326.00 3.65
327.00 3.45
328.00 3.25
329.00 3.06
330.00 2.88
331.00 2.70
332.00 2.52
333.00 2.36
334.00 2.19
335.00 2.04
336.00 1.89
337.00 1.74
338.00 1.60
339.00 1.47
340.00 1.34
341.00 1.21
342.00 1.10
343.00 0.99
344.00 0.88
345.00 0.78
346.00 0.69
347.00 0.60
348.00 0.52
349.00 0.44
350.00 0.37
351.00 0.31
352.00 0.25
353.00 0.20
354.00 0.15
355.00 0.11
356.00 0.08
357.00 0.05
358.00 0.03
359.00 0.01
VERTICAL 360
0.00 19.47
1.00 13.89
2.00 9.89
3.00 6.89
4.00 4.60
5.00 2.85
6.00 1.56
7.00 0.68
8.00 0.16
9.00 0.00
10.00 0.17
11.00 0.69
12.00 1.56
13.00 2.81
14.00 4.47
15.00 6.61
16.00 9.37
17.00 12.98
18.00 17.92
19.00 24.97
20.00 28.57
21.00 25.05
22.00 23.70
23.00 24.28
24.00 26.58
25.00 31.31
26.00 44.22
27.00 37.76
28.00 31.26
29.00 28.95
30.00 28.52
31.00 29.48
32.00 31.66
33.00 34.38
34.00 35.25
35.00 34.01
36.00 33.18
37.00 33.59
38.00 35.62
39.00 40.41
40.00 45.78
41.00 37.05
42.00 31.81
43.00 28.47
44.00 26.07
45.00 24.30
46.00 23.06
47.00 22.36
48.00 22.22
49.00 22.68
50.00 23.80
51.00 25.62
52.00 28.05
53.00 30.95
54.00 34.20
55.00 38.13
56.00 42.79
57.00 40.04
58.00 34.66
59.00 31.49
60.00 30.14
61.00 30.27
62.00 31.55
63.00 33.06
64.00 33.19
65.00 31.65
66.00 29.84
67.00 28.69
68.00 28.52
69.00 29.36
70.00 30.91
71.00 32.35
72.00 32.80
73.00 32.58
74.00 32.55
75.00 33.13
76.00 34.24
77.00 35.05
78.00 34.39
79.00 32.80
80.00 31.67
81.00 31.69
82.00 32.95
83.00 34.14
84.00 32.81
85.00 30.51
86.00 28.93
87.00 28.14
88.00 27.99
89.00 28.42
90.00 29.30
91.00 30.18
92.00 30.70
93.00 31.01
94.00 31.32
95.00 31.44
96.00 31.22
97.00 30.82
98.00 30.54
99.00 30.55
100.00 30.86
101.00 31.32
102.00 31.87
103.00 32.64
104.00 33.74
105.00 34.96
106.00 35.71
107.00 35.73
108.00 35.45
109.00 35.40
110.00 35.80
111.00 36.53
112.00 37.13
113.00 37.17
114.00 36.76
115.00 36.49
116.00 36.98
117.00 38.46
118.00 40.77
119.00 43.09
120.00 44.19
121.00 43.52
122.00 42.43
123.00 42.68
124.00 45.25
125.00 49.79
126.00 48.92
127.00 46.15
128.00 44.85
129.00 43.69
130.00 42.24
131.00 40.66
132.00 39.00
133.00 37.54
134.00 36.53
135.00 35.92
136.00 35.60
137.00 35.65
138.00 36.21
139.00 37.32
140.00 38.76
141.00 40.32
142.00 42.01
143.00 44.34
144.00 47.99
145.00 51.32
146.00 50.29
147.00 50.37
148.00 55.50
149.00 60.62
150.00 50.66
151.00 47.58
152.00 46.75
153.00 45.99
154.00 44.24
155.00 42.23
156.00 40.76
157.00 40.06
158.00 40.06
159.00 40.44
160.00 40.83
161.00 41.16
162.00 41.81
163.00 43.50
164.00 46.57
165.00 45.14
166.00 39.95
167.00 36.39
168.00 34.14
169.00 32.63
170.00 31.58
171.00 30.97
172.00 30.63
173.00 30.91
174.00 31.80
175.00 33.20
176.00 34.82
177.00 36.27
178.00 37.30
179.00 38.08
180.00 39.11
181.00 40.51
182.00 41.09
183.00 39.90
184.00 38.33
185.00 37.38
186.00 37.00
187.00 36.94
188.00 36.99
189.00 37.03
190.00 37.09
191.00 37.51
192.00 38.75
193.00 41.31
194.00 45.84
195.00 50.95
196.00 47.57
197.00 43.93
198.00 41.77
199.00 40.32
200.00 39.38
201.00 38.97
202.00 39.04
203.00 39.25
204.00 39.11
205.00 38.45
206.00 37.70
207.00 37.40
208.00 37.85
209.00 39.14
210.00 41.25
211.00 43.83
212.00 45.73
213.00 45.56
214.00 43.46
215.00 40.71
216.00 38.42
217.00 36.95
218.00 36.10
219.00 35.42
220.00 34.70
221.00 34.11
222.00 33.88
223.00 34.02
224.00 34.35
225.00 34.55
226.00 34.50
227.00 34.68
228.00 35.82
229.00 38.71
230.00 44.94
231.00 53.80
232.00 44.38
233.00 40.60
234.00 39.15
235.00 39.14
236.00 40.11
237.00 40.89
238.00 40.28
239.00 39.23
240.00 38.88
241.00 39.58
242.00 41.75
243.00 46.37
244.00 47.37
245.00 40.40
246.00 36.19
247.00 33.87
248.00 32.68
249.00 32.02
250.00 31.39
251.00 30.62
252.00 29.92
253.00 29.59
254.00 29.79
255.00 30.53
256.00 31.60
257.00 32.38
258.00 32.18
259.00 31.11
260.00 29.99
261.00 29.47
262.00 29.85
263.00 31.17
264.00 33.18
265.00 34.70
266.00 33.68
267.00 31.43
268.00 29.96
269.00 29.74
270.00 30.69
271.00 32.51
272.00 34.95
273.00 37.71
274.00 37.92
275.00 35.14
276.00 33.19
277.00 32.66
278.00 33.30
279.00 35.12
280.00 39.03
281.00 44.39
282.00 38.96
283.00 34.89
284.00 33.37
285.00 33.54
286.00 35.38
287.00 39.90
288.00 44.37
289.00 37.02
290.00 32.90
291.00 31.10
292.00 30.72
293.00 31.36
294.00 32.51
295.00 32.87
296.00 31.73
297.00 30.45
298.00 30.02
299.00 30.52
300.00 31.56
301.00 32.27
302.00 32.02
303.00 31.44
304.00 31.48
305.00 32.75
306.00 35.82
307.00 41.53
308.00 42.59
309.00 37.15
310.00 34.20
311.00 33.03
312.00 33.14
313.00 34.20
314.00 35.49
315.00 35.69
316.00 34.24
317.00 31.96
318.00 29.66
319.00 27.71
320.00 26.25
321.00 25.33
322.00 24.96
323.00 25.17
324.00 26.00
325.00 27.59
326.00 30.27
327.00 35.35
328.00 56.25
329.00 35.35
330.00 28.85
331.00 25.35
332.00 23.32
333.00 22.35
334.00 22.28
335.00 23.10
336.00 24.88
337.00 27.88
338.00 32.91
339.00 43.64
340.00 40.83
341.00 34.57
342.00 32.49
343.00 32.19
344.00 32.07
345.00 30.07
346.00 26.99
347.00 24.49
348.00 22.96
349.00 22.41
350.00 22.86
351.00 24.41
352.00 27.20
353.00 30.29
354.00 29.26
355.00 26.27
356.00 24.67
357.00 25.00
358.00 27.85
359.00 27.19
