NAME ATR4518R7_1750_X_CO_P45_05T_yL
FREQUENCY 1750
GAIN 15.04 dBd
TILT	ELECTRICAL
COMMENT DATE 05.08.2013 +45 degrees polarized system Lever position 05T deg
HORIZONTAL 360
0.00 0.02
1.00 0.01
2.00 0.00
3.00 0.01
4.00 0.02
5.00 0.03
6.00 0.06
7.00 0.09
8.00 0.13
9.00 0.18
10.00 0.23
11.00 0.29
12.00 0.36
13.00 0.42
14.00 0.50
15.00 0.58
16.00 0.66
17.00 0.75
18.00 0.84
19.00 0.93
20.00 1.03
21.00 1.13
22.00 1.23
23.00 1.34
24.00 1.45
25.00 1.56
26.00 1.68
27.00 1.81
28.00 1.94
29.00 2.07
30.00 2.21
31.00 2.36
32.00 2.51
33.00 2.66
34.00 2.82
35.00 2.99
36.00 3.16
37.00 3.34
38.00 3.52
39.00 3.71
40.00 3.91
41.00 4.11
42.00 4.31
43.00 4.52
44.00 4.73
45.00 4.95
46.00 5.16
47.00 5.39
48.00 5.61
49.00 5.84
50.00 6.07
51.00 6.31
52.00 6.55
53.00 6.79
54.00 7.03
55.00 7.28
56.00 7.53
57.00 7.78
58.00 8.04
59.00 8.31
60.00 8.58
61.00 8.85
62.00 9.13
63.00 9.41
64.00 9.71
65.00 10.00
66.00 10.31
67.00 10.63
68.00 10.95
69.00 11.28
70.00 11.62
71.00 11.97
72.00 12.33
73.00 12.70
74.00 13.07
75.00 13.45
76.00 13.84
77.00 14.24
78.00 14.64
79.00 15.05
80.00 15.46
81.00 15.87
82.00 16.28
83.00 16.70
84.00 17.10
85.00 17.51
86.00 17.91
87.00 18.30
88.00 18.68
89.00 19.06
90.00 19.42
91.00 19.77
92.00 20.11
93.00 20.45
94.00 20.77
95.00 21.08
96.00 21.39
97.00 21.69
98.00 21.99
99.00 22.29
100.00 22.58
101.00 22.88
102.00 23.17
103.00 23.47
104.00 23.77
105.00 24.07
106.00 24.36
107.00 24.66
108.00 24.97
109.00 25.27
110.00 25.58
111.00 25.89
112.00 26.21
113.00 26.54
114.00 26.88
115.00 27.24
116.00 27.62
117.00 28.03
118.00 28.45
119.00 28.91
120.00 29.39
121.00 29.88
122.00 30.36
123.00 30.83
124.00 31.24
125.00 31.56
126.00 31.75
127.00 31.78
128.00 31.66
129.00 31.41
130.00 31.05
131.00 30.63
132.00 30.20
133.00 29.77
134.00 29.38
135.00 29.05
136.00 28.77
137.00 28.58
138.00 28.45
139.00 28.41
140.00 28.46
141.00 28.60
142.00 28.84
143.00 29.18
144.00 29.63
145.00 30.21
146.00 30.93
147.00 31.81
148.00 32.87
149.00 34.17
150.00 35.75
151.00 37.72
152.00 40.21
153.00 43.40
154.00 46.99
155.00 47.88
156.00 45.04
157.00 42.17
158.00 40.01
159.00 38.44
160.00 37.32
161.00 36.52
162.00 36.00
163.00 35.72
164.00 35.66
165.00 35.79
166.00 36.14
167.00 36.69
168.00 37.46
169.00 38.45
170.00 39.66
171.00 41.01
172.00 42.25
173.00 42.87
174.00 42.45
175.00 41.20
176.00 39.68
177.00 38.23
178.00 36.95
179.00 35.89
180.00 35.02
181.00 34.34
182.00 33.81
183.00 33.44
184.00 33.21
185.00 33.12
186.00 33.16
187.00 33.34
188.00 33.64
189.00 34.08
190.00 34.65
191.00 35.36
192.00 36.20
193.00 37.14
194.00 38.10
195.00 38.94
196.00 39.44
197.00 39.40
198.00 38.82
199.00 37.88
200.00 36.81
201.00 35.75
202.00 34.78
203.00 33.92
204.00 33.17
205.00 32.54
206.00 32.01
207.00 31.58
208.00 31.25
209.00 31.01
210.00 30.85
211.00 30.77
212.00 30.78
213.00 30.87
214.00 31.05
215.00 31.31
216.00 31.68
217.00 32.15
218.00 32.74
219.00 33.47
220.00 34.38
221.00 35.51
222.00 36.93
223.00 38.76
224.00 41.26
225.00 45.00
226.00 52.08
227.00 61.35
228.00 47.72
229.00 42.55
230.00 39.32
231.00 36.98
232.00 35.16
233.00 33.70
234.00 32.49
235.00 31.47
236.00 30.60
237.00 29.86
238.00 29.24
239.00 28.70
240.00 28.24
241.00 27.85
242.00 27.52
243.00 27.25
244.00 27.01
245.00 26.82
246.00 26.65
247.00 26.50
248.00 26.36
249.00 26.22
250.00 26.08
251.00 25.93
252.00 25.76
253.00 25.57
254.00 25.36
255.00 25.12
256.00 24.85
257.00 24.57
258.00 24.26
259.00 23.94
260.00 23.60
261.00 23.26
262.00 22.91
263.00 22.55
264.00 22.19
265.00 21.83
266.00 21.47
267.00 21.11
268.00 20.75
269.00 20.38
270.00 20.02
271.00 19.66
272.00 19.29
273.00 18.92
274.00 18.56
275.00 18.19
276.00 17.82
277.00 17.45
278.00 17.08
279.00 16.71
280.00 16.34
281.00 15.97
282.00 15.61
283.00 15.25
284.00 14.89
285.00 14.54
286.00 14.19
287.00 13.84
288.00 13.50
289.00 13.17
290.00 12.83
291.00 12.51
292.00 12.19
293.00 11.87
294.00 11.56
295.00 11.26
296.00 10.96
297.00 10.67
298.00 10.38
299.00 10.10
300.00 9.83
301.00 9.55
302.00 9.29
303.00 9.03
304.00 8.78
305.00 8.53
306.00 8.29
307.00 8.05
308.00 7.82
309.00 7.60
310.00 7.38
311.00 7.16
312.00 6.95
313.00 6.74
314.00 6.54
315.00 6.34
316.00 6.14
317.00 5.94
318.00 5.75
319.00 5.55
320.00 5.36
321.00 5.17
322.00 4.98
323.00 4.79
324.00 4.60
325.00 4.41
326.00 4.22
327.00 4.03
328.00 3.84
329.00 3.65
330.00 3.47
331.00 3.28
332.00 3.10
333.00 2.93
334.00 2.75
335.00 2.58
336.00 2.42
337.00 2.25
338.00 2.10
339.00 1.94
340.00 1.79
341.00 1.65
342.00 1.51
343.00 1.38
344.00 1.25
345.00 1.13
346.00 1.01
347.00 0.90
348.00 0.79
349.00 0.69
350.00 0.59
351.00 0.50
352.00 0.42
353.00 0.35
354.00 0.28
355.00 0.22
356.00 0.16
357.00 0.12
358.00 0.08
359.00 0.05
VERTICAL 360
0.00 10.50
1.00 6.44
2.00 3.59
3.00 1.66
4.00 0.49
5.00 0.00
6.00 0.20
7.00 1.10
8.00 2.84
9.00 5.71
10.00 10.54
11.00 21.41
12.00 20.59
13.00 13.21
14.00 10.95
15.00 10.76
16.00 12.15
17.00 15.50
18.00 23.22
19.00 29.88
20.00 18.66
21.00 15.32
22.00 14.39
23.00 14.92
24.00 16.50
25.00 18.63
26.00 19.99
27.00 19.25
28.00 17.73
29.00 16.90
30.00 17.25
31.00 19.04
32.00 22.58
33.00 26.82
34.00 24.45
35.00 20.23
36.00 17.37
37.00 15.63
38.00 14.89
39.00 15.11
40.00 16.25
41.00 18.18
42.00 20.57
43.00 23.10
44.00 26.13
45.00 31.29
46.00 38.71
47.00 31.05
48.00 27.06
49.00 25.74
50.00 25.84
51.00 26.16
52.00 25.58
53.00 24.38
54.00 23.41
55.00 22.88
56.00 22.64
57.00 22.58
58.00 22.73
59.00 23.20
60.00 23.99
61.00 24.99
62.00 26.05
63.00 27.15
64.00 28.38
65.00 29.87
66.00 31.61
67.00 33.31
68.00 34.59
69.00 35.40
70.00 36.06
71.00 37.01
72.00 38.41
73.00 40.05
74.00 41.57
75.00 42.89
76.00 43.85
77.00 44.29
78.00 44.96
79.00 46.74
80.00 50.05
81.00 54.43
82.00 56.10
83.00 52.02
84.00 46.72
85.00 42.59
86.00 39.97
87.00 38.87
88.00 39.37
89.00 41.72
90.00 46.40
91.00 53.66
92.00 51.12
93.00 44.04
94.00 39.81
95.00 38.01
96.00 38.50
97.00 41.51
98.00 47.86
99.00 52.28
100.00 47.14
101.00 43.87
102.00 42.37
103.00 42.89
104.00 45.64
105.00 49.79
106.00 50.51
107.00 47.81
108.00 45.42
109.00 44.59
110.00 45.56
111.00 47.04
112.00 46.54
113.00 45.14
114.00 44.19
115.00 43.92
116.00 44.78
117.00 46.69
118.00 48.26
119.00 48.89
120.00 48.91
121.00 47.18
122.00 45.08
123.00 43.36
124.00 41.48
125.00 39.60
126.00 37.98
127.00 36.41
128.00 34.98
129.00 34.16
130.00 34.22
131.00 34.98
132.00 36.00
133.00 36.83
134.00 37.36
135.00 37.78
136.00 38.39
137.00 39.43
138.00 40.90
139.00 42.56
140.00 44.12
141.00 45.75
142.00 48.27
143.00 51.50
144.00 48.70
145.00 43.91
146.00 40.66
147.00 38.40
148.00 36.65
149.00 35.22
150.00 34.18
151.00 33.80
152.00 34.48
153.00 36.77
154.00 42.05
155.00 56.17
156.00 43.08
157.00 37.89
158.00 35.25
159.00 33.83
160.00 33.49
161.00 34.35
162.00 36.23
163.00 37.45
164.00 36.28
165.00 34.81
166.00 34.29
167.00 34.66
168.00 35.60
169.00 36.80
170.00 37.43
171.00 36.41
172.00 34.65
173.00 33.48
174.00 33.19
175.00 33.61
176.00 34.48
177.00 35.81
178.00 38.07
179.00 42.14
180.00 48.86
181.00 47.27
182.00 43.45
183.00 42.70
184.00 44.60
185.00 50.59
186.00 50.10
187.00 42.11
188.00 38.15
189.00 36.20
190.00 35.52
191.00 35.79
192.00 37.00
193.00 39.72
194.00 44.71
195.00 43.05
196.00 37.92
197.00 35.64
198.00 35.60
199.00 37.58
200.00 42.02
201.00 52.44
202.00 50.60
203.00 41.36
204.00 36.92
205.00 34.44
206.00 33.34
207.00 33.37
208.00 34.25
209.00 35.51
210.00 36.33
211.00 36.20
212.00 35.42
213.00 34.47
214.00 33.80
215.00 33.82
216.00 34.79
217.00 36.64
218.00 38.52
219.00 39.07
220.00 38.54
221.00 37.84
222.00 37.33
223.00 37.34
224.00 38.18
225.00 39.76
226.00 41.23
227.00 41.45
228.00 40.66
229.00 39.67
230.00 38.78
231.00 38.14
232.00 37.87
233.00 38.02
234.00 38.56
235.00 39.48
236.00 41.01
237.00 43.10
238.00 43.92
239.00 42.71
240.00 41.98
241.00 42.51
242.00 43.67
243.00 44.35
244.00 44.49
245.00 45.05
246.00 47.17
247.00 51.28
248.00 48.31
249.00 43.43
250.00 41.01
251.00 40.09
252.00 39.87
253.00 39.75
254.00 39.32
255.00 38.65
256.00 38.27
257.00 38.50
258.00 39.04
259.00 39.40
260.00 39.68
261.00 40.05
262.00 40.06
263.00 39.63
264.00 39.32
265.00 39.29
266.00 39.31
267.00 39.41
268.00 39.75
269.00 40.17
270.00 39.97
271.00 38.81
272.00 37.21
273.00 35.70
274.00 34.44
275.00 33.28
276.00 32.10
277.00 30.88
278.00 29.69
279.00 28.64
280.00 27.77
281.00 27.04
282.00 26.35
283.00 25.67
284.00 25.05
285.00 24.58
286.00 24.40
287.00 24.56
288.00 25.04
289.00 25.78
290.00 26.70
291.00 27.84
292.00 29.37
293.00 31.30
294.00 32.44
295.00 30.85
296.00 28.24
297.00 26.21
298.00 24.87
299.00 24.06
300.00 23.65
301.00 23.68
302.00 24.30
303.00 25.87
304.00 29.08
305.00 35.89
306.00 36.76
307.00 28.98
308.00 25.04
309.00 22.78
310.00 21.46
311.00 20.83
312.00 20.86
313.00 21.68
314.00 23.60
315.00 26.98
316.00 29.38
317.00 25.60
318.00 21.83
319.00 19.48
320.00 18.15
321.00 17.57
322.00 17.62
323.00 18.33
324.00 19.78
325.00 21.89
326.00 23.39
327.00 22.31
328.00 20.33
329.00 19.20
330.00 19.28
331.00 20.81
332.00 24.47
333.00 31.76
334.00 29.41
335.00 24.39
336.00 22.86
337.00 23.81
338.00 27.66
339.00 38.34
340.00 30.74
341.00 24.61
342.00 22.00
343.00 21.26
344.00 22.08
345.00 23.94
346.00 23.63
347.00 20.18
348.00 17.23
349.00 15.56
350.00 15.11
351.00 16.00
352.00 18.79
353.00 25.80
354.00 32.62
355.00 21.67
356.00 18.84
357.00 19.25
358.00 20.76
359.00 16.18
