NAME ATR4518R7_0880_X_CO_M45_06T
FREQUENCY 0880
GAIN 14.94 dBd
TILT	ELECTRICAL
COMMENT DATE 05.08.2013 -45 degrees polarized system Lever position 06T deg
HORIZONTAL 360
0.00 0.01
1.00 0.01
2.00 0.00
3.00 0.01
4.00 0.02
5.00 0.04
6.00 0.06
7.00 0.09
8.00 0.13
9.00 0.18
10.00 0.23
11.00 0.29
12.00 0.35
13.00 0.42
14.00 0.50
15.00 0.59
16.00 0.68
17.00 0.78
18.00 0.89
19.00 1.00
20.00 1.12
21.00 1.25
22.00 1.38
23.00 1.52
24.00 1.67
25.00 1.82
26.00 1.98
27.00 2.15
28.00 2.33
29.00 2.51
30.00 2.70
31.00 2.90
32.00 3.10
33.00 3.31
34.00 3.53
35.00 3.75
36.00 3.98
37.00 4.22
38.00 4.46
39.00 4.71
40.00 4.97
41.00 5.23
42.00 5.50
43.00 5.78
44.00 6.06
45.00 6.35
46.00 6.65
47.00 6.96
48.00 7.27
49.00 7.58
50.00 7.90
51.00 8.23
52.00 8.57
53.00 8.91
54.00 9.26
55.00 9.61
56.00 9.98
57.00 10.34
58.00 10.72
59.00 11.09
60.00 11.48
61.00 11.87
62.00 12.27
63.00 12.67
64.00 13.08
65.00 13.50
66.00 13.92
67.00 14.35
68.00 14.78
69.00 15.23
70.00 15.67
71.00 16.13
72.00 16.58
73.00 17.05
74.00 17.52
75.00 18.00
76.00 18.48
77.00 18.97
78.00 19.46
79.00 19.95
80.00 20.46
81.00 20.96
82.00 21.47
83.00 21.98
84.00 22.49
85.00 23.01
86.00 23.52
87.00 24.03
88.00 24.54
89.00 25.04
90.00 25.54
91.00 26.04
92.00 26.52
93.00 26.99
94.00 27.45
95.00 27.89
96.00 28.33
97.00 28.74
98.00 29.13
99.00 29.51
100.00 29.87
101.00 30.22
102.00 30.55
103.00 30.86
104.00 31.15
105.00 31.43
106.00 31.70
107.00 31.96
108.00 32.21
109.00 32.45
110.00 32.69
111.00 32.93
112.00 33.16
113.00 33.39
114.00 33.62
115.00 33.85
116.00 34.08
117.00 34.31
118.00 34.54
119.00 34.78
120.00 35.02
121.00 35.26
122.00 35.50
123.00 35.75
124.00 36.00
125.00 36.25
126.00 36.50
127.00 36.76
128.00 37.01
129.00 37.27
130.00 37.53
131.00 37.80
132.00 38.06
133.00 38.33
134.00 38.59
135.00 38.87
136.00 39.14
137.00 39.42
138.00 39.69
139.00 39.97
140.00 40.26
141.00 40.55
142.00 40.85
143.00 41.15
144.00 41.46
145.00 41.79
146.00 42.12
147.00 42.46
148.00 42.81
149.00 43.18
150.00 43.55
151.00 43.94
152.00 44.34
153.00 44.76
154.00 45.17
155.00 45.62
156.00 46.06
157.00 46.52
158.00 46.95
159.00 47.36
160.00 47.77
161.00 48.13
162.00 48.42
163.00 48.66
164.00 48.81
165.00 48.89
166.00 48.86
167.00 48.76
168.00 48.56
169.00 48.29
170.00 48.02
171.00 47.68
172.00 47.32
173.00 46.97
174.00 46.61
175.00 46.26
176.00 45.95
177.00 45.61
178.00 45.33
179.00 45.03
180.00 44.78
181.00 44.55
182.00 44.33
183.00 44.13
184.00 43.94
185.00 43.80
186.00 43.66
187.00 43.54
188.00 43.45
189.00 43.36
190.00 43.31
191.00 43.25
192.00 43.22
193.00 43.21
194.00 43.22
195.00 43.23
196.00 43.27
197.00 43.33
198.00 43.40
199.00 43.49
200.00 43.59
201.00 43.72
202.00 43.87
203.00 44.06
204.00 44.27
205.00 44.50
206.00 44.77
207.00 45.06
208.00 45.42
209.00 45.81
210.00 46.25
211.00 46.75
212.00 47.30
213.00 47.94
214.00 48.64
215.00 49.43
216.00 50.28
217.00 51.22
218.00 52.17
219.00 53.04
220.00 53.70
221.00 53.92
222.00 53.59
223.00 52.78
224.00 51.73
225.00 50.56
226.00 49.36
227.00 48.26
228.00 47.23
229.00 46.31
230.00 45.45
231.00 44.68
232.00 43.97
233.00 43.31
234.00 42.72
235.00 42.18
236.00 41.68
237.00 41.22
238.00 40.79
239.00 40.39
240.00 39.99
241.00 39.62
242.00 39.25
243.00 38.87
244.00 38.49
245.00 38.08
246.00 37.65
247.00 37.18
248.00 36.68
249.00 36.15
250.00 35.58
251.00 34.98
252.00 34.34
253.00 33.68
254.00 33.00
255.00 32.31
256.00 31.61
257.00 30.90
258.00 30.20
259.00 29.50
260.00 28.81
261.00 28.12
262.00 27.45
263.00 26.79
264.00 26.14
265.00 25.51
266.00 24.89
267.00 24.28
268.00 23.69
269.00 23.12
270.00 22.55
271.00 22.01
272.00 21.47
273.00 20.95
274.00 20.44
275.00 19.95
276.00 19.46
277.00 18.99
278.00 18.53
279.00 18.08
280.00 17.64
281.00 17.21
282.00 16.79
283.00 16.38
284.00 15.98
285.00 15.58
286.00 15.20
287.00 14.82
288.00 14.44
289.00 14.08
290.00 13.72
291.00 13.37
292.00 13.03
293.00 12.68
294.00 12.35
295.00 12.02
296.00 11.70
297.00 11.38
298.00 11.06
299.00 10.75
300.00 10.45
301.00 10.15
302.00 9.85
303.00 9.56
304.00 9.27
305.00 8.98
306.00 8.70
307.00 8.42
308.00 8.15
309.00 7.88
310.00 7.61
311.00 7.35
312.00 7.09
313.00 6.83
314.00 6.58
315.00 6.33
316.00 6.09
317.00 5.85
318.00 5.61
319.00 5.38
320.00 5.15
321.00 4.92
322.00 4.70
323.00 4.48
324.00 4.27
325.00 4.06
326.00 3.85
327.00 3.65
328.00 3.46
329.00 3.27
330.00 3.08
331.00 2.90
332.00 2.72
333.00 2.55
334.00 2.38
335.00 2.22
336.00 2.06
337.00 1.91
338.00 1.77
339.00 1.63
340.00 1.49
341.00 1.36
342.00 1.23
343.00 1.12
344.00 1.00
345.00 0.90
346.00 0.79
347.00 0.70
348.00 0.61
349.00 0.53
350.00 0.45
351.00 0.38
352.00 0.31
353.00 0.25
354.00 0.20
355.00 0.15
356.00 0.11
357.00 0.08
358.00 0.05
359.00 0.03
VERTICAL 360
0.00 7.14
1.00 4.79
2.00 2.98
3.00 1.64
4.00 0.72
5.00 0.18
6.00 0.00
7.00 0.18
8.00 0.70
9.00 1.60
10.00 2.91
11.00 4.70
12.00 7.09
13.00 10.31
14.00 14.77
15.00 21.73
16.00 32.65
17.00 25.26
18.00 22.05
19.00 21.55
20.00 22.86
21.00 26.24
22.00 32.72
23.00 30.64
24.00 24.91
25.00 22.00
26.00 20.76
27.00 20.68
28.00 21.58
29.00 23.43
30.00 26.31
31.00 30.18
32.00 32.48
33.00 30.02
34.00 27.39
35.00 26.05
36.00 25.92
37.00 26.75
38.00 27.65
39.00 26.87
40.00 24.65
41.00 22.55
42.00 21.03
43.00 19.99
44.00 19.28
45.00 18.82
46.00 18.69
47.00 18.98
48.00 19.82
49.00 21.30
50.00 23.48
51.00 26.39
52.00 30.02
53.00 34.50
54.00 39.71
55.00 38.39
56.00 33.17
57.00 29.75
58.00 27.83
59.00 27.11
60.00 27.40
61.00 28.56
62.00 30.24
63.00 31.49
64.00 31.43
65.00 30.75
66.00 30.47
67.00 30.91
68.00 31.76
69.00 32.03
70.00 31.07
71.00 29.82
72.00 29.26
73.00 29.71
74.00 31.11
75.00 32.52
76.00 31.90
77.00 29.57
78.00 27.39
79.00 26.03
80.00 25.63
81.00 26.16
82.00 27.18
83.00 27.46
84.00 27.14
85.00 26.49
86.00 25.68
87.00 25.22
88.00 25.49
89.00 26.07
90.00 26.44
91.00 26.59
92.00 26.54
93.00 26.13
94.00 25.64
95.00 25.50
96.00 25.99
97.00 27.10
98.00 28.72
99.00 30.38
100.00 31.30
101.00 31.14
102.00 30.44
103.00 29.98
104.00 30.16
105.00 31.13
106.00 32.83
107.00 34.90
108.00 36.24
109.00 35.71
110.00 34.31
111.00 33.24
112.00 32.84
113.00 33.04
114.00 33.71
115.00 34.70
116.00 35.59
117.00 35.77
118.00 35.29
119.00 34.86
120.00 34.95
121.00 35.56
122.00 36.49
123.00 37.31
124.00 37.37
125.00 36.71
126.00 36.06
127.00 35.90
128.00 36.32
129.00 37.07
130.00 37.71
131.00 37.96
132.00 37.96
133.00 37.94
134.00 38.01
135.00 38.13
136.00 38.27
137.00 38.35
138.00 38.21
139.00 37.69
140.00 36.81
141.00 35.87
142.00 35.22
143.00 35.09
144.00 35.48
145.00 36.08
146.00 36.24
147.00 35.64
148.00 34.70
149.00 33.88
150.00 33.34
151.00 33.03
152.00 32.79
153.00 32.51
154.00 32.24
155.00 32.11
156.00 32.29
157.00 32.90
158.00 34.03
159.00 35.53
160.00 36.48
161.00 35.78
162.00 34.24
163.00 33.09
164.00 32.74
165.00 33.29
166.00 34.74
167.00 37.00
168.00 39.93
169.00 43.93
170.00 51.74
171.00 54.94
172.00 46.76
173.00 44.37
174.00 44.33
175.00 44.33
176.00 45.45
177.00 46.01
178.00 44.42
179.00 41.79
180.00 40.04
181.00 39.19
182.00 39.00
183.00 39.24
184.00 39.41
185.00 38.64
186.00 36.90
187.00 35.20
188.00 34.01
189.00 33.28
190.00 32.75
191.00 32.18
192.00 31.54
193.00 30.97
194.00 30.62
195.00 30.61
196.00 30.97
197.00 31.72
198.00 32.90
199.00 34.62
200.00 36.83
201.00 38.77
202.00 38.94
203.00 37.59
204.00 36.11
205.00 34.94
206.00 34.13
207.00 33.70
208.00 33.74
209.00 34.35
210.00 35.58
211.00 37.39
212.00 39.62
213.00 42.19
214.00 45.46
215.00 51.07
216.00 61.85
217.00 49.97
218.00 44.67
219.00 41.75
220.00 39.80
221.00 38.29
222.00 37.15
223.00 36.42
224.00 35.99
225.00 35.67
226.00 35.35
227.00 35.20
228.00 35.34
229.00 35.78
230.00 36.43
231.00 37.21
232.00 38.07
233.00 39.15
234.00 40.94
235.00 44.23
236.00 49.48
237.00 49.72
238.00 46.44
239.00 44.94
240.00 44.14
241.00 43.64
242.00 43.89
243.00 44.81
244.00 45.15
245.00 44.72
246.00 44.78
247.00 45.22
248.00 44.68
249.00 43.61
250.00 43.19
251.00 43.23
252.00 42.45
253.00 40.32
254.00 37.93
255.00 36.16
256.00 35.36
257.00 35.56
258.00 36.54
259.00 37.64
260.00 37.77
261.00 36.67
262.00 35.20
263.00 34.26
264.00 34.27
265.00 35.39
266.00 37.53
267.00 40.31
268.00 42.81
269.00 43.31
270.00 41.87
271.00 40.87
272.00 41.57
273.00 44.39
274.00 49.65
275.00 57.72
276.00 55.46
277.00 47.04
278.00 42.84
279.00 41.41
280.00 41.86
281.00 42.21
282.00 40.59
283.00 38.93
284.00 38.42
285.00 38.78
286.00 39.06
287.00 38.40
288.00 37.00
289.00 35.52
290.00 34.41
291.00 33.87
292.00 33.98
293.00 34.67
294.00 35.86
295.00 37.47
296.00 39.45
297.00 41.26
298.00 40.97
299.00 38.70
300.00 36.52
301.00 34.88
302.00 33.47
303.00 32.02
304.00 30.64
305.00 29.55
306.00 28.93
307.00 29.01
308.00 30.02
309.00 32.09
310.00 34.18
311.00 32.86
312.00 29.65
313.00 26.92
314.00 24.72
315.00 22.81
316.00 21.09
317.00 19.61
318.00 18.50
319.00 17.83
320.00 17.66
321.00 17.99
322.00 18.82
323.00 20.13
324.00 21.91
325.00 24.22
326.00 27.31
327.00 31.77
328.00 37.78
329.00 35.45
330.00 31.04
331.00 28.87
332.00 28.26
333.00 28.93
334.00 30.91
335.00 34.79
336.00 43.41
337.00 47.00
338.00 37.14
339.00 33.64
340.00 31.95
341.00 30.61
342.00 28.58
343.00 26.02
344.00 23.73
345.00 22.15
346.00 21.43
347.00 21.66
348.00 23.04
349.00 25.95
350.00 30.30
351.00 29.73
352.00 25.83
353.00 23.87
354.00 23.93
355.00 25.93
356.00 25.67
357.00 19.47
358.00 14.14
359.00 10.18
