NAME ATR4518R7_1850_X_CO_P45_07T_yL
FREQUENCY 1850
GAIN 15.03 dBd
TILT	ELECTRICAL
COMMENT DATE 05.08.2013 +45 degrees polarized system Lever position 07T deg
HORIZONTAL 360
0.00 0.04
1.00 0.06
2.00 0.08
3.00 0.11
4.00 0.14
5.00 0.18
6.00 0.21
7.00 0.25
8.00 0.29
9.00 0.33
10.00 0.37
11.00 0.41
12.00 0.45
13.00 0.49
14.00 0.54
15.00 0.59
16.00 0.64
17.00 0.69
18.00 0.74
19.00 0.80
20.00 0.86
21.00 0.93
22.00 1.00
23.00 1.08
24.00 1.17
25.00 1.26
26.00 1.35
27.00 1.46
28.00 1.57
29.00 1.69
30.00 1.81
31.00 1.95
32.00 2.09
33.00 2.24
34.00 2.40
35.00 2.56
36.00 2.74
37.00 2.91
38.00 3.10
39.00 3.29
40.00 3.49
41.00 3.70
42.00 3.90
43.00 4.12
44.00 4.34
45.00 4.56
46.00 4.79
47.00 5.02
48.00 5.26
49.00 5.50
50.00 5.74
51.00 5.98
52.00 6.23
53.00 6.48
54.00 6.73
55.00 6.99
56.00 7.25
57.00 7.51
58.00 7.77
59.00 8.04
60.00 8.32
61.00 8.60
62.00 8.88
63.00 9.16
64.00 9.46
65.00 9.75
66.00 10.06
67.00 10.36
68.00 10.68
69.00 11.00
70.00 11.32
71.00 11.65
72.00 11.99
73.00 12.33
74.00 12.67
75.00 13.02
76.00 13.37
77.00 13.73
78.00 14.08
79.00 14.44
80.00 14.79
81.00 15.15
82.00 15.49
83.00 15.84
84.00 16.18
85.00 16.51
86.00 16.84
87.00 17.17
88.00 17.48
89.00 17.80
90.00 18.11
91.00 18.42
92.00 18.73
93.00 19.05
94.00 19.38
95.00 19.72
96.00 20.08
97.00 20.46
98.00 20.87
99.00 21.31
100.00 21.79
101.00 22.32
102.00 22.89
103.00 23.52
104.00 24.21
105.00 24.97
106.00 25.80
107.00 26.73
108.00 27.75
109.00 28.87
110.00 30.11
111.00 31.48
112.00 32.97
113.00 34.59
114.00 36.27
115.00 37.94
116.00 39.38
117.00 40.36
118.00 40.79
119.00 40.80
120.00 40.62
121.00 40.44
122.00 40.32
123.00 40.28
124.00 40.24
125.00 40.10
126.00 39.72
127.00 39.03
128.00 38.05
129.00 36.88
130.00 35.65
131.00 34.44
132.00 33.32
133.00 32.29
134.00 31.38
135.00 30.58
136.00 29.90
137.00 29.32
138.00 28.84
139.00 28.47
140.00 28.20
141.00 28.01
142.00 27.93
143.00 27.93
144.00 28.03
145.00 28.21
146.00 28.49
147.00 28.86
148.00 29.33
149.00 29.88
150.00 30.52
151.00 31.23
152.00 32.00
153.00 32.78
154.00 33.53
155.00 34.16
156.00 34.59
157.00 34.76
158.00 34.69
159.00 34.40
160.00 34.02
161.00 33.60
162.00 33.20
163.00 32.87
164.00 32.63
165.00 32.48
166.00 32.44
167.00 32.50
168.00 32.69
169.00 32.98
170.00 33.40
171.00 33.96
172.00 34.65
173.00 35.49
174.00 36.51
175.00 37.73
176.00 39.17
177.00 40.86
178.00 42.81
179.00 44.93
180.00 46.80
181.00 47.57
182.00 46.90
183.00 45.56
184.00 44.24
185.00 43.15
186.00 42.35
187.00 41.82
188.00 41.53
189.00 41.49
190.00 41.65
191.00 42.06
192.00 42.71
193.00 43.65
194.00 44.94
195.00 46.66
196.00 48.96
197.00 51.89
198.00 54.30
199.00 52.97
200.00 49.62
201.00 46.72
202.00 44.42
203.00 42.58
204.00 41.10
205.00 39.87
206.00 38.85
207.00 37.99
208.00 37.28
209.00 36.69
210.00 36.20
211.00 35.82
212.00 35.51
213.00 35.30
214.00 35.16
215.00 35.09
216.00 35.10
217.00 35.16
218.00 35.29
219.00 35.47
220.00 35.68
221.00 35.92
222.00 36.15
223.00 36.35
224.00 36.48
225.00 36.50
226.00 36.39
227.00 36.15
228.00 35.78
229.00 35.32
230.00 34.80
231.00 34.25
232.00 33.69
233.00 33.17
234.00 32.67
235.00 32.22
236.00 31.82
237.00 31.47
238.00 31.17
239.00 30.91
240.00 30.69
241.00 30.51
242.00 30.34
243.00 30.20
244.00 30.05
245.00 29.90
246.00 29.72
247.00 29.51
248.00 29.26
249.00 28.95
250.00 28.61
251.00 28.21
252.00 27.77
253.00 27.30
254.00 26.81
255.00 26.30
256.00 25.78
257.00 25.26
258.00 24.75
259.00 24.24
260.00 23.75
261.00 23.26
262.00 22.80
263.00 22.34
264.00 21.89
265.00 21.46
266.00 21.04
267.00 20.64
268.00 20.24
269.00 19.86
270.00 19.48
271.00 19.11
272.00 18.76
273.00 18.41
274.00 18.07
275.00 17.74
276.00 17.42
277.00 17.10
278.00 16.80
279.00 16.50
280.00 16.21
281.00 15.92
282.00 15.65
283.00 15.38
284.00 15.11
285.00 14.85
286.00 14.60
287.00 14.35
288.00 14.10
289.00 13.85
290.00 13.60
291.00 13.35
292.00 13.10
293.00 12.85
294.00 12.60
295.00 12.35
296.00 12.09
297.00 11.83
298.00 11.57
299.00 11.31
300.00 11.04
301.00 10.77
302.00 10.51
303.00 10.25
304.00 9.98
305.00 9.72
306.00 9.46
307.00 9.21
308.00 8.96
309.00 8.71
310.00 8.47
311.00 8.24
312.00 8.00
313.00 7.77
314.00 7.54
315.00 7.31
316.00 7.08
317.00 6.85
318.00 6.62
319.00 6.39
320.00 6.15
321.00 5.91
322.00 5.66
323.00 5.41
324.00 5.15
325.00 4.89
326.00 4.63
327.00 4.37
328.00 4.10
329.00 3.84
330.00 3.58
331.00 3.32
332.00 3.06
333.00 2.81
334.00 2.57
335.00 2.34
336.00 2.11
337.00 1.90
338.00 1.69
339.00 1.50
340.00 1.32
341.00 1.15
342.00 0.99
343.00 0.85
344.00 0.72
345.00 0.60
346.00 0.49
347.00 0.39
348.00 0.31
349.00 0.24
350.00 0.18
351.00 0.12
352.00 0.08
353.00 0.05
354.00 0.03
355.00 0.01
356.00 0.00
357.00 0.00
358.00 0.01
359.00 0.02
VERTICAL 360
0.00 17.52
1.00 12.13
2.00 7.96
3.00 4.83
4.00 2.57
5.00 1.06
6.00 0.21
7.00 0.00
8.00 0.44
9.00 1.60
10.00 3.61
11.00 6.80
12.00 11.99
13.00 21.03
14.00 18.38
15.00 13.93
16.00 12.74
17.00 13.63
18.00 16.68
19.00 22.94
20.00 22.63
21.00 16.85
22.00 14.11
23.00 13.21
24.00 13.69
25.00 15.43
26.00 18.59
27.00 23.14
28.00 24.10
29.00 20.42
30.00 17.97
31.00 17.13
32.00 17.83
33.00 20.50
34.00 27.07
35.00 32.19
36.00 22.62
37.00 18.89
38.00 17.33
39.00 16.96
40.00 17.29
41.00 18.02
42.00 18.98
43.00 20.16
44.00 21.65
45.00 23.48
46.00 25.36
47.00 26.48
48.00 26.63
49.00 26.67
50.00 27.11
51.00 27.64
52.00 27.68
53.00 27.41
54.00 27.48
55.00 28.22
56.00 29.61
57.00 31.40
58.00 33.33
59.00 35.33
60.00 37.29
61.00 38.42
62.00 38.06
63.00 37.32
64.00 37.16
65.00 37.49
66.00 37.62
67.00 36.94
68.00 35.72
69.00 34.46
70.00 33.43
71.00 32.71
72.00 32.26
73.00 31.99
74.00 31.80
75.00 31.65
76.00 31.54
77.00 31.52
78.00 31.68
79.00 31.99
80.00 32.37
81.00 32.74
82.00 33.13
83.00 33.71
84.00 34.66
85.00 35.95
86.00 36.89
87.00 36.68
88.00 35.67
89.00 34.53
90.00 33.53
91.00 32.92
92.00 32.87
93.00 33.31
94.00 34.00
95.00 34.70
96.00 35.38
97.00 36.11
98.00 36.91
99.00 37.86
100.00 39.02
101.00 40.20
102.00 40.92
103.00 40.85
104.00 40.30
105.00 39.91
106.00 40.10
107.00 40.81
108.00 41.34
109.00 40.85
110.00 39.58
111.00 38.37
112.00 37.71
113.00 37.66
114.00 38.01
115.00 38.34
116.00 38.40
117.00 38.42
118.00 38.83
119.00 39.89
120.00 41.47
121.00 42.76
122.00 43.19
123.00 43.29
124.00 42.79
125.00 41.28
126.00 39.71
127.00 38.60
128.00 37.55
129.00 36.30
130.00 35.21
131.00 34.66
132.00 34.65
133.00 34.98
134.00 35.34
135.00 35.57
136.00 35.79
137.00 36.34
138.00 37.66
139.00 40.03
140.00 43.35
141.00 46.48
142.00 48.01
143.00 46.38
144.00 42.68
145.00 40.15
146.00 39.49
147.00 40.73
148.00 43.82
149.00 47.97
150.00 49.89
151.00 46.87
152.00 42.93
153.00 40.70
154.00 40.04
155.00 39.17
156.00 36.79
157.00 34.72
158.00 34.19
159.00 35.43
160.00 37.79
161.00 37.73
162.00 35.11
163.00 33.05
164.00 31.77
165.00 30.98
166.00 30.79
167.00 31.47
168.00 33.27
169.00 36.31
170.00 39.99
171.00 41.61
172.00 40.81
173.00 39.98
174.00 39.43
175.00 38.62
176.00 37.17
177.00 35.54
178.00 34.45
179.00 34.29
180.00 34.93
181.00 35.64
182.00 35.63
183.00 35.52
184.00 36.36
185.00 38.40
186.00 40.39
187.00 40.41
188.00 40.17
189.00 41.21
190.00 43.46
191.00 46.09
192.00 48.38
193.00 49.97
194.00 49.79
195.00 47.46
196.00 44.90
197.00 43.95
198.00 45.90
199.00 54.84
200.00 53.63
201.00 46.75
202.00 46.41
203.00 44.84
204.00 39.58
205.00 36.08
206.00 34.24
207.00 33.06
208.00 31.73
209.00 30.31
210.00 29.21
211.00 28.61
212.00 28.45
213.00 28.66
214.00 29.17
215.00 29.91
216.00 30.96
217.00 32.62
218.00 35.44
219.00 40.56
220.00 53.29
221.00 48.77
222.00 43.01
223.00 41.41
224.00 41.22
225.00 41.58
226.00 42.16
227.00 42.84
228.00 43.55
229.00 44.31
230.00 45.30
231.00 46.68
232.00 48.04
233.00 48.08
234.00 46.28
235.00 44.03
236.00 42.29
237.00 41.35
238.00 41.29
239.00 42.09
240.00 43.42
241.00 44.30
242.00 44.39
243.00 44.97
244.00 47.39
245.00 52.71
246.00 53.46
247.00 48.07
248.00 44.79
249.00 42.31
250.00 40.12
251.00 38.37
252.00 37.37
253.00 37.29
254.00 38.24
255.00 40.29
256.00 43.57
257.00 48.99
258.00 65.71
259.00 49.40
260.00 42.66
261.00 38.77
262.00 36.11
263.00 34.22
264.00 32.93
265.00 32.13
266.00 31.76
267.00 31.74
268.00 31.98
269.00 32.33
270.00 32.61
271.00 32.61
272.00 32.16
273.00 31.25
274.00 30.16
275.00 29.15
276.00 28.35
277.00 27.76
278.00 27.38
279.00 27.22
280.00 27.33
281.00 27.74
282.00 28.43
283.00 29.42
284.00 30.82
285.00 32.91
286.00 36.08
287.00 39.45
288.00 37.04
289.00 32.76
290.00 29.86
291.00 28.02
292.00 26.72
293.00 25.50
294.00 24.18
295.00 22.94
296.00 22.01
297.00 21.58
298.00 21.76
299.00 22.67
300.00 24.42
301.00 27.21
302.00 31.77
303.00 42.60
304.00 37.91
305.00 29.67
306.00 25.81
307.00 23.77
308.00 23.01
309.00 23.34
310.00 24.83
311.00 27.88
312.00 34.34
313.00 40.58
314.00 29.07
315.00 24.04
316.00 21.23
317.00 19.77
318.00 19.42
319.00 20.15
320.00 22.10
321.00 25.85
322.00 32.60
323.00 29.97
324.00 23.86
325.00 20.49
326.00 18.71
327.00 18.09
328.00 18.51
329.00 19.97
330.00 22.38
331.00 25.04
332.00 26.09
333.00 25.71
334.00 26.02
335.00 28.07
336.00 30.93
337.00 27.62
338.00 23.05
339.00 20.33
340.00 19.18
341.00 19.41
342.00 21.13
343.00 24.79
344.00 30.99
345.00 31.78
346.00 28.33
347.00 27.71
348.00 27.86
349.00 24.78
350.00 20.73
351.00 17.95
352.00 16.52
353.00 16.35
354.00 17.51
355.00 20.31
356.00 25.62
357.00 34.40
358.00 30.12
359.00 23.80
