NAME ATR4518R7_2140_X_CO_P45_05T_yL
FREQUENCY 2140
GAIN 15.64 dBd
TILT	ELECTRICAL
COMMENT DATE 05.08.2013 +45 degrees polarized system Lever position 05T deg
HORIZONTAL 360
0.00 0.01
1.00 0.02
2.00 0.04
3.00 0.06
4.00 0.09
5.00 0.12
6.00 0.16
7.00 0.20
8.00 0.25
9.00 0.30
10.00 0.36
11.00 0.42
12.00 0.49
13.00 0.56
14.00 0.64
15.00 0.72
16.00 0.80
17.00 0.88
18.00 0.97
19.00 1.06
20.00 1.15
21.00 1.24
22.00 1.34
23.00 1.45
24.00 1.56
25.00 1.67
26.00 1.79
27.00 1.92
28.00 2.06
29.00 2.20
30.00 2.35
31.00 2.51
32.00 2.69
33.00 2.87
34.00 3.06
35.00 3.26
36.00 3.47
37.00 3.70
38.00 3.93
39.00 4.17
40.00 4.42
41.00 4.68
42.00 4.95
43.00 5.22
44.00 5.50
45.00 5.78
46.00 6.08
47.00 6.37
48.00 6.67
49.00 6.96
50.00 7.27
51.00 7.57
52.00 7.87
53.00 8.17
54.00 8.48
55.00 8.78
56.00 9.08
57.00 9.39
58.00 9.70
59.00 10.01
60.00 10.32
61.00 10.63
62.00 10.95
63.00 11.27
64.00 11.59
65.00 11.92
66.00 12.26
67.00 12.61
68.00 12.96
69.00 13.32
70.00 13.69
71.00 14.06
72.00 14.45
73.00 14.84
74.00 15.24
75.00 15.64
76.00 16.05
77.00 16.46
78.00 16.87
79.00 17.28
80.00 17.69
81.00 18.09
82.00 18.49
83.00 18.87
84.00 19.25
85.00 19.62
86.00 19.97
87.00 20.31
88.00 20.64
89.00 20.96
90.00 21.28
91.00 21.59
92.00 21.91
93.00 22.23
94.00 22.56
95.00 22.91
96.00 23.27
97.00 23.65
98.00 24.06
99.00 24.49
100.00 24.96
101.00 25.46
102.00 25.99
103.00 26.56
104.00 27.16
105.00 27.79
106.00 28.45
107.00 29.13
108.00 29.83
109.00 30.53
110.00 31.21
111.00 31.87
112.00 32.48
113.00 33.01
114.00 33.44
115.00 33.77
116.00 33.97
117.00 34.05
118.00 34.03
119.00 33.91
120.00 33.74
121.00 33.53
122.00 33.30
123.00 33.08
124.00 32.88
125.00 32.72
126.00 32.60
127.00 32.55
128.00 32.55
129.00 32.64
130.00 32.79
131.00 33.04
132.00 33.37
133.00 33.78
134.00 34.27
135.00 34.81
136.00 35.38
137.00 35.90
138.00 36.31
139.00 36.50
140.00 36.43
141.00 36.09
142.00 35.56
143.00 34.92
144.00 34.26
145.00 33.63
146.00 33.09
147.00 32.63
148.00 32.29
149.00 32.05
150.00 31.93
151.00 31.93
152.00 32.06
153.00 32.31
154.00 32.71
155.00 33.24
156.00 33.94
157.00 34.82
158.00 35.89
159.00 37.19
160.00 38.73
161.00 40.49
162.00 42.35
163.00 43.86
164.00 44.29
165.00 43.51
166.00 42.20
167.00 40.91
168.00 39.85
169.00 39.06
170.00 38.52
171.00 38.23
172.00 38.16
173.00 38.33
174.00 38.71
175.00 39.33
176.00 40.20
177.00 41.32
178.00 42.68
179.00 44.20
180.00 45.52
181.00 46.01
182.00 45.33
183.00 43.94
184.00 42.45
185.00 41.12
186.00 40.02
187.00 39.17
188.00 38.54
189.00 38.11
190.00 37.87
191.00 37.79
192.00 37.86
193.00 38.07
194.00 38.38
195.00 38.76
196.00 39.14
197.00 39.43
198.00 39.55
199.00 39.41
200.00 39.02
201.00 38.42
202.00 37.71
203.00 36.96
204.00 36.26
205.00 35.62
206.00 35.07
207.00 34.62
208.00 34.27
209.00 34.03
210.00 33.89
211.00 33.86
212.00 33.93
213.00 34.11
214.00 34.40
215.00 34.80
216.00 35.33
217.00 35.99
218.00 36.80
219.00 37.79
220.00 39.00
221.00 40.47
222.00 42.30
223.00 44.60
224.00 47.43
225.00 50.15
226.00 50.12
227.00 47.37
228.00 44.53
229.00 42.22
230.00 40.38
231.00 38.89
232.00 37.67
233.00 36.66
234.00 35.82
235.00 35.13
236.00 34.57
237.00 34.13
238.00 33.79
239.00 33.55
240.00 33.41
241.00 33.35
242.00 33.37
243.00 33.46
244.00 33.61
245.00 33.79
246.00 33.97
247.00 34.12
248.00 34.18
249.00 34.11
250.00 33.88
251.00 33.48
252.00 32.93
253.00 32.26
254.00 31.54
255.00 30.79
256.00 30.06
257.00 29.34
258.00 28.67
259.00 28.04
260.00 27.46
261.00 26.92
262.00 26.42
263.00 25.96
264.00 25.53
265.00 25.13
266.00 24.75
267.00 24.39
268.00 24.03
269.00 23.69
270.00 23.34
271.00 23.00
272.00 22.65
273.00 22.30
274.00 21.94
275.00 21.58
276.00 21.21
277.00 20.84
278.00 20.47
279.00 20.09
280.00 19.72
281.00 19.36
282.00 18.99
283.00 18.64
284.00 18.29
285.00 17.94
286.00 17.60
287.00 17.27
288.00 16.95
289.00 16.62
290.00 16.30
291.00 15.98
292.00 15.67
293.00 15.35
294.00 15.03
295.00 14.70
296.00 14.37
297.00 14.03
298.00 13.68
299.00 13.33
300.00 12.96
301.00 12.59
302.00 12.22
303.00 11.83
304.00 11.45
305.00 11.05
306.00 10.66
307.00 10.26
308.00 9.87
309.00 9.48
310.00 9.09
311.00 8.71
312.00 8.33
313.00 7.97
314.00 7.60
315.00 7.25
316.00 6.90
317.00 6.57
318.00 6.24
319.00 5.91
320.00 5.60
321.00 5.30
322.00 5.00
323.00 4.71
324.00 4.43
325.00 4.16
326.00 3.89
327.00 3.63
328.00 3.37
329.00 3.13
330.00 2.89
331.00 2.66
332.00 2.44
333.00 2.23
334.00 2.03
335.00 1.84
336.00 1.66
337.00 1.49
338.00 1.33
339.00 1.18
340.00 1.04
341.00 0.91
342.00 0.79
343.00 0.68
344.00 0.58
345.00 0.50
346.00 0.42
347.00 0.35
348.00 0.28
349.00 0.23
350.00 0.18
351.00 0.14
352.00 0.10
353.00 0.07
354.00 0.05
355.00 0.03
356.00 0.02
357.00 0.01
358.00 0.00
359.00 0.01
VERTICAL 360
0.00 11.72
1.00 7.01
2.00 3.75
3.00 1.61
4.00 0.39
5.00 0.00
6.00 0.43
7.00 1.76
8.00 4.21
9.00 8.36
10.00 16.21
11.00 25.72
12.00 15.84
13.00 13.93
14.00 15.31
15.00 19.96
16.00 24.63
17.00 18.95
18.00 15.91
19.00 15.28
20.00 16.52
21.00 19.99
22.00 26.99
23.00 25.94
24.00 20.99
25.00 19.68
26.00 21.19
27.00 26.68
28.00 36.47
29.00 24.57
30.00 20.61
31.00 19.29
32.00 19.40
33.00 20.39
34.00 21.88
35.00 23.54
36.00 24.53
37.00 23.67
38.00 22.05
39.00 21.25
40.00 21.71
41.00 23.08
42.00 23.72
43.00 22.57
44.00 21.40
45.00 21.34
46.00 22.69
47.00 25.72
48.00 31.22
49.00 36.41
50.00 31.21
51.00 27.79
52.00 26.25
53.00 25.93
54.00 26.69
55.00 28.56
56.00 31.64
57.00 35.05
58.00 35.19
59.00 33.34
60.00 32.22
61.00 31.81
62.00 31.49
63.00 31.05
64.00 30.71
65.00 30.74
66.00 31.26
67.00 32.37
68.00 34.13
69.00 36.40
70.00 38.61
71.00 39.97
72.00 40.35
73.00 40.46
74.00 40.97
75.00 41.99
76.00 43.00
77.00 43.23
78.00 42.66
79.00 42.00
80.00 41.92
81.00 42.48
82.00 43.23
83.00 43.50
84.00 43.13
85.00 42.60
86.00 42.38
87.00 42.53
88.00 42.96
89.00 44.01
90.00 46.76
91.00 54.86
92.00 54.74
93.00 46.13
94.00 43.53
95.00 43.81
96.00 46.53
97.00 51.60
98.00 56.93
99.00 56.38
100.00 53.95
101.00 54.15
102.00 55.03
103.00 49.42
104.00 45.56
105.00 44.59
106.00 46.08
107.00 49.41
108.00 51.81
109.00 52.10
110.00 52.09
111.00 48.99
112.00 45.42
113.00 43.46
114.00 42.65
115.00 42.06
116.00 41.54
117.00 41.75
118.00 42.79
119.00 43.45
120.00 42.85
121.00 41.95
122.00 41.31
123.00 41.34
124.00 43.00
125.00 48.31
126.00 52.86
127.00 44.14
128.00 40.83
129.00 40.42
130.00 42.61
131.00 48.32
132.00 46.39
133.00 40.11
134.00 37.04
135.00 35.98
136.00 36.29
137.00 37.04
138.00 36.63
139.00 35.15
140.00 33.95
141.00 33.55
142.00 34.12
143.00 36.06
144.00 40.40
145.00 50.91
146.00 48.35
147.00 44.17
148.00 44.92
149.00 45.06
150.00 41.74
151.00 39.18
152.00 37.56
153.00 36.68
154.00 37.20
155.00 40.03
156.00 44.48
157.00 42.66
158.00 41.19
159.00 43.88
160.00 48.10
161.00 43.85
162.00 43.48
163.00 51.16
164.00 45.47
165.00 39.25
166.00 38.18
167.00 40.35
168.00 42.28
169.00 40.80
170.00 41.02
171.00 44.10
172.00 44.35
173.00 41.64
174.00 41.46
175.00 43.44
176.00 45.22
177.00 44.67
178.00 41.82
179.00 38.91
180.00 37.70
181.00 39.01
182.00 43.22
183.00 50.48
184.00 53.93
185.00 56.80
186.00 45.83
187.00 40.42
188.00 38.51
189.00 38.73
190.00 39.61
191.00 39.74
192.00 40.13
193.00 42.22
194.00 45.11
195.00 45.05
196.00 44.61
197.00 45.37
198.00 44.64
199.00 43.28
200.00 43.69
201.00 45.35
202.00 44.53
203.00 42.26
204.00 41.22
205.00 40.52
206.00 38.70
207.00 36.72
208.00 35.70
209.00 35.67
210.00 35.95
211.00 35.73
212.00 35.10
213.00 34.86
214.00 35.65
215.00 37.90
216.00 41.98
217.00 47.12
218.00 47.58
219.00 45.34
220.00 44.92
221.00 48.03
222.00 59.46
223.00 46.91
224.00 41.32
225.00 38.38
226.00 36.73
227.00 36.61
228.00 38.89
229.00 46.24
230.00 52.78
231.00 42.76
232.00 41.47
233.00 44.29
234.00 53.48
235.00 49.53
236.00 42.68
237.00 39.44
238.00 37.95
239.00 38.04
240.00 40.07
241.00 45.26
242.00 50.51
243.00 43.31
244.00 39.63
245.00 37.89
246.00 37.05
247.00 36.75
248.00 37.01
249.00 37.97
250.00 39.54
251.00 40.82
252.00 40.91
253.00 40.92
254.00 41.97
255.00 43.18
256.00 41.75
257.00 39.01
258.00 36.98
259.00 35.80
260.00 35.23
261.00 34.94
262.00 34.58
263.00 33.73
264.00 32.26
265.00 30.48
266.00 28.80
267.00 27.40
268.00 26.20
269.00 25.04
270.00 23.84
271.00 22.61
272.00 21.50
273.00 20.61
274.00 20.04
275.00 19.79
276.00 19.81
277.00 20.03
278.00 20.41
279.00 20.97
280.00 21.74
281.00 22.71
282.00 23.69
283.00 24.44
284.00 24.85
285.00 25.03
286.00 25.16
287.00 25.50
288.00 26.40
289.00 28.22
290.00 31.05
291.00 33.30
292.00 32.77
293.00 31.65
294.00 30.88
295.00 29.77
296.00 28.34
297.00 27.28
298.00 27.13
299.00 28.37
300.00 31.76
301.00 36.73
302.00 33.16
303.00 29.12
304.00 27.10
305.00 26.08
306.00 25.56
307.00 25.53
308.00 26.22
309.00 27.82
310.00 30.07
311.00 31.22
312.00 29.66
313.00 27.09
314.00 24.95
315.00 23.88
316.00 24.42
317.00 27.33
318.00 31.53
319.00 26.70
320.00 22.34
321.00 20.17
322.00 19.19
323.00 18.69
324.00 18.41
325.00 18.65
326.00 19.81
327.00 21.86
328.00 23.56
329.00 23.38
330.00 22.59
331.00 22.02
332.00 21.18
333.00 19.95
334.00 18.97
335.00 18.81
336.00 19.92
337.00 23.06
338.00 30.26
339.00 29.11
340.00 22.76
341.00 20.26
342.00 20.01
343.00 21.86
344.00 27.10
345.00 37.28
346.00 25.63
347.00 21.80
348.00 21.56
349.00 25.07
350.00 38.73
351.00 25.32
352.00 20.03
353.00 18.29
354.00 18.57
355.00 20.39
356.00 23.05
357.00 25.58
358.00 25.87
359.00 18.46
