NAME ATR4518R7_1750_X_CO_M45_05T_yL
FREQUENCY 1750
GAIN 14.73 dBd
TILT	ELECTRICAL
COMMENT DATE 05.08.2013 -45 degrees polarized system Lever position 05T deg
HORIZONTAL 360
0.00 0.00
1.00 0.00
2.00 0.00
3.00 0.02
4.00 0.06
5.00 0.09
6.00 0.14
7.00 0.18
8.00 0.22
9.00 0.28
10.00 0.34
11.00 0.40
12.00 0.46
13.00 0.53
14.00 0.60
15.00 0.68
16.00 0.76
17.00 0.85
18.00 0.94
19.00 1.04
20.00 1.14
21.00 1.24
22.00 1.35
23.00 1.47
24.00 1.58
25.00 1.71
26.00 1.84
27.00 1.97
28.00 2.12
29.00 2.25
30.00 2.41
31.00 2.55
32.00 2.71
33.00 2.87
34.00 3.03
35.00 3.21
36.00 3.38
37.00 3.55
38.00 3.73
39.00 3.93
40.00 4.11
41.00 4.30
42.00 4.50
43.00 4.70
44.00 4.91
45.00 5.12
46.00 5.32
47.00 5.54
48.00 5.75
49.00 5.97
50.00 6.20
51.00 6.43
52.00 6.66
53.00 6.89
54.00 7.13
55.00 7.37
56.00 7.62
57.00 7.87
58.00 8.13
59.00 8.40
60.00 8.66
61.00 8.94
62.00 9.22
63.00 9.51
64.00 9.82
65.00 10.15
66.00 10.48
67.00 10.82
68.00 11.19
69.00 11.55
70.00 11.93
71.00 12.30
72.00 12.70
73.00 13.10
74.00 13.52
75.00 13.93
76.00 14.36
77.00 14.79
78.00 15.23
79.00 15.67
80.00 16.10
81.00 16.53
82.00 16.96
83.00 17.39
84.00 17.81
85.00 18.22
86.00 18.62
87.00 18.99
88.00 19.36
89.00 19.71
90.00 20.05
91.00 20.37
92.00 20.68
93.00 20.99
94.00 21.29
95.00 21.57
96.00 21.87
97.00 22.15
98.00 22.45
99.00 22.74
100.00 23.05
101.00 23.35
102.00 23.67
103.00 23.97
104.00 24.29
105.00 24.60
106.00 24.91
107.00 25.20
108.00 25.49
109.00 25.74
110.00 25.97
111.00 26.18
112.00 26.37
113.00 26.52
114.00 26.66
115.00 26.77
116.00 26.88
117.00 26.98
118.00 27.07
119.00 27.17
120.00 27.27
121.00 27.37
122.00 27.48
123.00 27.59
124.00 27.69
125.00 27.79
126.00 27.86
127.00 27.91
128.00 27.92
129.00 27.90
130.00 27.84
131.00 27.75
132.00 27.64
133.00 27.51
134.00 27.37
135.00 27.23
136.00 27.11
137.00 27.02
138.00 26.94
139.00 26.92
140.00 26.93
141.00 27.00
142.00 27.11
143.00 27.26
144.00 27.48
145.00 27.74
146.00 28.03
147.00 28.35
148.00 28.68
149.00 29.02
150.00 29.31
151.00 29.56
152.00 29.71
153.00 29.79
154.00 29.76
155.00 29.66
156.00 29.48
157.00 29.27
158.00 29.05
159.00 28.85
160.00 28.68
161.00 28.56
162.00 28.51
163.00 28.42
164.00 28.32
165.00 28.30
166.00 28.36
167.00 28.52
168.00 28.76
169.00 29.09
170.00 29.50
171.00 29.95
172.00 30.40
173.00 30.77
174.00 30.95
175.00 30.85
176.00 30.73
177.00 30.57
178.00 30.22
179.00 29.77
180.00 29.33
181.00 28.94
182.00 28.62
183.00 28.38
184.00 28.25
185.00 28.21
186.00 28.24
187.00 28.39
188.00 28.41
189.00 28.29
190.00 28.29
191.00 28.40
192.00 28.63
193.00 29.00
194.00 29.54
195.00 30.25
196.00 31.17
197.00 32.37
198.00 33.89
199.00 35.79
200.00 37.98
201.00 39.60
202.00 39.16
203.00 37.10
204.00 34.87
205.00 33.02
206.00 31.54
207.00 30.37
208.00 29.45
209.00 28.75
210.00 28.21
211.00 27.74
212.00 27.40
213.00 27.21
214.00 27.13
215.00 27.17
216.00 27.36
217.00 27.66
218.00 28.12
219.00 28.75
220.00 29.57
221.00 30.62
222.00 31.98
223.00 33.74
224.00 36.09
225.00 39.19
226.00 42.32
227.00 41.47
228.00 37.79
229.00 34.61
230.00 32.15
231.00 30.20
232.00 28.63
233.00 27.32
234.00 26.24
235.00 25.32
236.00 24.54
237.00 23.89
238.00 23.34
239.00 22.88
240.00 22.51
241.00 22.21
242.00 21.98
243.00 21.81
244.00 21.70
245.00 21.63
246.00 21.62
247.00 21.63
248.00 21.67
249.00 21.73
250.00 21.79
251.00 21.84
252.00 21.87
253.00 21.86
254.00 21.80
255.00 21.69
256.00 21.51
257.00 21.28
258.00 20.99
259.00 20.65
260.00 20.30
261.00 19.92
262.00 19.52
263.00 19.12
264.00 18.73
265.00 18.34
266.00 17.97
267.00 17.61
268.00 17.26
269.00 16.94
270.00 16.61
271.00 16.30
272.00 15.99
273.00 15.68
274.00 15.39
275.00 15.09
276.00 14.79
277.00 14.48
278.00 14.17
279.00 13.86
280.00 13.54
281.00 13.21
282.00 12.87
283.00 12.53
284.00 12.19
285.00 11.85
286.00 11.50
287.00 11.15
288.00 10.81
289.00 10.47
290.00 10.15
291.00 9.82
292.00 9.50
293.00 9.18
294.00 8.88
295.00 8.58
296.00 8.29
297.00 8.02
298.00 7.75
299.00 7.49
300.00 7.24
301.00 7.00
302.00 6.76
303.00 6.53
304.00 6.31
305.00 6.09
306.00 5.88
307.00 5.70
308.00 5.52
309.00 5.35
310.00 5.18
311.00 5.01
312.00 4.85
313.00 4.69
314.00 4.54
315.00 4.39
316.00 4.24
317.00 4.10
318.00 3.96
319.00 3.82
320.00 3.69
321.00 3.56
322.00 3.44
323.00 3.31
324.00 3.18
325.00 3.06
326.00 2.93
327.00 2.81
328.00 2.69
329.00 2.57
330.00 2.45
331.00 2.32
332.00 2.20
333.00 2.06
334.00 1.94
335.00 1.81
336.00 1.69
337.00 1.57
338.00 1.45
339.00 1.33
340.00 1.20
341.00 1.09
342.00 0.98
343.00 0.88
344.00 0.78
345.00 0.69
346.00 0.59
347.00 0.52
348.00 0.44
349.00 0.37
350.00 0.31
351.00 0.26
352.00 0.21
353.00 0.16
354.00 0.12
355.00 0.09
356.00 0.07
357.00 0.04
358.00 0.02
359.00 0.01
VERTICAL 360
0.00 9.20
1.00 5.69
2.00 3.16
3.00 1.43
4.00 0.39
5.00 0.00
6.00 0.23
7.00 1.12
8.00 2.78
9.00 5.45
10.00 9.78
11.00 17.97
12.00 21.81
13.00 14.17
14.00 11.67
15.00 11.43
16.00 12.87
17.00 16.22
18.00 23.12
19.00 29.51
20.00 20.23
21.00 16.67
22.00 15.47
23.00 15.92
24.00 18.05
25.00 22.25
26.00 25.87
27.00 22.26
28.00 19.38
29.00 18.40
30.00 18.89
31.00 20.87
32.00 24.95
33.00 32.41
34.00 27.65
35.00 21.98
36.00 18.99
37.00 17.46
38.00 16.97
39.00 17.37
40.00 18.68
41.00 20.96
42.00 24.26
43.00 27.70
44.00 28.06
45.00 26.02
46.00 24.12
47.00 22.65
48.00 21.48
49.00 20.56
50.00 19.91
51.00 19.53
52.00 19.41
53.00 19.50
54.00 19.70
55.00 19.93
56.00 20.16
57.00 20.55
58.00 21.32
59.00 22.66
60.00 24.69
61.00 27.34
62.00 30.07
63.00 31.60
64.00 31.64
65.00 31.32
66.00 31.15
67.00 30.97
68.00 30.65
69.00 30.32
70.00 30.13
71.00 30.11
72.00 30.17
73.00 30.26
74.00 30.31
75.00 30.38
76.00 30.54
77.00 30.87
78.00 31.39
79.00 32.17
80.00 33.26
81.00 34.72
82.00 36.52
83.00 38.71
84.00 41.65
85.00 46.69
86.00 55.69
87.00 47.45
88.00 43.62
89.00 43.72
90.00 44.95
91.00 40.57
92.00 36.40
93.00 34.63
94.00 34.99
95.00 37.31
96.00 40.32
97.00 39.77
98.00 37.32
99.00 35.38
100.00 34.10
101.00 33.72
102.00 34.48
103.00 36.32
104.00 38.35
105.00 39.17
106.00 38.92
107.00 38.47
108.00 38.22
109.00 38.61
110.00 39.92
111.00 41.90
112.00 43.87
113.00 45.74
114.00 47.74
115.00 48.31
116.00 46.89
117.00 45.24
118.00 43.82
119.00 42.74
120.00 42.18
121.00 42.24
122.00 42.96
123.00 44.16
124.00 44.68
125.00 44.25
126.00 45.16
127.00 50.89
128.00 53.33
129.00 43.08
130.00 39.46
131.00 38.32
132.00 38.14
133.00 37.74
134.00 37.27
135.00 37.56
136.00 38.96
137.00 40.99
138.00 42.84
139.00 44.90
140.00 48.13
141.00 49.24
142.00 46.11
143.00 43.71
144.00 42.28
145.00 41.17
146.00 40.16
147.00 39.54
148.00 39.89
149.00 41.86
150.00 45.96
151.00 46.97
152.00 43.12
153.00 40.74
154.00 38.81
155.00 36.47
156.00 34.39
157.00 33.07
158.00 32.32
159.00 31.75
160.00 31.25
161.00 31.15
162.00 31.80
163.00 33.35
164.00 35.55
165.00 37.56
166.00 38.74
167.00 39.69
168.00 40.68
169.00 40.29
170.00 37.61
171.00 34.69
172.00 32.29
173.00 30.50
174.00 29.31
175.00 28.76
176.00 28.32
177.00 28.55
178.00 29.45
179.00 30.97
180.00 33.04
181.00 35.35
182.00 36.97
183.00 36.63
184.00 35.21
185.00 34.28
186.00 34.43
187.00 35.19
188.00 34.79
189.00 32.87
190.00 31.24
191.00 30.67
192.00 31.23
193.00 32.80
194.00 34.89
195.00 35.81
196.00 34.31
197.00 32.28
198.00 31.02
199.00 30.88
200.00 32.06
201.00 34.79
202.00 38.13
203.00 37.21
204.00 34.47
205.00 33.19
206.00 33.47
207.00 35.21
208.00 38.39
209.00 42.32
210.00 43.01
211.00 39.75
212.00 35.98
213.00 32.64
214.00 30.04
215.00 28.18
216.00 26.99
217.00 26.31
218.00 26.02
219.00 26.04
220.00 26.34
221.00 26.94
222.00 27.86
223.00 29.17
224.00 31.05
225.00 33.81
226.00 37.92
227.00 42.71
228.00 42.54
229.00 40.56
230.00 40.18
231.00 40.89
232.00 41.59
233.00 41.65
234.00 41.49
235.00 41.63
236.00 42.39
237.00 44.04
238.00 46.91
239.00 50.87
240.00 51.90
241.00 49.20
242.00 47.85
243.00 48.48
244.00 49.22
245.00 47.02
246.00 44.80
247.00 44.23
248.00 44.56
249.00 43.96
250.00 42.46
251.00 41.55
252.00 41.80
253.00 43.40
254.00 46.98
255.00 55.18
256.00 57.73
257.00 49.77
258.00 46.86
259.00 44.99
260.00 42.91
261.00 40.71
262.00 38.77
263.00 37.37
264.00 36.61
265.00 36.29
266.00 35.91
267.00 35.19
268.00 34.47
269.00 34.18
270.00 34.41
271.00 34.88
272.00 35.08
273.00 34.60
274.00 33.44
275.00 32.04
276.00 30.82
277.00 30.02
278.00 29.66
279.00 29.68
280.00 29.98
281.00 30.48
282.00 31.09
283.00 31.72
284.00 32.31
285.00 32.91
286.00 33.60
287.00 34.18
288.00 33.99
289.00 32.72
290.00 31.01
291.00 29.54
292.00 28.42
293.00 27.51
294.00 26.62
295.00 25.63
296.00 24.65
297.00 23.85
298.00 23.38
299.00 23.31
300.00 23.70
301.00 24.62
302.00 26.14
303.00 28.09
304.00 29.04
305.00 27.29
306.00 24.54
307.00 22.21
308.00 20.44
309.00 19.15
310.00 18.33
311.00 18.01
312.00 18.26
313.00 19.17
314.00 20.72
315.00 22.68
316.00 24.07
317.00 23.59
318.00 21.76
319.00 19.86
320.00 18.45
321.00 17.69
322.00 17.64
323.00 18.37
324.00 19.90
325.00 22.14
326.00 24.39
327.00 24.81
328.00 23.52
329.00 22.42
330.00 22.30
331.00 23.45
332.00 26.39
333.00 32.78
334.00 36.83
335.00 28.60
336.00 25.02
337.00 23.68
338.00 23.80
339.00 24.97
340.00 26.14
341.00 25.53
342.00 23.80
343.00 22.61
344.00 22.47
345.00 23.27
346.00 23.72
347.00 21.91
348.00 19.22
349.00 17.30
350.00 16.53
351.00 17.00
352.00 18.93
353.00 23.09
354.00 33.00
355.00 33.91
356.00 27.10
357.00 25.00
358.00 20.08
359.00 13.98
