NAME ATR4518R7_2350_X_CO_P45_05T_yyR
FREQUENCY 2350
GAIN 15.37 dBd
TILT	ELECTRICAL
COMMENT DATE 05.08.2013 +45 degrees polarized system Lever position 05T deg
HORIZONTAL 360
0.00 0.00
1.00 0.01
2.00 0.02
3.00 0.04
4.00 0.07
5.00 0.10
6.00 0.13
7.00 0.17
8.00 0.22
9.00 0.27
10.00 0.32
11.00 0.38
12.00 0.44
13.00 0.51
14.00 0.58
15.00 0.65
16.00 0.73
17.00 0.82
18.00 0.91
19.00 1.00
20.00 1.10
21.00 1.20
22.00 1.31
23.00 1.43
24.00 1.55
25.00 1.68
26.00 1.81
27.00 1.95
28.00 2.09
29.00 2.25
30.00 2.41
31.00 2.57
32.00 2.75
33.00 2.93
34.00 3.12
35.00 3.32
36.00 3.53
37.00 3.75
38.00 3.97
39.00 4.21
40.00 4.45
41.00 4.71
42.00 4.97
43.00 5.24
44.00 5.52
45.00 5.81
46.00 6.11
47.00 6.41
48.00 6.73
49.00 7.05
50.00 7.39
51.00 7.72
52.00 8.07
53.00 8.43
54.00 8.79
55.00 9.16
56.00 9.54
57.00 9.93
58.00 10.32
59.00 10.72
60.00 11.14
61.00 11.56
62.00 11.99
63.00 12.44
64.00 12.89
65.00 13.36
66.00 13.85
67.00 14.35
68.00 14.86
69.00 15.39
70.00 15.95
71.00 16.52
72.00 17.12
73.00 17.73
74.00 18.38
75.00 19.05
76.00 19.74
77.00 20.47
78.00 21.23
79.00 22.02
80.00 22.84
81.00 23.70
82.00 24.59
83.00 25.52
84.00 26.47
85.00 27.44
86.00 28.42
87.00 29.36
88.00 30.23
89.00 30.97
90.00 31.53
91.00 31.86
92.00 31.95
93.00 31.83
94.00 31.56
95.00 31.19
96.00 30.78
97.00 30.37
98.00 29.99
99.00 29.65
100.00 29.35
101.00 29.12
102.00 28.94
103.00 28.82
104.00 28.77
105.00 28.78
106.00 28.85
107.00 29.00
108.00 29.21
109.00 29.49
110.00 29.85
111.00 30.28
112.00 30.79
113.00 31.39
114.00 32.08
115.00 32.87
116.00 33.76
117.00 34.75
118.00 35.86
119.00 37.06
120.00 38.32
121.00 39.56
122.00 40.66
123.00 41.40
124.00 41.67
125.00 41.47
126.00 40.97
127.00 40.35
128.00 39.75
129.00 39.22
130.00 38.79
131.00 38.49
132.00 38.30
133.00 38.22
134.00 38.25
135.00 38.40
136.00 38.65
137.00 39.01
138.00 39.48
139.00 40.07
140.00 40.77
141.00 41.60
142.00 42.57
143.00 43.69
144.00 44.98
145.00 46.47
146.00 48.19
147.00 50.17
148.00 52.46
149.00 54.98
150.00 57.34
151.00 58.36
152.00 57.41
153.00 55.52
154.00 53.54
155.00 51.70
156.00 49.98
157.00 48.37
158.00 46.84
159.00 45.41
160.00 44.07
161.00 42.85
162.00 41.73
163.00 40.74
164.00 39.86
165.00 39.10
166.00 38.46
167.00 37.94
168.00 37.55
169.00 37.28
170.00 37.15
171.00 37.15
172.00 37.30
173.00 37.62
174.00 38.12
175.00 38.82
176.00 39.77
177.00 41.03
178.00 42.63
179.00 44.63
180.00 46.80
181.00 48.06
182.00 47.01
183.00 44.66
184.00 42.36
185.00 40.45
186.00 38.89
187.00 37.65
188.00 36.67
189.00 35.90
190.00 35.32
191.00 34.89
192.00 34.60
193.00 34.44
194.00 34.38
195.00 34.40
196.00 34.49
197.00 34.60
198.00 34.70
199.00 34.76
200.00 34.73
201.00 34.61
202.00 34.39
203.00 34.08
204.00 33.72
205.00 33.35
206.00 33.00
207.00 32.69
208.00 32.45
209.00 32.28
210.00 32.21
211.00 32.23
212.00 32.35
213.00 32.57
214.00 32.88
215.00 33.27
216.00 33.70
217.00 34.15
218.00 34.54
219.00 34.80
220.00 34.86
221.00 34.69
222.00 34.30
223.00 33.76
224.00 33.15
225.00 32.54
226.00 31.96
227.00 31.46
228.00 31.03
229.00 30.70
230.00 30.46
231.00 30.31
232.00 30.24
233.00 30.25
234.00 30.33
235.00 30.47
236.00 30.64
237.00 30.82
238.00 30.98
239.00 31.09
240.00 31.11
241.00 31.03
242.00 30.82
243.00 30.51
244.00 30.11
245.00 29.65
246.00 29.17
247.00 28.67
248.00 28.19
249.00 27.73
250.00 27.30
251.00 26.91
252.00 26.56
253.00 26.25
254.00 25.97
255.00 25.74
256.00 25.54
257.00 25.37
258.00 25.24
259.00 25.14
260.00 25.07
261.00 25.02
262.00 25.00
263.00 25.00
264.00 25.02
265.00 25.06
266.00 25.10
267.00 25.14
268.00 25.17
269.00 25.19
270.00 25.19
271.00 25.16
272.00 25.08
273.00 24.95
274.00 24.77
275.00 24.54
276.00 24.25
277.00 23.92
278.00 23.55
279.00 23.15
280.00 22.72
281.00 22.28
282.00 21.82
283.00 21.36
284.00 20.90
285.00 20.43
286.00 19.97
287.00 19.51
288.00 19.05
289.00 18.60
290.00 18.15
291.00 17.70
292.00 17.26
293.00 16.81
294.00 16.37
295.00 15.93
296.00 15.49
297.00 15.06
298.00 14.62
299.00 14.18
300.00 13.74
301.00 13.31
302.00 12.88
303.00 12.45
304.00 12.02
305.00 11.60
306.00 11.19
307.00 10.78
308.00 10.38
309.00 9.99
310.00 9.60
311.00 9.22
312.00 8.86
313.00 8.50
314.00 8.15
315.00 7.81
316.00 7.48
317.00 7.15
318.00 6.84
319.00 6.53
320.00 6.24
321.00 5.94
322.00 5.66
323.00 5.38
324.00 5.11
325.00 4.84
326.00 4.58
327.00 4.33
328.00 4.08
329.00 3.84
330.00 3.60
331.00 3.36
332.00 3.14
333.00 2.91
334.00 2.70
335.00 2.49
336.00 2.29
337.00 2.09
338.00 1.90
339.00 1.72
340.00 1.55
341.00 1.39
342.00 1.23
343.00 1.09
344.00 0.95
345.00 0.82
346.00 0.71
347.00 0.60
348.00 0.50
349.00 0.41
350.00 0.33
351.00 0.26
352.00 0.20
353.00 0.14
354.00 0.10
355.00 0.06
356.00 0.04
357.00 0.02
358.00 0.00
359.00 0.00
VERTICAL 360
0.00 13.78
1.00 8.30
2.00 4.42
3.00 1.86
4.00 0.41
5.00 0.00
6.00 0.62
7.00 2.42
8.00 5.88
9.00 12.77
10.00 26.53
11.00 14.59
12.00 11.25
13.00 11.68
14.00 15.20
15.00 21.26
16.00 18.57
17.00 14.63
18.00 13.85
19.00 15.46
20.00 19.15
21.00 21.73
22.00 20.24
23.00 19.62
24.00 21.43
25.00 26.53
26.00 35.24
27.00 26.87
28.00 21.19
29.00 18.54
30.00 17.73
31.00 18.42
32.00 20.33
33.00 23.07
34.00 26.28
35.00 28.64
36.00 28.07
37.00 26.31
38.00 24.58
39.00 23.16
40.00 22.81
41.00 24.29
42.00 28.83
43.00 42.24
44.00 34.53
45.00 28.53
46.00 26.45
47.00 26.03
48.00 26.81
49.00 28.22
50.00 29.64
51.00 30.93
52.00 30.59
53.00 27.95
54.00 25.50
55.00 24.29
56.00 24.31
57.00 25.47
58.00 27.63
59.00 30.77
60.00 35.13
61.00 40.75
62.00 42.74
63.00 41.25
64.00 42.82
65.00 46.61
66.00 43.07
67.00 38.96
68.00 36.83
69.00 35.26
70.00 33.68
71.00 32.31
72.00 31.52
73.00 31.25
74.00 31.09
75.00 30.69
76.00 30.03
77.00 29.28
78.00 28.77
79.00 28.79
80.00 29.38
81.00 30.52
82.00 31.90
83.00 32.25
84.00 30.79
85.00 28.49
86.00 26.62
87.00 25.96
88.00 26.62
89.00 28.21
90.00 29.93
91.00 30.41
92.00 29.65
93.00 29.88
94.00 31.81
95.00 32.83
96.00 31.81
97.00 31.47
98.00 31.92
99.00 33.53
100.00 38.52
101.00 43.64
102.00 38.00
103.00 36.09
104.00 37.02
105.00 40.81
106.00 49.11
107.00 45.92
108.00 42.79
109.00 44.19
110.00 49.05
111.00 52.97
112.00 44.11
113.00 40.21
114.00 39.28
115.00 39.66
116.00 40.32
117.00 40.87
118.00 41.74
119.00 43.17
120.00 43.04
121.00 41.17
122.00 39.08
123.00 37.65
124.00 38.56
125.00 42.57
126.00 41.35
127.00 37.39
128.00 36.83
129.00 37.97
130.00 38.78
131.00 40.22
132.00 42.46
133.00 40.87
134.00 38.54
135.00 37.46
136.00 36.57
137.00 36.08
138.00 36.41
139.00 37.20
140.00 38.20
141.00 39.86
142.00 42.65
143.00 46.67
144.00 50.01
145.00 49.11
146.00 49.20
147.00 60.19
148.00 53.58
149.00 47.22
150.00 52.22
151.00 48.81
152.00 39.94
153.00 37.59
154.00 38.65
155.00 42.63
156.00 46.64
157.00 44.19
158.00 42.65
159.00 41.42
160.00 38.58
161.00 37.38
162.00 37.64
163.00 36.51
164.00 35.17
165.00 35.63
166.00 37.76
167.00 42.19
168.00 49.79
169.00 42.80
170.00 39.50
171.00 39.81
172.00 39.85
173.00 39.60
174.00 42.15
175.00 45.72
176.00 41.67
177.00 38.99
178.00 39.35
179.00 41.10
180.00 40.45
181.00 37.88
182.00 36.77
183.00 38.26
184.00 42.95
185.00 50.66
186.00 55.44
187.00 47.65
188.00 44.68
189.00 43.11
190.00 38.26
191.00 36.11
192.00 38.13
193.00 42.08
194.00 40.46
195.00 40.14
196.00 40.92
197.00 40.20
198.00 42.35
199.00 52.11
200.00 61.58
201.00 50.57
202.00 43.61
203.00 42.03
204.00 46.42
205.00 57.00
206.00 52.96
207.00 57.66
208.00 54.49
209.00 53.78
210.00 49.13
211.00 43.26
212.00 41.77
213.00 42.89
214.00 44.59
215.00 42.86
216.00 39.38
217.00 37.52
218.00 37.10
219.00 37.10
220.00 36.79
221.00 36.09
222.00 35.66
223.00 36.12
224.00 37.03
225.00 37.22
226.00 36.72
227.00 36.36
228.00 36.33
229.00 36.67
230.00 37.85
231.00 40.46
232.00 43.97
233.00 45.01
234.00 42.61
235.00 40.56
236.00 41.15
237.00 45.17
238.00 45.48
239.00 40.65
240.00 37.86
241.00 35.74
242.00 33.70
243.00 32.13
244.00 31.52
245.00 31.93
246.00 32.74
247.00 32.97
248.00 32.39
249.00 31.62
250.00 31.23
251.00 31.33
252.00 31.31
253.00 30.57
254.00 29.29
255.00 28.08
256.00 27.53
257.00 27.83
258.00 28.62
259.00 29.10
260.00 28.81
261.00 28.23
262.00 28.22
263.00 29.16
264.00 30.59
265.00 31.35
266.00 30.46
267.00 28.58
268.00 27.46
269.00 28.11
270.00 30.77
271.00 35.04
272.00 39.06
273.00 41.40
274.00 44.00
275.00 46.80
276.00 39.78
277.00 34.33
278.00 31.23
279.00 28.62
280.00 26.28
281.00 24.62
282.00 23.66
283.00 23.03
284.00 22.36
285.00 21.55
286.00 20.71
287.00 19.89
288.00 19.02
289.00 18.01
290.00 16.97
291.00 16.06
292.00 15.36
293.00 14.88
294.00 14.61
295.00 14.59
296.00 14.86
297.00 15.50
298.00 16.56
299.00 18.12
300.00 20.39
301.00 23.75
302.00 29.28
303.00 36.68
304.00 29.99
305.00 24.31
306.00 21.44
307.00 20.40
308.00 20.97
309.00 23.05
310.00 25.81
311.00 26.85
312.00 25.69
313.00 24.45
314.00 24.25
315.00 25.86
316.00 29.39
317.00 29.17
318.00 25.00
319.00 22.56
320.00 21.75
321.00 22.28
322.00 24.45
323.00 28.70
324.00 29.13
325.00 24.25
326.00 21.60
327.00 21.10
328.00 22.46
329.00 25.58
330.00 26.10
331.00 21.40
332.00 18.22
333.00 17.17
334.00 17.63
335.00 18.85
336.00 19.96
337.00 20.70
338.00 21.32
339.00 22.19
340.00 24.26
341.00 28.80
342.00 28.89
343.00 23.76
344.00 22.13
345.00 23.94
346.00 31.15
347.00 36.00
348.00 26.11
349.00 23.04
350.00 22.49
351.00 23.25
352.00 24.05
353.00 24.56
354.00 26.30
355.00 31.14
356.00 32.98
357.00 27.67
358.00 25.14
359.00 20.60
