NAME ATR4518R7_0832_X_CO_M45_00T
FREQUENCY 0832
GAIN 14.21 dBd
TILT	ELECTRICAL
COMMENT DATE 05.08.2013 -45 degrees polarized system Lever position 00T deg
HORIZONTAL 360
0.00 0.00
1.00 0.01
2.00 0.03
3.00 0.05
4.00 0.07
5.00 0.10
6.00 0.14
7.00 0.19
8.00 0.24
9.00 0.29
10.00 0.35
11.00 0.42
12.00 0.49
13.00 0.57
14.00 0.65
15.00 0.75
16.00 0.84
17.00 0.94
18.00 1.05
19.00 1.16
20.00 1.29
21.00 1.41
22.00 1.54
23.00 1.68
24.00 1.82
25.00 1.97
26.00 2.12
27.00 2.28
28.00 2.45
29.00 2.62
30.00 2.80
31.00 2.98
32.00 3.16
33.00 3.36
34.00 3.56
35.00 3.76
36.00 3.97
37.00 4.18
38.00 4.40
39.00 4.63
40.00 4.86
41.00 5.10
42.00 5.34
43.00 5.59
44.00 5.83
45.00 6.09
46.00 6.35
47.00 6.62
48.00 6.89
49.00 7.17
50.00 7.45
51.00 7.74
52.00 8.03
53.00 8.32
54.00 8.63
55.00 8.93
56.00 9.24
57.00 9.56
58.00 9.88
59.00 10.20
60.00 10.53
61.00 10.87
62.00 11.21
63.00 11.55
64.00 11.91
65.00 12.26
66.00 12.62
67.00 12.99
68.00 13.36
69.00 13.74
70.00 14.12
71.00 14.51
72.00 14.90
73.00 15.30
74.00 15.71
75.00 16.12
76.00 16.54
77.00 16.96
78.00 17.39
79.00 17.82
80.00 18.26
81.00 18.71
82.00 19.15
83.00 19.60
84.00 20.06
85.00 20.51
86.00 20.97
87.00 21.42
88.00 21.87
89.00 22.32
90.00 22.75
91.00 23.18
92.00 23.60
93.00 24.00
94.00 24.38
95.00 24.74
96.00 25.08
97.00 25.40
98.00 25.70
99.00 25.96
100.00 26.21
101.00 26.43
102.00 26.63
103.00 26.81
104.00 26.97
105.00 27.13
106.00 27.27
107.00 27.40
108.00 27.53
109.00 27.66
110.00 27.80
111.00 27.93
112.00 28.08
113.00 28.24
114.00 28.40
115.00 28.59
116.00 28.79
117.00 29.00
118.00 29.24
119.00 29.49
120.00 29.77
121.00 30.07
122.00 30.40
123.00 30.75
124.00 31.13
125.00 31.54
126.00 31.99
127.00 32.47
128.00 32.98
129.00 33.53
130.00 34.12
131.00 34.76
132.00 35.44
133.00 36.16
134.00 36.92
135.00 37.72
136.00 38.54
137.00 39.35
138.00 40.12
139.00 40.80
140.00 41.33
141.00 41.64
142.00 41.68
143.00 41.48
144.00 41.08
145.00 40.55
146.00 39.95
147.00 39.32
148.00 38.71
149.00 38.12
150.00 37.56
151.00 37.04
152.00 36.57
153.00 36.13
154.00 35.73
155.00 35.37
156.00 35.04
157.00 34.74
158.00 34.47
159.00 34.23
160.00 34.01
161.00 33.81
162.00 33.64
163.00 33.48
164.00 33.34
165.00 33.22
166.00 33.11
167.00 33.01
168.00 32.93
169.00 32.85
170.00 32.79
171.00 32.74
172.00 32.69
173.00 32.65
174.00 32.62
175.00 32.60
176.00 32.57
177.00 32.56
178.00 32.55
179.00 32.55
180.00 32.55
181.00 32.56
182.00 32.57
183.00 32.59
184.00 32.60
185.00 32.64
186.00 32.67
187.00 32.71
188.00 32.76
189.00 32.82
190.00 32.88
191.00 32.95
192.00 33.04
193.00 33.13
194.00 33.23
195.00 33.34
196.00 33.46
197.00 33.60
198.00 33.74
199.00 33.89
200.00 34.06
201.00 34.24
202.00 34.43
203.00 34.63
204.00 34.85
205.00 35.07
206.00 35.31
207.00 35.56
208.00 35.81
209.00 36.08
210.00 36.36
211.00 36.64
212.00 36.93
213.00 37.23
214.00 37.52
215.00 37.82
216.00 38.11
217.00 38.41
218.00 38.70
219.00 38.97
220.00 39.24
221.00 39.51
222.00 39.75
223.00 39.99
224.00 40.19
225.00 40.37
226.00 40.53
227.00 40.64
228.00 40.73
229.00 40.76
230.00 40.74
231.00 40.65
232.00 40.50
233.00 40.27
234.00 39.96
235.00 39.56
236.00 39.09
237.00 38.56
238.00 37.95
239.00 37.31
240.00 36.64
241.00 35.93
242.00 35.21
243.00 34.48
244.00 33.75
245.00 33.03
246.00 32.31
247.00 31.60
248.00 30.91
249.00 30.23
250.00 29.56
251.00 28.92
252.00 28.28
253.00 27.67
254.00 27.07
255.00 26.49
256.00 25.92
257.00 25.36
258.00 24.83
259.00 24.30
260.00 23.79
261.00 23.30
262.00 22.81
263.00 22.34
264.00 21.88
265.00 21.44
266.00 21.00
267.00 20.57
268.00 20.15
269.00 19.75
270.00 19.35
271.00 18.96
272.00 18.57
273.00 18.20
274.00 17.83
275.00 17.47
276.00 17.11
277.00 16.76
278.00 16.42
279.00 16.08
280.00 15.74
281.00 15.41
282.00 15.08
283.00 14.76
284.00 14.43
285.00 14.12
286.00 13.80
287.00 13.49
288.00 13.18
289.00 12.87
290.00 12.56
291.00 12.25
292.00 11.95
293.00 11.65
294.00 11.35
295.00 11.05
296.00 10.75
297.00 10.46
298.00 10.17
299.00 9.88
300.00 9.58
301.00 9.30
302.00 9.01
303.00 8.73
304.00 8.45
305.00 8.17
306.00 7.90
307.00 7.63
308.00 7.36
309.00 7.09
310.00 6.83
311.00 6.57
312.00 6.31
313.00 6.06
314.00 5.81
315.00 5.57
316.00 5.33
317.00 5.09
318.00 4.86
319.00 4.64
320.00 4.42
321.00 4.20
322.00 3.99
323.00 3.78
324.00 3.58
325.00 3.38
326.00 3.19
327.00 3.00
328.00 2.82
329.00 2.65
330.00 2.47
331.00 2.31
332.00 2.15
333.00 2.00
334.00 1.85
335.00 1.70
336.00 1.57
337.00 1.43
338.00 1.31
339.00 1.19
340.00 1.07
341.00 0.97
342.00 0.86
343.00 0.76
344.00 0.67
345.00 0.59
346.00 0.51
347.00 0.43
348.00 0.36
349.00 0.30
350.00 0.25
351.00 0.20
352.00 0.15
353.00 0.11
354.00 0.08
355.00 0.05
356.00 0.03
357.00 0.02
358.00 0.01
359.00 0.00
VERTICAL 360
0.00 0.00
1.00 0.16
2.00 0.64
3.00 1.46
4.00 2.66
5.00 4.27
6.00 6.40
7.00 9.18
8.00 12.87
9.00 17.93
10.00 24.98
11.00 27.82
12.00 25.09
13.00 24.73
14.00 27.00
15.00 33.74
16.00 37.22
17.00 27.32
18.00 23.17
19.00 21.08
20.00 20.24
21.00 20.42
22.00 21.62
23.00 24.12
24.00 28.64
25.00 35.20
26.00 31.33
27.00 27.19
28.00 25.56
29.00 25.70
30.00 27.72
31.00 33.09
32.00 38.67
33.00 27.80
34.00 22.33
35.00 18.84
36.00 16.35
37.00 14.52
38.00 13.19
39.00 12.27
40.00 11.70
41.00 11.47
42.00 11.51
43.00 11.81
44.00 12.32
45.00 13.02
46.00 13.90
47.00 14.98
48.00 16.30
49.00 17.92
50.00 19.95
51.00 22.46
52.00 25.55
53.00 29.27
54.00 33.47
55.00 37.53
56.00 40.12
57.00 40.45
58.00 39.46
59.00 38.29
60.00 37.44
61.00 37.04
62.00 37.15
63.00 37.56
64.00 37.30
65.00 35.43
66.00 32.96
67.00 30.96
68.00 29.71
69.00 29.20
70.00 29.28
71.00 29.75
72.00 30.30
73.00 30.48
74.00 29.96
75.00 28.88
76.00 27.65
77.00 26.66
78.00 26.12
79.00 26.09
80.00 26.55
81.00 27.32
82.00 28.06
83.00 28.37
84.00 28.20
85.00 27.85
86.00 27.57
87.00 27.47
88.00 27.62
89.00 28.07
90.00 28.84
91.00 29.90
92.00 31.11
93.00 32.27
94.00 33.11
95.00 33.48
96.00 33.45
97.00 33.33
98.00 33.45
99.00 34.03
100.00 35.12
101.00 36.62
102.00 38.27
103.00 39.90
104.00 41.51
105.00 42.97
106.00 43.64
107.00 43.26
108.00 42.55
109.00 42.08
110.00 41.90
111.00 41.92
112.00 42.20
113.00 42.95
114.00 44.38
115.00 46.51
116.00 48.67
117.00 49.29
118.00 48.33
119.00 46.99
120.00 45.29
121.00 43.00
122.00 40.45
123.00 38.10
124.00 36.12
125.00 34.54
126.00 33.35
127.00 32.48
128.00 31.88
129.00 31.50
130.00 31.29
131.00 31.23
132.00 31.33
133.00 31.66
134.00 32.24
135.00 33.11
136.00 34.24
137.00 35.55
138.00 36.83
139.00 37.87
140.00 38.57
141.00 39.06
142.00 39.70
143.00 40.82
144.00 42.65
145.00 45.09
146.00 47.00
147.00 46.25
148.00 43.63
149.00 40.88
150.00 38.62
151.00 37.02
152.00 36.12
153.00 35.86
154.00 36.13
155.00 36.81
156.00 37.75
157.00 38.92
158.00 40.49
159.00 42.93
160.00 47.31
161.00 51.95
162.00 45.41
163.00 40.69
164.00 38.15
165.00 37.04
166.00 37.04
167.00 38.00
168.00 39.88
169.00 42.91
170.00 47.93
171.00 54.69
172.00 47.90
173.00 42.81
174.00 39.93
175.00 38.16
176.00 36.95
177.00 35.89
178.00 34.76
179.00 33.59
180.00 32.55
181.00 31.91
182.00 31.62
183.00 31.67
184.00 32.00
185.00 32.57
186.00 33.38
187.00 34.51
188.00 35.90
189.00 37.21
190.00 37.79
191.00 37.41
192.00 36.74
193.00 36.22
194.00 35.85
195.00 35.48
196.00 35.02
197.00 34.51
198.00 34.09
199.00 33.88
200.00 33.95
201.00 34.33
202.00 35.04
203.00 36.06
204.00 37.36
205.00 38.90
206.00 40.70
207.00 42.92
208.00 45.96
209.00 50.09
210.00 52.38
211.00 49.30
212.00 46.21
213.00 44.04
214.00 42.43
215.00 41.08
216.00 39.87
217.00 38.87
218.00 38.26
219.00 38.17
220.00 38.46
221.00 38.62
222.00 38.28
223.00 37.84
224.00 38.03
225.00 39.27
226.00 41.73
227.00 45.11
228.00 47.97
229.00 49.24
230.00 49.45
231.00 48.53
232.00 48.11
233.00 49.71
234.00 49.62
235.00 44.20
236.00 40.36
237.00 38.58
238.00 38.42
239.00 39.49
240.00 41.07
241.00 42.22
242.00 43.26
243.00 45.34
244.00 46.98
245.00 44.22
246.00 41.20
247.00 39.75
248.00 39.56
249.00 40.01
250.00 40.22
251.00 39.62
252.00 38.70
253.00 38.11
254.00 38.13
255.00 38.65
256.00 39.24
257.00 39.49
258.00 39.59
259.00 40.03
260.00 41.03
261.00 42.61
262.00 45.22
263.00 50.12
264.00 48.80
265.00 42.31
266.00 38.85
267.00 37.42
268.00 37.41
269.00 38.25
270.00 39.20
271.00 40.07
272.00 41.30
273.00 41.45
274.00 38.25
275.00 34.76
276.00 32.42
277.00 31.12
278.00 30.55
279.00 30.42
280.00 30.48
281.00 30.55
282.00 30.52
283.00 30.35
284.00 30.15
285.00 30.06
286.00 30.20
287.00 30.60
288.00 31.24
289.00 32.07
290.00 32.96
291.00 33.66
292.00 34.13
293.00 34.71
294.00 35.87
295.00 38.04
296.00 41.10
297.00 40.75
298.00 35.95
299.00 31.65
300.00 28.35
301.00 25.76
302.00 23.69
303.00 21.96
304.00 20.48
305.00 19.21
306.00 18.13
307.00 17.26
308.00 16.59
309.00 16.14
310.00 15.90
311.00 15.87
312.00 16.02
313.00 16.32
314.00 16.76
315.00 17.35
316.00 18.14
317.00 19.20
318.00 20.62
319.00 22.48
320.00 24.85
321.00 27.64
322.00 30.54
323.00 33.14
324.00 35.74
325.00 39.37
326.00 43.20
327.00 40.67
328.00 37.24
329.00 35.40
330.00 34.50
331.00 33.89
332.00 33.24
333.00 32.64
334.00 32.22
335.00 31.74
336.00 30.64
337.00 28.89
338.00 27.21
339.00 26.19
340.00 26.15
341.00 27.30
342.00 29.64
343.00 31.03
344.00 28.33
345.00 25.32
346.00 23.72
347.00 23.73
348.00 26.04
349.00 33.77
350.00 26.47
351.00 18.13
352.00 13.04
353.00 9.38
354.00 6.59
355.00 4.43
356.00 2.77
357.00 1.53
358.00 0.68
359.00 0.17
