NAME ATR4518R7_1880_X_CO_P45_03T_yyR
FREQUENCY 1880
GAIN 14.88 dBd
TILT	ELECTRICAL
COMMENT DATE 05.08.2013 +45 degrees polarized system Lever position 03T deg
HORIZONTAL 360
0.00 0.08
1.00 0.06
2.00 0.04
3.00 0.02
4.00 0.01
5.00 0.00
6.00 0.00
7.00 0.00
8.00 0.01
9.00 0.03
10.00 0.05
11.00 0.08
12.00 0.12
13.00 0.16
14.00 0.21
15.00 0.27
16.00 0.34
17.00 0.41
18.00 0.50
19.00 0.59
20.00 0.70
21.00 0.81
22.00 0.93
23.00 1.07
24.00 1.21
25.00 1.36
26.00 1.53
27.00 1.70
28.00 1.89
29.00 2.08
30.00 2.28
31.00 2.50
32.00 2.72
33.00 2.95
34.00 3.19
35.00 3.43
36.00 3.69
37.00 3.94
38.00 4.21
39.00 4.48
40.00 4.76
41.00 5.04
42.00 5.32
43.00 5.60
44.00 5.90
45.00 6.19
46.00 6.48
47.00 6.77
48.00 7.07
49.00 7.36
50.00 7.65
51.00 7.95
52.00 8.25
53.00 8.55
54.00 8.85
55.00 9.15
56.00 9.45
57.00 9.75
58.00 10.06
59.00 10.36
60.00 10.68
61.00 10.99
62.00 11.30
63.00 11.62
64.00 11.95
65.00 12.27
66.00 12.60
67.00 12.93
68.00 13.27
69.00 13.60
70.00 13.94
71.00 14.29
72.00 14.63
73.00 14.98
74.00 15.33
75.00 15.69
76.00 16.05
77.00 16.41
78.00 16.78
79.00 17.15
80.00 17.53
81.00 17.91
82.00 18.29
83.00 18.68
84.00 19.08
85.00 19.48
86.00 19.89
87.00 20.30
88.00 20.72
89.00 21.14
90.00 21.57
91.00 22.00
92.00 22.43
93.00 22.86
94.00 23.30
95.00 23.73
96.00 24.15
97.00 24.58
98.00 24.99
99.00 25.40
100.00 25.81
101.00 26.20
102.00 26.58
103.00 26.95
104.00 27.31
105.00 27.66
106.00 28.00
107.00 28.33
108.00 28.65
109.00 28.96
110.00 29.26
111.00 29.55
112.00 29.84
113.00 30.12
114.00 30.39
115.00 30.65
116.00 30.91
117.00 31.17
118.00 31.43
119.00 31.69
120.00 31.96
121.00 32.24
122.00 32.54
123.00 32.87
124.00 33.22
125.00 33.62
126.00 34.06
127.00 34.56
128.00 35.12
129.00 35.76
130.00 36.50
131.00 37.33
132.00 38.30
133.00 39.42
134.00 40.72
135.00 42.26
136.00 44.11
137.00 46.37
138.00 49.18
139.00 52.59
140.00 55.43
141.00 54.60
142.00 51.88
143.00 49.56
144.00 47.87
145.00 46.69
146.00 45.90
147.00 45.43
148.00 45.24
149.00 45.31
150.00 45.61
151.00 46.11
152.00 46.77
153.00 47.45
154.00 47.91
155.00 47.83
156.00 47.04
157.00 45.74
158.00 44.24
159.00 42.75
160.00 41.40
161.00 40.19
162.00 39.14
163.00 38.24
164.00 37.48
165.00 36.84
166.00 36.32
167.00 35.92
168.00 35.63
169.00 35.44
170.00 35.35
171.00 35.37
172.00 35.48
173.00 35.69
174.00 36.00
175.00 36.40
176.00 36.88
177.00 37.42
178.00 38.00
179.00 38.55
180.00 38.99
181.00 39.24
182.00 39.20
183.00 38.88
184.00 38.33
185.00 37.64
186.00 36.88
187.00 36.14
188.00 35.45
189.00 34.83
190.00 34.29
191.00 33.83
192.00 33.47
193.00 33.18
194.00 32.97
195.00 32.84
196.00 32.79
197.00 32.81
198.00 32.89
199.00 33.02
200.00 33.20
201.00 33.42
202.00 33.64
203.00 33.84
204.00 34.01
205.00 34.11
206.00 34.10
207.00 33.99
208.00 33.75
209.00 33.42
210.00 33.01
211.00 32.55
212.00 32.07
213.00 31.58
214.00 31.12
215.00 30.68
216.00 30.28
217.00 29.93
218.00 29.62
219.00 29.35
220.00 29.13
221.00 28.96
222.00 28.83
223.00 28.75
224.00 28.70
225.00 28.70
226.00 28.73
227.00 28.80
228.00 28.89
229.00 29.02
230.00 29.17
231.00 29.35
232.00 29.54
233.00 29.74
234.00 29.96
235.00 30.18
236.00 30.40
237.00 30.62
238.00 30.83
239.00 31.04
240.00 31.24
241.00 31.42
242.00 31.60
243.00 31.76
244.00 31.92
245.00 32.07
246.00 32.20
247.00 32.34
248.00 32.47
249.00 32.58
250.00 32.69
251.00 32.79
252.00 32.87
253.00 32.94
254.00 32.98
255.00 32.99
256.00 32.97
257.00 32.91
258.00 32.81
259.00 32.66
260.00 32.46
261.00 32.21
262.00 31.92
263.00 31.58
264.00 31.19
265.00 30.77
266.00 30.32
267.00 29.83
268.00 29.32
269.00 28.79
270.00 28.24
271.00 27.68
272.00 27.11
273.00 26.52
274.00 25.94
275.00 25.35
276.00 24.76
277.00 24.17
278.00 23.59
279.00 23.01
280.00 22.43
281.00 21.87
282.00 21.31
283.00 20.76
284.00 20.22
285.00 19.69
286.00 19.17
287.00 18.66
288.00 18.16
289.00 17.67
290.00 17.19
291.00 16.72
292.00 16.26
293.00 15.81
294.00 15.36
295.00 14.93
296.00 14.50
297.00 14.08
298.00 13.66
299.00 13.26
300.00 12.85
301.00 12.46
302.00 12.07
303.00 11.69
304.00 11.31
305.00 10.94
306.00 10.57
307.00 10.21
308.00 9.85
309.00 9.50
310.00 9.15
311.00 8.81
312.00 8.47
313.00 8.14
314.00 7.81
315.00 7.49
316.00 7.17
317.00 6.86
318.00 6.56
319.00 6.26
320.00 5.97
321.00 5.69
322.00 5.41
323.00 5.13
324.00 4.87
325.00 4.61
326.00 4.36
327.00 4.12
328.00 3.88
329.00 3.65
330.00 3.43
331.00 3.22
332.00 3.02
333.00 2.82
334.00 2.63
335.00 2.45
336.00 2.27
337.00 2.11
338.00 1.95
339.00 1.80
340.00 1.65
341.00 1.52
342.00 1.39
343.00 1.27
344.00 1.15
345.00 1.04
346.00 0.94
347.00 0.85
348.00 0.76
349.00 0.67
350.00 0.59
351.00 0.52
352.00 0.45
353.00 0.39
354.00 0.33
355.00 0.28
356.00 0.23
357.00 0.19
358.00 0.15
359.00 0.11
VERTICAL 360
0.00 3.37
1.00 1.51
2.00 0.41
3.00 0.00
4.00 0.31
5.00 1.41
6.00 3.44
7.00 6.72
8.00 12.05
9.00 21.01
10.00 20.52
11.00 15.90
12.00 15.02
13.00 16.59
14.00 21.20
15.00 29.17
16.00 23.23
17.00 18.52
18.00 17.10
19.00 17.77
20.00 20.57
21.00 26.63
22.00 30.31
23.00 23.93
24.00 20.75
25.00 19.80
26.00 20.52
27.00 23.28
28.00 30.92
29.00 37.03
30.00 24.60
31.00 20.67
32.00 19.16
33.00 19.03
34.00 19.86
35.00 21.36
36.00 23.35
37.00 25.80
38.00 28.77
39.00 31.73
40.00 33.46
41.00 34.62
42.00 35.63
43.00 33.04
44.00 29.08
45.00 26.64
46.00 25.75
47.00 26.11
48.00 27.56
49.00 30.05
50.00 33.57
51.00 36.34
52.00 34.09
53.00 30.34
54.00 27.57
55.00 25.62
56.00 24.28
57.00 23.46
58.00 23.17
59.00 23.51
60.00 24.55
61.00 26.31
62.00 28.65
63.00 31.22
64.00 33.47
65.00 35.08
66.00 36.23
67.00 37.12
68.00 37.58
69.00 37.66
70.00 37.70
71.00 37.39
72.00 36.50
73.00 35.64
74.00 35.21
75.00 34.75
76.00 33.59
77.00 31.73
78.00 29.79
79.00 28.25
80.00 27.20
81.00 26.54
82.00 26.04
83.00 25.58
84.00 25.24
85.00 25.22
86.00 25.67
87.00 26.57
88.00 27.87
89.00 29.74
90.00 32.41
91.00 34.48
92.00 33.29
93.00 31.28
94.00 30.40
95.00 30.69
96.00 32.02
97.00 34.33
98.00 37.32
99.00 40.09
100.00 41.37
101.00 41.07
102.00 40.83
103.00 42.12
104.00 45.64
105.00 49.07
106.00 45.72
107.00 41.62
108.00 39.32
109.00 38.56
110.00 38.93
111.00 39.64
112.00 39.92
113.00 39.78
114.00 39.88
115.00 40.80
116.00 43.02
117.00 46.64
118.00 50.80
119.00 53.86
120.00 53.83
121.00 50.12
122.00 46.73
123.00 44.76
124.00 44.12
125.00 44.72
126.00 46.24
127.00 48.09
128.00 50.34
129.00 54.10
130.00 57.83
131.00 54.52
132.00 51.33
133.00 51.27
134.00 55.39
135.00 53.47
136.00 45.65
137.00 41.66
138.00 39.72
139.00 38.77
140.00 38.01
141.00 37.10
142.00 36.27
143.00 35.95
144.00 36.30
145.00 37.05
146.00 37.50
147.00 37.43
148.00 37.52
149.00 37.71
150.00 37.29
151.00 36.86
152.00 37.72
153.00 40.63
154.00 44.97
155.00 45.45
156.00 42.81
157.00 41.01
158.00 39.99
159.00 38.44
160.00 35.83
161.00 33.70
162.00 33.05
163.00 34.09
164.00 36.93
165.00 41.95
166.00 48.19
167.00 45.29
168.00 41.15
169.00 38.95
170.00 37.23
171.00 35.63
172.00 34.71
173.00 34.78
174.00 35.64
175.00 36.45
176.00 36.64
177.00 36.88
178.00 37.88
179.00 39.24
180.00 40.82
181.00 44.68
182.00 50.91
183.00 43.06
184.00 38.87
185.00 38.33
186.00 40.26
187.00 43.95
188.00 44.68
189.00 40.11
190.00 37.03
191.00 36.57
192.00 38.88
193.00 43.55
194.00 44.48
195.00 42.89
196.00 43.37
197.00 44.31
198.00 44.44
199.00 41.71
200.00 37.40
201.00 34.74
202.00 34.07
203.00 34.94
204.00 36.42
205.00 37.50
206.00 38.49
207.00 39.88
208.00 40.38
209.00 39.28
210.00 38.56
211.00 39.63
212.00 43.91
213.00 51.98
214.00 42.80
215.00 36.93
216.00 34.06
217.00 32.88
218.00 33.11
219.00 34.80
220.00 38.05
221.00 42.22
222.00 44.36
223.00 44.78
224.00 46.57
225.00 50.43
226.00 56.86
227.00 56.80
228.00 49.94
229.00 47.12
230.00 47.49
231.00 50.66
232.00 49.86
233.00 44.23
234.00 40.80
235.00 39.27
236.00 39.10
237.00 40.04
238.00 42.39
239.00 48.09
240.00 51.89
241.00 42.57
242.00 38.29
243.00 36.53
244.00 36.35
245.00 37.44
246.00 39.78
247.00 43.49
248.00 48.24
249.00 51.27
250.00 50.35
251.00 47.96
252.00 46.23
253.00 46.14
254.00 47.91
255.00 50.92
256.00 52.53
257.00 50.90
258.00 48.02
259.00 45.96
260.00 45.21
261.00 44.98
262.00 44.80
263.00 45.38
264.00 45.77
265.00 43.38
266.00 40.59
267.00 38.51
268.00 36.38
269.00 34.41
270.00 33.22
271.00 32.75
272.00 32.57
273.00 32.66
274.00 32.96
275.00 32.49
276.00 30.75
277.00 28.93
278.00 27.68
279.00 26.89
280.00 26.43
281.00 26.28
282.00 26.35
283.00 26.40
284.00 26.15
285.00 25.54
286.00 24.69
287.00 23.92
288.00 23.41
289.00 23.20
290.00 23.22
291.00 23.42
292.00 23.87
293.00 24.69
294.00 26.00
295.00 27.75
296.00 29.37
297.00 29.80
298.00 28.81
299.00 27.36
300.00 26.22
301.00 25.74
302.00 26.11
303.00 27.41
304.00 29.52
305.00 32.11
306.00 34.84
307.00 36.57
308.00 34.49
309.00 30.49
310.00 27.00
311.00 24.27
312.00 22.26
313.00 20.90
314.00 20.14
315.00 19.97
316.00 20.31
317.00 21.03
318.00 21.80
319.00 22.27
320.00 22.25
321.00 21.86
322.00 21.30
323.00 20.70
324.00 20.17
325.00 19.75
326.00 19.37
327.00 19.01
328.00 18.82
329.00 19.15
330.00 20.44
331.00 23.17
332.00 27.74
333.00 29.51
334.00 25.54
335.00 22.90
336.00 22.06
337.00 22.80
338.00 25.53
339.00 32.45
340.00 33.25
341.00 24.76
342.00 21.24
343.00 20.43
344.00 22.28
345.00 28.38
346.00 28.26
347.00 20.86
348.00 17.68
349.00 16.85
350.00 17.97
351.00 21.69
352.00 30.11
353.00 27.16
354.00 22.08
355.00 22.28
356.00 23.83
357.00 16.81
358.00 10.37
359.00 6.19
