NAME ATR4518R7_1850_X_CO_M45_04T_yyR
FREQUENCY 1850
GAIN 15.39 dBd
TILT	ELECTRICAL
COMMENT DATE 05.08.2013 -45 degrees polarized system Lever position 04T deg
HORIZONTAL 360
0.00 0.14
1.00 0.10
2.00 0.07
3.00 0.04
4.00 0.02
5.00 0.01
6.00 0.00
7.00 0.00
8.00 0.00
9.00 0.01
10.00 0.03
11.00 0.06
12.00 0.09
13.00 0.13
14.00 0.18
15.00 0.24
16.00 0.30
17.00 0.38
18.00 0.46
19.00 0.55
20.00 0.65
21.00 0.76
22.00 0.87
23.00 1.00
24.00 1.13
25.00 1.28
26.00 1.43
27.00 1.59
28.00 1.76
29.00 1.94
30.00 2.13
31.00 2.33
32.00 2.54
33.00 2.75
34.00 2.98
35.00 3.21
36.00 3.46
37.00 3.71
38.00 3.97
39.00 4.24
40.00 4.51
41.00 4.80
42.00 5.09
43.00 5.39
44.00 5.71
45.00 6.02
46.00 6.36
47.00 6.69
48.00 7.03
49.00 7.39
50.00 7.75
51.00 8.12
52.00 8.50
53.00 8.88
54.00 9.27
55.00 9.67
56.00 10.08
57.00 10.50
58.00 10.91
59.00 11.34
60.00 11.77
61.00 12.21
62.00 12.65
63.00 13.10
64.00 13.54
65.00 13.99
66.00 14.44
67.00 14.89
68.00 15.33
69.00 15.78
70.00 16.22
71.00 16.66
72.00 17.10
73.00 17.54
74.00 17.97
75.00 18.40
76.00 18.83
77.00 19.25
78.00 19.68
79.00 20.12
80.00 20.55
81.00 21.00
82.00 21.45
83.00 21.91
84.00 22.38
85.00 22.87
86.00 23.37
87.00 23.89
88.00 24.42
89.00 24.98
90.00 25.55
91.00 26.15
92.00 26.76
93.00 27.38
94.00 28.01
95.00 28.65
96.00 29.27
97.00 29.88
98.00 30.45
99.00 30.97
100.00 31.43
101.00 31.81
102.00 32.11
103.00 32.32
104.00 32.45
105.00 32.51
106.00 32.52
107.00 32.48
108.00 32.42
109.00 32.35
110.00 32.27
111.00 32.19
112.00 32.13
113.00 32.07
114.00 32.02
115.00 31.98
116.00 31.96
117.00 31.94
118.00 31.93
119.00 31.93
120.00 31.94
121.00 31.95
122.00 31.97
123.00 31.99
124.00 32.03
125.00 32.07
126.00 32.13
127.00 32.21
128.00 32.31
129.00 32.43
130.00 32.58
131.00 32.77
132.00 32.99
133.00 33.25
134.00 33.57
135.00 33.93
136.00 34.35
137.00 34.84
138.00 35.40
139.00 36.04
140.00 36.78
141.00 37.63
142.00 38.60
143.00 39.74
144.00 41.08
145.00 42.66
146.00 44.62
147.00 47.11
148.00 50.48
149.00 55.39
150.00 59.86
151.00 55.12
152.00 50.64
153.00 47.63
154.00 45.45
155.00 43.78
156.00 42.45
157.00 41.36
158.00 40.45
159.00 39.68
160.00 39.03
161.00 38.47
162.00 38.00
163.00 37.59
164.00 37.26
165.00 36.98
166.00 36.76
167.00 36.59
168.00 36.49
169.00 36.44
170.00 36.45
171.00 36.52
172.00 36.67
173.00 36.88
174.00 37.17
175.00 37.54
176.00 38.01
177.00 38.58
178.00 39.25
179.00 40.02
180.00 40.89
181.00 41.81
182.00 42.69
183.00 43.35
184.00 43.57
185.00 43.22
186.00 42.38
187.00 41.26
188.00 40.08
189.00 38.93
190.00 37.87
191.00 36.91
192.00 36.08
193.00 35.34
194.00 34.70
195.00 34.16
196.00 33.70
197.00 33.33
198.00 33.03
199.00 32.81
200.00 32.65
201.00 32.55
202.00 32.53
203.00 32.56
204.00 32.65
205.00 32.78
206.00 32.97
207.00 33.20
208.00 33.45
209.00 33.72
210.00 34.00
211.00 34.26
212.00 34.49
213.00 34.65
214.00 34.74
215.00 34.74
216.00 34.64
217.00 34.45
218.00 34.20
219.00 33.89
220.00 33.56
221.00 33.20
222.00 32.86
223.00 32.53
224.00 32.22
225.00 31.94
226.00 31.69
227.00 31.48
228.00 31.31
229.00 31.16
230.00 31.06
231.00 30.98
232.00 30.93
233.00 30.92
234.00 30.92
235.00 30.94
236.00 30.98
237.00 31.03
238.00 31.08
239.00 31.13
240.00 31.18
241.00 31.20
242.00 31.21
243.00 31.19
244.00 31.13
245.00 31.05
246.00 30.93
247.00 30.78
248.00 30.59
249.00 30.37
250.00 30.13
251.00 29.86
252.00 29.58
253.00 29.28
254.00 28.98
255.00 28.67
256.00 28.35
257.00 28.04
258.00 27.72
259.00 27.41
260.00 27.10
261.00 26.79
262.00 26.48
263.00 26.18
264.00 25.87
265.00 25.55
266.00 25.24
267.00 24.92
268.00 24.59
269.00 24.25
270.00 23.90
271.00 23.54
272.00 23.17
273.00 22.80
274.00 22.41
275.00 22.01
276.00 21.61
277.00 21.19
278.00 20.78
279.00 20.36
280.00 19.93
281.00 19.51
282.00 19.08
283.00 18.66
284.00 18.24
285.00 17.82
286.00 17.41
287.00 17.00
288.00 16.60
289.00 16.20
290.00 15.80
291.00 15.42
292.00 15.04
293.00 14.66
294.00 14.29
295.00 13.92
296.00 13.56
297.00 13.20
298.00 12.85
299.00 12.50
300.00 12.16
301.00 11.81
302.00 11.48
303.00 11.14
304.00 10.81
305.00 10.49
306.00 10.17
307.00 9.84
308.00 9.52
309.00 9.21
310.00 8.90
311.00 8.59
312.00 8.29
313.00 7.99
314.00 7.69
315.00 7.40
316.00 7.12
317.00 6.83
318.00 6.56
319.00 6.28
320.00 6.02
321.00 5.75
322.00 5.50
323.00 5.25
324.00 5.00
325.00 4.76
326.00 4.53
327.00 4.30
328.00 4.08
329.00 3.87
330.00 3.66
331.00 3.46
332.00 3.26
333.00 3.07
334.00 2.89
335.00 2.72
336.00 2.55
337.00 2.38
338.00 2.23
339.00 2.08
340.00 1.93
341.00 1.79
342.00 1.66
343.00 1.53
344.00 1.41
345.00 1.29
346.00 1.18
347.00 1.07
348.00 0.97
349.00 0.88
350.00 0.79
351.00 0.70
352.00 0.62
353.00 0.54
354.00 0.47
355.00 0.40
356.00 0.34
357.00 0.28
358.00 0.23
359.00 0.18
VERTICAL 360
0.00 6.44
1.00 3.40
2.00 1.46
3.00 0.36
4.00 0.00
5.00 0.34
6.00 1.42
7.00 3.38
8.00 6.58
9.00 12.12
10.00 30.93
11.00 19.45
12.00 13.32
13.00 11.75
14.00 12.35
15.00 14.91
16.00 20.07
17.00 23.61
18.00 18.71
19.00 15.62
20.00 14.71
21.00 15.50
22.00 18.18
23.00 24.37
24.00 36.27
25.00 24.38
26.00 20.01
27.00 18.83
28.00 19.61
29.00 22.27
30.00 26.07
31.00 25.26
32.00 21.39
33.00 18.96
34.00 17.91
35.00 17.91
36.00 18.88
37.00 20.86
38.00 24.17
39.00 29.72
40.00 42.61
41.00 39.62
42.00 33.44
43.00 32.08
44.00 32.06
45.00 31.13
46.00 28.65
47.00 26.04
48.00 23.96
49.00 22.42
50.00 21.40
51.00 20.84
52.00 20.79
53.00 21.36
54.00 22.81
55.00 25.62
56.00 30.93
57.00 45.56
58.00 37.85
59.00 31.46
60.00 29.00
61.00 27.86
62.00 27.54
63.00 27.98
64.00 29.26
65.00 31.17
66.00 32.79
67.00 33.28
68.00 33.35
69.00 33.67
70.00 33.76
71.00 32.96
72.00 31.61
73.00 30.58
74.00 30.48
75.00 31.43
76.00 32.93
77.00 33.67
78.00 32.63
79.00 30.58
80.00 28.82
81.00 27.98
82.00 28.01
83.00 28.47
84.00 28.67
85.00 28.25
86.00 27.40
87.00 26.72
88.00 26.74
89.00 27.66
90.00 29.40
91.00 31.23
92.00 31.42
93.00 29.64
94.00 27.99
95.00 27.55
96.00 28.48
97.00 30.58
98.00 33.26
99.00 35.41
100.00 36.01
101.00 35.70
102.00 36.09
103.00 38.22
104.00 42.58
105.00 48.63
106.00 52.34
107.00 50.21
108.00 47.14
109.00 46.77
110.00 48.92
111.00 50.30
112.00 49.35
113.00 48.63
114.00 47.27
115.00 46.25
116.00 47.41
117.00 51.54
118.00 56.05
119.00 52.37
120.00 48.26
121.00 46.68
122.00 47.72
123.00 48.66
124.00 45.26
125.00 42.31
126.00 40.81
127.00 39.50
128.00 38.16
129.00 37.53
130.00 37.98
131.00 39.15
132.00 40.10
133.00 40.12
134.00 39.95
135.00 40.86
136.00 43.87
137.00 46.88
138.00 43.25
139.00 39.84
140.00 38.44
141.00 37.88
142.00 36.99
143.00 35.62
144.00 34.56
145.00 34.38
146.00 35.36
147.00 37.71
148.00 41.85
149.00 48.95
150.00 61.72
151.00 55.09
152.00 45.97
153.00 40.49
154.00 37.59
155.00 36.73
156.00 37.59
157.00 39.56
158.00 40.94
159.00 39.86
160.00 37.54
161.00 35.85
162.00 35.38
163.00 35.82
164.00 36.10
165.00 35.81
166.00 35.83
167.00 36.45
168.00 37.04
169.00 37.55
170.00 38.61
171.00 39.26
172.00 38.22
173.00 37.57
174.00 39.01
175.00 41.60
176.00 41.26
177.00 39.22
178.00 39.23
179.00 42.12
180.00 50.65
181.00 52.92
182.00 44.74
183.00 42.32
184.00 42.04
185.00 42.84
186.00 42.72
187.00 40.36
188.00 38.14
189.00 37.65
190.00 39.79
191.00 46.49
192.00 43.51
193.00 36.56
194.00 33.88
195.00 33.64
196.00 35.18
197.00 37.20
198.00 37.44
199.00 36.62
200.00 36.36
201.00 36.60
202.00 36.60
203.00 35.55
204.00 33.92
205.00 33.05
206.00 33.92
207.00 37.61
208.00 51.97
209.00 44.74
210.00 37.26
211.00 34.48
212.00 33.19
213.00 32.87
214.00 33.52
215.00 35.18
216.00 37.70
217.00 40.70
218.00 43.73
219.00 46.31
220.00 48.92
221.00 53.93
222.00 51.73
223.00 45.27
224.00 43.16
225.00 44.28
226.00 44.69
227.00 40.07
228.00 36.38
229.00 34.72
230.00 34.55
231.00 35.35
232.00 36.61
233.00 37.76
234.00 38.47
235.00 38.80
236.00 39.13
237.00 39.99
238.00 41.96
239.00 45.13
240.00 46.34
241.00 44.43
242.00 43.99
243.00 46.82
244.00 57.99
245.00 53.69
246.00 46.22
247.00 43.81
248.00 43.09
249.00 42.26
250.00 40.24
251.00 38.23
252.00 37.42
253.00 38.17
254.00 40.60
255.00 44.74
256.00 48.55
257.00 46.99
258.00 44.05
259.00 42.20
260.00 40.78
261.00 39.23
262.00 37.79
263.00 36.89
264.00 36.70
265.00 37.40
266.00 39.23
267.00 42.42
268.00 46.72
269.00 50.24
270.00 47.86
271.00 43.19
272.00 40.48
273.00 39.42
274.00 38.84
275.00 37.99
276.00 37.34
277.00 37.20
278.00 36.87
279.00 35.71
280.00 34.12
281.00 32.59
282.00 31.32
283.00 30.43
284.00 29.85
285.00 29.26
286.00 28.35
287.00 27.16
288.00 26.03
289.00 25.31
290.00 25.19
291.00 25.66
292.00 26.61
293.00 27.81
294.00 29.05
295.00 30.16
296.00 30.94
297.00 30.91
298.00 29.64
299.00 27.60
300.00 25.53
301.00 23.79
302.00 22.39
303.00 21.31
304.00 20.57
305.00 20.25
306.00 20.42
307.00 21.11
308.00 22.25
309.00 23.57
310.00 24.57
311.00 24.83
312.00 24.47
313.00 23.88
314.00 23.25
315.00 22.61
316.00 22.03
317.00 21.69
318.00 21.73
319.00 22.26
320.00 23.24
321.00 24.36
322.00 25.02
323.00 24.74
324.00 23.64
325.00 22.22
326.00 20.92
327.00 20.01
328.00 19.63
329.00 19.92
330.00 21.11
331.00 23.71
332.00 29.07
333.00 33.44
334.00 26.15
335.00 21.72
336.00 19.55
337.00 18.83
338.00 19.38
339.00 21.42
340.00 25.52
341.00 29.73
342.00 26.83
343.00 24.22
344.00 24.61
345.00 28.75
346.00 32.14
347.00 24.32
348.00 19.75
349.00 17.59
350.00 17.01
351.00 17.90
352.00 20.72
353.00 27.63
354.00 36.67
355.00 26.47
356.00 26.13
357.00 30.54
358.00 18.68
359.00 11.05
