NAME ATR4518R7_2350_X_CO_M45_00T_yL
FREQUENCY 2350
GAIN 15.41 dBd
TILT	ELECTRICAL
COMMENT DATE 05.08.2013 -45 degrees polarized system Lever position 00T deg
HORIZONTAL 360
0.00 0.05
1.00 0.08
2.00 0.12
3.00 0.16
4.00 0.21
5.00 0.26
6.00 0.33
7.00 0.39
8.00 0.47
9.00 0.54
10.00 0.62
11.00 0.70
12.00 0.78
13.00 0.86
14.00 0.94
15.00 1.02
16.00 1.10
17.00 1.18
18.00 1.26
19.00 1.34
20.00 1.42
21.00 1.50
22.00 1.59
23.00 1.69
24.00 1.79
25.00 1.90
26.00 2.01
27.00 2.14
28.00 2.29
29.00 2.44
30.00 2.61
31.00 2.79
32.00 2.99
33.00 3.20
34.00 3.43
35.00 3.67
36.00 3.93
37.00 4.20
38.00 4.48
39.00 4.78
40.00 5.09
41.00 5.40
42.00 5.73
43.00 6.06
44.00 6.39
45.00 6.73
46.00 7.07
47.00 7.40
48.00 7.73
49.00 8.05
50.00 8.36
51.00 8.66
52.00 8.94
53.00 9.22
54.00 9.47
55.00 9.72
56.00 9.95
57.00 10.17
58.00 10.39
59.00 10.59
60.00 10.79
61.00 10.98
62.00 11.18
63.00 11.37
64.00 11.57
65.00 11.77
66.00 11.98
67.00 12.20
68.00 12.43
69.00 12.67
70.00 12.92
71.00 13.18
72.00 13.45
73.00 13.73
74.00 14.02
75.00 14.32
76.00 14.63
77.00 14.95
78.00 15.27
79.00 15.60
80.00 15.93
81.00 16.27
82.00 16.61
83.00 16.95
84.00 17.30
85.00 17.65
86.00 18.00
87.00 18.35
88.00 18.71
89.00 19.08
90.00 19.45
91.00 19.83
92.00 20.22
93.00 20.63
94.00 21.04
95.00 21.46
96.00 21.89
97.00 22.33
98.00 22.78
99.00 23.22
100.00 23.66
101.00 24.08
102.00 24.49
103.00 24.87
104.00 25.22
105.00 25.52
106.00 25.78
107.00 25.98
108.00 26.13
109.00 26.22
110.00 26.28
111.00 26.29
112.00 26.28
113.00 26.25
114.00 26.20
115.00 26.16
116.00 26.13
117.00 26.12
118.00 26.12
119.00 26.16
120.00 26.23
121.00 26.34
122.00 26.48
123.00 26.67
124.00 26.89
125.00 27.15
126.00 27.44
127.00 27.75
128.00 28.07
129.00 28.40
130.00 28.70
131.00 28.99
132.00 29.23
133.00 29.43
134.00 29.59
135.00 29.71
136.00 29.81
137.00 29.89
138.00 29.99
139.00 30.11
140.00 30.24
141.00 30.41
142.00 30.59
143.00 30.76
144.00 30.89
145.00 30.96
146.00 30.94
147.00 30.79
148.00 30.52
149.00 30.16
150.00 29.74
151.00 29.29
152.00 28.87
153.00 28.49
154.00 28.18
155.00 27.96
156.00 27.84
157.00 27.83
158.00 27.95
159.00 28.19
160.00 28.56
161.00 29.09
162.00 29.76
163.00 30.60
164.00 31.58
165.00 32.69
166.00 33.82
167.00 34.79
168.00 35.32
169.00 35.24
170.00 34.65
171.00 33.80
172.00 32.93
173.00 32.17
174.00 31.56
175.00 31.14
176.00 30.89
177.00 30.83
178.00 30.94
179.00 31.24
180.00 31.70
181.00 32.33
182.00 33.09
183.00 33.96
184.00 34.82
185.00 35.51
186.00 35.86
187.00 35.75
188.00 35.27
189.00 34.59
190.00 33.90
191.00 33.30
192.00 32.83
193.00 32.53
194.00 32.41
195.00 32.47
196.00 32.72
197.00 33.13
198.00 33.71
199.00 34.41
200.00 35.16
201.00 35.81
202.00 36.18
203.00 36.10
204.00 35.56
205.00 34.74
206.00 33.82
207.00 32.95
208.00 32.19
209.00 31.58
210.00 31.13
211.00 30.84
212.00 30.71
213.00 30.74
214.00 30.93
215.00 31.29
216.00 31.84
217.00 32.58
218.00 33.54
219.00 34.75
220.00 36.26
221.00 38.14
222.00 40.39
223.00 42.82
224.00 44.40
225.00 43.75
226.00 41.77
227.00 39.80
228.00 38.19
229.00 36.94
230.00 35.99
231.00 35.31
232.00 34.84
233.00 34.56
234.00 34.45
235.00 34.52
236.00 34.74
237.00 35.13
238.00 35.70
239.00 36.45
240.00 37.40
241.00 38.54
242.00 39.82
243.00 41.00
244.00 41.64
245.00 41.26
246.00 40.01
247.00 38.42
248.00 36.85
249.00 35.45
250.00 34.27
251.00 33.27
252.00 32.46
253.00 31.82
254.00 31.34
255.00 30.99
256.00 30.77
257.00 30.67
258.00 30.66
259.00 30.72
260.00 30.80
261.00 30.86
262.00 30.83
263.00 30.64
264.00 30.25
265.00 29.67
266.00 28.94
267.00 28.11
268.00 27.25
269.00 26.40
270.00 25.60
271.00 24.85
272.00 24.16
273.00 23.54
274.00 22.98
275.00 22.49
276.00 22.05
277.00 21.66
278.00 21.31
279.00 20.99
280.00 20.70
281.00 20.41
282.00 20.12
283.00 19.83
284.00 19.52
285.00 19.19
286.00 18.84
287.00 18.46
288.00 18.06
289.00 17.63
290.00 17.19
291.00 16.74
292.00 16.28
293.00 15.82
294.00 15.36
295.00 14.91
296.00 14.46
297.00 14.02
298.00 13.58
299.00 13.15
300.00 12.73
301.00 12.31
302.00 11.89
303.00 11.48
304.00 11.06
305.00 10.64
306.00 10.22
307.00 9.81
308.00 9.39
309.00 8.97
310.00 8.56
311.00 8.15
312.00 7.75
313.00 7.36
314.00 6.97
315.00 6.61
316.00 6.25
317.00 5.90
318.00 5.57
319.00 5.26
320.00 4.95
321.00 4.67
322.00 4.39
323.00 4.12
324.00 3.87
325.00 3.62
326.00 3.39
327.00 3.16
328.00 2.94
329.00 2.73
330.00 2.52
331.00 2.32
332.00 2.12
333.00 1.93
334.00 1.75
335.00 1.58
336.00 1.41
337.00 1.25
338.00 1.10
339.00 0.97
340.00 0.84
341.00 0.72
342.00 0.62
343.00 0.52
344.00 0.43
345.00 0.36
346.00 0.29
347.00 0.23
348.00 0.18
349.00 0.14
350.00 0.10
351.00 0.07
352.00 0.05
353.00 0.03
354.00 0.01
355.00 0.00
356.00 0.00
357.00 0.00
358.00 0.01
359.00 0.03
VERTICAL 360
0.00 0.15
1.00 0.15
2.00 1.41
3.00 4.19
4.00 9.46
5.00 23.81
6.00 16.23
7.00 11.21
8.00 10.79
9.00 13.64
10.00 23.10
11.00 22.01
12.00 14.52
13.00 12.82
14.00 14.05
15.00 18.14
16.00 24.08
17.00 21.43
18.00 18.80
19.00 18.77
20.00 21.01
21.00 25.10
22.00 23.31
23.00 18.83
24.00 16.50
25.00 15.94
26.00 16.70
27.00 18.11
28.00 18.99
29.00 18.39
30.00 16.73
31.00 15.24
32.00 14.69
33.00 15.13
34.00 16.06
35.00 17.06
36.00 18.81
37.00 22.96
38.00 35.70
39.00 29.57
40.00 24.21
41.00 23.42
42.00 24.54
43.00 26.71
44.00 30.03
45.00 35.34
46.00 37.97
47.00 33.35
48.00 30.08
49.00 28.31
50.00 28.33
51.00 30.86
52.00 33.89
53.00 30.72
54.00 28.72
55.00 29.47
56.00 32.29
57.00 35.40
58.00 34.52
59.00 31.58
60.00 29.80
61.00 29.23
62.00 29.15
63.00 28.96
64.00 28.84
65.00 29.45
66.00 31.32
67.00 34.73
68.00 39.39
69.00 43.66
70.00 50.35
71.00 45.85
72.00 36.77
73.00 33.27
74.00 32.63
75.00 33.57
76.00 34.01
77.00 33.12
78.00 32.77
79.00 34.17
80.00 37.97
81.00 44.21
82.00 48.57
83.00 60.43
84.00 44.98
85.00 36.86
86.00 33.07
87.00 31.69
88.00 32.05
89.00 33.31
90.00 34.25
91.00 35.16
92.00 38.00
93.00 42.36
94.00 37.07
95.00 33.37
96.00 32.75
97.00 34.39
98.00 37.50
99.00 39.46
100.00 38.72
101.00 38.85
102.00 41.81
103.00 47.21
104.00 46.28
105.00 45.57
106.00 48.25
107.00 54.69
108.00 64.10
109.00 49.88
110.00 45.76
111.00 44.38
112.00 44.30
113.00 44.10
114.00 43.05
115.00 43.10
116.00 44.94
117.00 44.23
118.00 41.61
119.00 40.82
120.00 41.76
121.00 43.94
122.00 44.71
123.00 42.68
124.00 42.74
125.00 45.65
126.00 43.24
127.00 38.56
128.00 34.97
129.00 32.18
130.00 30.90
131.00 31.58
132.00 34.20
133.00 37.75
134.00 40.46
135.00 42.99
136.00 42.54
137.00 39.94
138.00 38.90
139.00 39.31
140.00 41.04
141.00 44.16
142.00 45.82
143.00 44.41
144.00 43.83
145.00 41.78
146.00 37.29
147.00 34.04
148.00 32.83
149.00 33.76
150.00 36.94
151.00 41.32
152.00 41.35
153.00 38.68
154.00 37.32
155.00 38.57
156.00 40.93
157.00 37.67
158.00 35.47
159.00 36.37
160.00 38.48
161.00 37.91
162.00 36.49
163.00 35.77
164.00 36.00
165.00 37.89
166.00 41.22
167.00 41.77
168.00 38.21
169.00 35.02
170.00 33.24
171.00 32.84
172.00 33.93
173.00 37.39
174.00 41.75
175.00 35.05
176.00 30.74
177.00 29.10
178.00 29.21
179.00 30.29
180.00 31.39
181.00 32.00
182.00 32.73
183.00 34.86
184.00 38.18
185.00 36.82
186.00 35.33
187.00 37.61
188.00 44.37
189.00 49.88
190.00 60.84
191.00 47.10
192.00 42.68
193.00 38.97
194.00 34.57
195.00 33.11
196.00 35.07
197.00 40.31
198.00 44.10
199.00 41.73
200.00 37.18
201.00 34.82
202.00 34.12
203.00 32.95
204.00 32.37
205.00 34.45
206.00 40.97
207.00 49.60
208.00 43.05
209.00 38.30
210.00 35.41
211.00 35.03
212.00 35.29
213.00 33.86
214.00 32.98
215.00 34.29
216.00 38.19
217.00 45.00
218.00 53.02
219.00 45.79
220.00 40.29
221.00 37.88
222.00 37.94
223.00 40.29
224.00 40.76
225.00 36.93
226.00 35.36
227.00 37.39
228.00 45.65
229.00 42.53
230.00 38.17
231.00 39.90
232.00 42.01
233.00 35.70
234.00 33.24
235.00 35.07
236.00 46.01
237.00 39.21
238.00 32.99
239.00 31.70
240.00 33.05
241.00 36.41
242.00 38.30
243.00 34.78
244.00 31.84
245.00 30.64
246.00 31.01
247.00 32.57
248.00 34.12
249.00 34.81
250.00 36.15
251.00 39.46
252.00 43.09
253.00 40.83
254.00 36.11
255.00 31.65
256.00 28.31
257.00 26.23
258.00 25.11
259.00 24.41
260.00 23.68
261.00 22.94
262.00 22.53
263.00 22.46
264.00 22.32
265.00 21.65
266.00 20.58
267.00 19.56
268.00 18.83
269.00 18.27
270.00 17.74
271.00 17.38
272.00 17.47
273.00 18.07
274.00 18.89
275.00 19.43
276.00 19.41
277.00 19.13
278.00 19.09
279.00 19.52
280.00 20.24
281.00 20.95
282.00 21.49
283.00 21.86
284.00 21.93
285.00 21.73
286.00 21.62
287.00 22.27
288.00 24.22
289.00 27.74
290.00 32.35
291.00 36.50
292.00 40.44
293.00 44.49
294.00 43.76
295.00 36.54
296.00 30.48
297.00 26.66
298.00 24.86
299.00 24.97
300.00 26.97
301.00 31.00
302.00 37.34
303.00 40.15
304.00 32.18
305.00 26.47
306.00 23.23
307.00 22.23
308.00 23.41
309.00 26.19
310.00 27.58
311.00 27.54
312.00 30.41
313.00 41.94
314.00 29.25
315.00 23.83
316.00 22.19
317.00 23.41
318.00 28.86
319.00 35.25
320.00 25.02
321.00 21.40
322.00 20.11
323.00 19.34
324.00 18.08
325.00 16.68
326.00 15.80
327.00 15.54
328.00 15.47
329.00 14.93
330.00 13.92
331.00 13.13
332.00 13.03
333.00 13.79
334.00 15.61
335.00 19.15
336.00 27.48
337.00 30.33
338.00 20.86
339.00 18.45
340.00 19.42
341.00 24.39
342.00 37.70
343.00 25.89
344.00 22.54
345.00 22.54
346.00 25.24
347.00 30.35
348.00 24.96
349.00 20.44
350.00 19.08
351.00 19.87
352.00 21.73
353.00 23.64
354.00 28.34
355.00 24.69
356.00 14.16
357.00 7.96
358.00 3.90
359.00 1.37
