NAME ATR4518R7_1850_X_CO_P45_00T_yyR
FREQUENCY 1850
GAIN 15.52 dBd
TILT	ELECTRICAL
COMMENT DATE 05.08.2013 +45 degrees polarized system Lever position 00T deg
HORIZONTAL 360
0.00 0.15
1.00 0.11
2.00 0.07
3.00 0.05
4.00 0.02
5.00 0.01
6.00 0.00
7.00 0.00
8.00 0.01
9.00 0.03
10.00 0.05
11.00 0.08
12.00 0.13
13.00 0.18
14.00 0.24
15.00 0.31
16.00 0.38
17.00 0.47
18.00 0.57
19.00 0.68
20.00 0.79
21.00 0.92
22.00 1.05
23.00 1.20
24.00 1.35
25.00 1.51
26.00 1.68
27.00 1.86
28.00 2.04
29.00 2.24
30.00 2.43
31.00 2.64
32.00 2.85
33.00 3.06
34.00 3.28
35.00 3.51
36.00 3.74
37.00 3.97
38.00 4.21
39.00 4.45
40.00 4.69
41.00 4.94
42.00 5.19
43.00 5.45
44.00 5.71
45.00 5.97
46.00 6.24
47.00 6.51
48.00 6.79
49.00 7.07
50.00 7.35
51.00 7.65
52.00 7.95
53.00 8.25
54.00 8.56
55.00 8.88
56.00 9.20
57.00 9.53
58.00 9.87
59.00 10.21
60.00 10.55
61.00 10.90
62.00 11.25
63.00 11.61
64.00 11.96
65.00 12.32
66.00 12.67
67.00 13.03
68.00 13.38
69.00 13.73
70.00 14.08
71.00 14.42
72.00 14.77
73.00 15.11
74.00 15.45
75.00 15.78
76.00 16.12
77.00 16.46
78.00 16.79
79.00 17.13
80.00 17.48
81.00 17.82
82.00 18.17
83.00 18.53
84.00 18.90
85.00 19.27
86.00 19.65
87.00 20.04
88.00 20.44
89.00 20.84
90.00 21.25
91.00 21.66
92.00 22.08
93.00 22.50
94.00 22.92
95.00 23.34
96.00 23.76
97.00 24.18
98.00 24.59
99.00 25.00
100.00 25.40
101.00 25.81
102.00 26.22
103.00 26.62
104.00 27.04
105.00 27.47
106.00 27.91
107.00 28.37
108.00 28.85
109.00 29.35
110.00 29.89
111.00 30.46
112.00 31.05
113.00 31.67
114.00 32.32
115.00 32.99
116.00 33.66
117.00 34.33
118.00 34.97
119.00 35.56
120.00 36.07
121.00 36.49
122.00 36.80
123.00 37.02
124.00 37.16
125.00 37.25
126.00 37.32
127.00 37.40
128.00 37.52
129.00 37.70
130.00 37.94
131.00 38.29
132.00 38.75
133.00 39.34
134.00 40.09
135.00 41.01
136.00 42.16
137.00 43.58
138.00 45.33
139.00 47.49
140.00 49.93
141.00 51.76
142.00 51.30
143.00 49.12
144.00 46.84
145.00 44.93
146.00 43.40
147.00 42.19
148.00 41.24
149.00 40.51
150.00 39.96
151.00 39.58
152.00 39.36
153.00 39.27
154.00 39.32
155.00 39.49
156.00 39.80
157.00 40.24
158.00 40.81
159.00 41.49
160.00 42.28
161.00 43.12
162.00 43.92
163.00 44.56
164.00 44.84
165.00 44.69
166.00 44.14
167.00 43.36
168.00 42.49
169.00 41.65
170.00 40.89
171.00 40.25
172.00 39.72
173.00 39.31
174.00 39.03
175.00 38.85
176.00 38.79
177.00 38.85
178.00 39.01
179.00 39.29
180.00 39.68
181.00 40.18
182.00 40.79
183.00 41.48
184.00 42.22
185.00 42.95
186.00 43.57
187.00 43.96
188.00 44.01
189.00 43.72
190.00 43.16
191.00 42.46
192.00 41.73
193.00 41.03
194.00 40.41
195.00 39.89
196.00 39.49
197.00 39.19
198.00 39.01
199.00 38.95
200.00 39.01
201.00 39.19
202.00 39.51
203.00 39.97
204.00 40.58
205.00 41.36
206.00 42.33
207.00 43.49
208.00 44.85
209.00 46.27
210.00 47.41
211.00 47.66
212.00 46.80
213.00 45.24
214.00 43.55
215.00 41.98
216.00 40.60
217.00 39.41
218.00 38.37
219.00 37.49
220.00 36.74
221.00 36.09
222.00 35.54
223.00 35.08
224.00 34.70
225.00 34.40
226.00 34.15
227.00 33.97
228.00 33.85
229.00 33.77
230.00 33.74
231.00 33.75
232.00 33.80
233.00 33.87
234.00 33.98
235.00 34.10
236.00 34.23
237.00 34.37
238.00 34.50
239.00 34.62
240.00 34.73
241.00 34.79
242.00 34.83
243.00 34.83
244.00 34.79
245.00 34.70
246.00 34.56
247.00 34.38
248.00 34.17
249.00 33.92
250.00 33.64
251.00 33.34
252.00 33.01
253.00 32.67
254.00 32.31
255.00 31.94
256.00 31.55
257.00 31.16
258.00 30.76
259.00 30.34
260.00 29.92
261.00 29.49
262.00 29.05
263.00 28.60
264.00 28.15
265.00 27.68
266.00 27.21
267.00 26.73
268.00 26.25
269.00 25.75
270.00 25.26
271.00 24.76
272.00 24.26
273.00 23.76
274.00 23.25
275.00 22.75
276.00 22.26
277.00 21.76
278.00 21.27
279.00 20.79
280.00 20.31
281.00 19.84
282.00 19.38
283.00 18.92
284.00 18.47
285.00 18.03
286.00 17.60
287.00 17.18
288.00 16.76
289.00 16.35
290.00 15.95
291.00 15.56
292.00 15.17
293.00 14.79
294.00 14.41
295.00 14.05
296.00 13.68
297.00 13.32
298.00 12.97
299.00 12.62
300.00 12.27
301.00 11.93
302.00 11.59
303.00 11.26
304.00 10.92
305.00 10.59
306.00 10.27
307.00 9.94
308.00 9.62
309.00 9.31
310.00 8.99
311.00 8.68
312.00 8.37
313.00 8.07
314.00 7.77
315.00 7.48
316.00 7.19
317.00 6.90
318.00 6.62
319.00 6.34
320.00 6.07
321.00 5.81
322.00 5.55
323.00 5.30
324.00 5.05
325.00 4.81
326.00 4.57
327.00 4.35
328.00 4.13
329.00 3.91
330.00 3.70
331.00 3.50
332.00 3.31
333.00 3.12
334.00 2.94
335.00 2.77
336.00 2.60
337.00 2.44
338.00 2.28
339.00 2.13
340.00 1.99
341.00 1.85
342.00 1.71
343.00 1.59
344.00 1.47
345.00 1.35
346.00 1.24
347.00 1.13
348.00 1.03
349.00 0.93
350.00 0.83
351.00 0.74
352.00 0.66
353.00 0.58
354.00 0.50
355.00 0.43
356.00 0.36
357.00 0.30
358.00 0.25
359.00 0.20
VERTICAL 360
0.00 0.02
1.00 0.15
2.00 0.96
3.00 2.52
4.00 5.03
5.00 8.90
6.00 15.43
7.00 29.78
8.00 21.71
9.00 17.75
10.00 17.99
11.00 21.27
12.00 26.84
13.00 23.26
14.00 18.55
15.00 16.54
16.00 16.35
17.00 17.76
18.00 21.15
19.00 27.59
20.00 28.37
21.00 22.92
22.00 20.50
23.00 20.25
24.00 21.78
25.00 25.40
26.00 33.12
27.00 37.52
28.00 28.79
29.00 24.88
30.00 22.88
31.00 22.04
32.00 22.17
33.00 23.22
34.00 24.94
35.00 26.53
36.00 27.03
37.00 26.73
38.00 26.26
39.00 25.51
40.00 24.29
41.00 22.91
42.00 21.86
43.00 21.47
44.00 21.94
45.00 23.56
46.00 26.89
47.00 33.95
48.00 41.23
49.00 31.48
50.00 27.39
51.00 25.54
52.00 24.67
53.00 24.16
54.00 23.67
55.00 23.26
56.00 23.11
57.00 23.27
58.00 23.71
59.00 24.38
60.00 25.31
61.00 26.56
62.00 28.11
63.00 29.75
64.00 30.98
65.00 31.38
66.00 31.25
67.00 31.14
68.00 31.47
69.00 32.50
70.00 34.52
71.00 38.04
72.00 42.52
73.00 40.57
74.00 36.24
75.00 33.56
76.00 31.86
77.00 30.44
78.00 28.92
79.00 27.42
80.00 26.21
81.00 25.51
82.00 25.35
83.00 25.55
84.00 25.82
85.00 25.95
86.00 26.07
87.00 26.61
88.00 28.14
89.00 31.41
90.00 37.79
91.00 41.19
92.00 35.84
93.00 33.84
94.00 33.86
95.00 34.54
96.00 35.18
97.00 36.24
98.00 38.67
99.00 43.00
100.00 45.51
101.00 43.49
102.00 42.71
103.00 43.75
104.00 45.62
105.00 48.48
106.00 54.82
107.00 60.12
108.00 53.98
109.00 52.32
110.00 51.93
111.00 51.90
112.00 52.66
113.00 50.58
114.00 47.11
115.00 45.47
116.00 45.47
117.00 46.19
118.00 46.91
119.00 47.15
120.00 46.01
121.00 43.84
122.00 41.72
123.00 39.86
124.00 38.18
125.00 36.66
126.00 35.29
127.00 34.15
128.00 33.43
129.00 33.34
130.00 33.92
131.00 34.87
132.00 35.57
133.00 35.59
134.00 35.21
135.00 34.90
136.00 34.95
137.00 35.39
138.00 36.02
139.00 36.64
140.00 37.45
141.00 39.02
142.00 41.98
143.00 47.01
144.00 55.22
145.00 61.99
146.00 52.37
147.00 45.02
148.00 40.76
149.00 38.69
150.00 38.51
151.00 40.29
152.00 44.21
153.00 46.75
154.00 43.97
155.00 42.14
156.00 42.76
157.00 46.80
158.00 51.69
159.00 42.96
160.00 37.91
161.00 36.03
162.00 36.31
163.00 37.90
164.00 38.94
165.00 39.18
166.00 40.90
167.00 44.77
168.00 45.81
169.00 44.55
170.00 46.11
171.00 49.99
172.00 52.88
173.00 46.89
174.00 39.91
175.00 36.30
176.00 35.30
177.00 36.00
178.00 38.42
179.00 41.80
180.00 46.30
181.00 47.07
182.00 42.66
183.00 40.78
184.00 41.74
185.00 46.66
186.00 50.45
187.00 41.40
188.00 37.40
189.00 36.66
190.00 38.14
191.00 39.23
192.00 37.55
193.00 36.15
194.00 36.07
195.00 36.56
196.00 37.17
197.00 37.46
198.00 35.98
199.00 33.65
200.00 32.33
201.00 32.43
202.00 33.64
203.00 35.23
204.00 36.36
205.00 36.94
206.00 37.24
207.00 37.26
208.00 36.92
209.00 36.55
210.00 36.74
211.00 38.00
212.00 40.39
213.00 41.92
214.00 39.75
215.00 36.58
216.00 34.12
217.00 32.37
218.00 31.22
219.00 30.68
220.00 30.73
221.00 31.34
222.00 32.35
223.00 33.41
224.00 34.31
225.00 35.44
226.00 37.71
227.00 42.77
228.00 58.74
229.00 47.53
230.00 43.26
231.00 43.92
232.00 45.18
233.00 41.93
234.00 38.73
235.00 37.41
236.00 37.37
237.00 38.19
238.00 40.03
239.00 44.00
240.00 53.24
241.00 50.06
242.00 43.49
243.00 40.80
244.00 39.97
245.00 40.41
246.00 40.91
247.00 39.86
248.00 38.21
249.00 37.36
250.00 37.49
251.00 38.37
252.00 39.74
253.00 41.30
254.00 42.78
255.00 43.89
256.00 43.57
257.00 41.57
258.00 39.54
259.00 38.14
260.00 37.14
261.00 36.26
262.00 35.51
263.00 34.98
264.00 34.75
265.00 34.78
266.00 34.85
267.00 34.64
268.00 34.16
269.00 33.71
270.00 33.57
271.00 33.72
272.00 33.95
273.00 33.85
274.00 33.13
275.00 32.05
276.00 31.14
277.00 30.68
278.00 30.70
279.00 30.93
280.00 30.92
281.00 30.44
282.00 29.74
283.00 29.22
284.00 28.97
285.00 28.81
286.00 28.47
287.00 27.84
288.00 27.03
289.00 26.20
290.00 25.34
291.00 24.35
292.00 23.27
293.00 22.30
294.00 21.59
295.00 21.19
296.00 21.06
297.00 21.08
298.00 21.19
299.00 21.48
300.00 22.13
301.00 23.38
302.00 25.41
303.00 28.31
304.00 31.50
305.00 31.57
306.00 28.10
307.00 24.78
308.00 22.43
309.00 20.90
310.00 19.99
311.00 19.47
312.00 19.20
313.00 19.08
314.00 19.05
315.00 19.02
316.00 18.83
317.00 18.35
318.00 17.59
319.00 16.73
320.00 15.99
321.00 15.54
322.00 15.46
323.00 15.73
324.00 16.34
325.00 17.38
326.00 19.12
327.00 22.07
328.00 27.55
329.00 43.35
330.00 31.76
331.00 25.76
332.00 23.53
333.00 23.18
334.00 24.75
335.00 29.69
336.00 34.16
337.00 25.34
338.00 20.53
339.00 18.41
340.00 18.19
341.00 19.90
342.00 23.94
343.00 25.86
344.00 21.74
345.00 19.28
346.00 19.40
347.00 22.43
348.00 29.47
349.00 25.58
350.00 19.97
351.00 18.08
352.00 19.12
353.00 23.84
354.00 19.85
355.00 11.88
356.00 7.02
357.00 3.85
358.00 1.77
359.00 0.54
