NAME ATR4518R7_2655_X_CO_M45_08T_yyR
FREQUENCY 2655
GAIN 15.83 dBd
TILT	ELECTRICAL
COMMENT DATE 05.08.2013 -45 degrees polarized system Lever position 08T deg
HORIZONTAL 360
0.00 0.00
1.00 0.00
2.00 0.01
3.00 0.03
4.00 0.07
5.00 0.12
6.00 0.18
7.00 0.26
8.00 0.34
9.00 0.45
10.00 0.56
11.00 0.68
12.00 0.82
13.00 0.96
14.00 1.11
15.00 1.27
16.00 1.43
17.00 1.60
18.00 1.76
19.00 1.93
20.00 2.10
21.00 2.27
22.00 2.43
23.00 2.60
24.00 2.76
25.00 2.92
26.00 3.09
27.00 3.25
28.00 3.42
29.00 3.59
30.00 3.77
31.00 3.96
32.00 4.15
33.00 4.35
34.00 4.56
35.00 4.78
36.00 5.02
37.00 5.26
38.00 5.52
39.00 5.80
40.00 6.08
41.00 6.38
42.00 6.70
43.00 7.02
44.00 7.36
45.00 7.71
46.00 8.07
47.00 8.45
48.00 8.83
49.00 9.23
50.00 9.64
51.00 10.07
52.00 10.50
53.00 10.95
54.00 11.42
55.00 11.91
56.00 12.41
57.00 12.93
58.00 13.47
59.00 14.03
60.00 14.60
61.00 15.20
62.00 15.81
63.00 16.44
64.00 17.06
65.00 17.70
66.00 18.32
67.00 18.94
68.00 19.53
69.00 20.11
70.00 20.64
71.00 21.15
72.00 21.63
73.00 22.09
74.00 22.54
75.00 22.99
76.00 23.45
77.00 23.94
78.00 24.47
79.00 25.05
80.00 25.70
81.00 26.41
82.00 27.20
83.00 28.06
84.00 28.98
85.00 29.93
86.00 30.84
87.00 31.65
88.00 32.25
89.00 32.56
90.00 32.59
91.00 32.39
92.00 32.07
93.00 31.72
94.00 31.42
95.00 31.19
96.00 31.07
97.00 31.06
98.00 31.17
99.00 31.40
100.00 31.75
101.00 32.21
102.00 32.77
103.00 33.40
104.00 34.06
105.00 34.71
106.00 35.27
107.00 35.67
108.00 35.88
109.00 35.90
110.00 35.78
111.00 35.61
112.00 35.45
113.00 35.35
114.00 35.37
115.00 35.53
116.00 35.85
117.00 36.38
118.00 37.13
119.00 38.15
120.00 39.51
121.00 41.29
122.00 43.62
123.00 46.58
124.00 49.28
125.00 48.72
126.00 45.84
127.00 43.17
128.00 41.13
129.00 39.61
130.00 38.47
131.00 37.64
132.00 37.07
133.00 36.71
134.00 36.53
135.00 36.53
136.00 36.69
137.00 36.99
138.00 37.44
139.00 38.02
140.00 38.73
141.00 39.58
142.00 40.56
143.00 41.68
144.00 42.96
145.00 44.44
146.00 46.20
147.00 48.40
148.00 51.34
149.00 55.86
150.00 65.55
151.00 61.90
152.00 54.06
153.00 49.84
154.00 46.97
155.00 44.83
156.00 43.16
157.00 41.82
158.00 40.76
159.00 39.92
160.00 39.28
161.00 38.82
162.00 38.53
163.00 38.41
164.00 38.46
165.00 38.68
166.00 39.09
167.00 39.71
168.00 40.59
169.00 41.76
170.00 43.34
171.00 45.51
172.00 48.70
173.00 54.10
174.00 69.38
175.00 55.87
176.00 49.52
177.00 45.99
178.00 43.62
179.00 41.91
180.00 40.65
181.00 39.72
182.00 39.07
183.00 38.64
184.00 38.44
185.00 38.43
186.00 38.62
187.00 39.00
188.00 39.58
189.00 40.34
190.00 41.24
191.00 42.17
192.00 42.91
193.00 43.17
194.00 42.77
195.00 41.85
196.00 40.72
197.00 39.60
198.00 38.60
199.00 37.77
200.00 37.10
201.00 36.60
202.00 36.25
203.00 36.02
204.00 35.91
205.00 35.89
206.00 35.92
207.00 35.98
208.00 36.03
209.00 36.03
210.00 35.97
211.00 35.85
212.00 35.67
213.00 35.47
214.00 35.27
215.00 35.12
216.00 35.05
217.00 35.08
218.00 35.23
219.00 35.53
220.00 35.97
221.00 36.56
222.00 37.27
223.00 38.04
224.00 38.72
225.00 39.08
226.00 38.90
227.00 38.16
228.00 37.08
229.00 35.90
230.00 34.76
231.00 33.74
232.00 32.86
233.00 32.13
234.00 31.55
235.00 31.11
236.00 30.79
237.00 30.60
238.00 30.52
239.00 30.56
240.00 30.70
241.00 30.94
242.00 31.27
243.00 31.68
244.00 32.15
245.00 32.68
246.00 33.22
247.00 33.76
248.00 34.24
249.00 34.63
250.00 34.91
251.00 35.06
252.00 35.11
253.00 35.09
254.00 35.03
255.00 34.97
256.00 34.95
257.00 34.98
258.00 35.09
259.00 35.29
260.00 35.57
261.00 35.92
262.00 36.32
263.00 36.74
264.00 37.09
265.00 37.28
266.00 37.21
267.00 36.81
268.00 36.10
269.00 35.18
270.00 34.15
271.00 33.08
272.00 32.03
273.00 31.02
274.00 30.07
275.00 29.18
276.00 28.35
277.00 27.58
278.00 26.85
279.00 26.17
280.00 25.53
281.00 24.92
282.00 24.34
283.00 23.79
284.00 23.26
285.00 22.74
286.00 22.24
287.00 21.74
288.00 21.26
289.00 20.79
290.00 20.33
291.00 19.87
292.00 19.42
293.00 18.98
294.00 18.54
295.00 18.11
296.00 17.68
297.00 17.27
298.00 16.85
299.00 16.44
300.00 16.03
301.00 15.63
302.00 15.23
303.00 14.83
304.00 14.43
305.00 14.02
306.00 13.61
307.00 13.20
308.00 12.78
309.00 12.36
310.00 11.93
311.00 11.49
312.00 11.05
313.00 10.61
314.00 10.16
315.00 9.71
316.00 9.26
317.00 8.81
318.00 8.36
319.00 7.91
320.00 7.47
321.00 7.04
322.00 6.61
323.00 6.20
324.00 5.80
325.00 5.41
326.00 5.03
327.00 4.67
328.00 4.32
329.00 3.99
330.00 3.68
331.00 3.38
332.00 3.10
333.00 2.84
334.00 2.60
335.00 2.37
336.00 2.16
337.00 1.96
338.00 1.78
339.00 1.62
340.00 1.46
341.00 1.32
342.00 1.20
343.00 1.08
344.00 0.97
345.00 0.87
346.00 0.77
347.00 0.69
348.00 0.61
349.00 0.53
350.00 0.45
351.00 0.38
352.00 0.32
353.00 0.26
354.00 0.20
355.00 0.15
356.00 0.10
357.00 0.07
358.00 0.03
359.00 0.01
VERTICAL 360
0.00 21.82
1.00 22.46
2.00 27.10
3.00 19.28
4.00 10.56
5.00 5.46
6.00 2.31
7.00 0.55
8.00 0.00
9.00 0.70
10.00 2.87
11.00 7.28
12.00 18.06
13.00 21.08
14.00 13.27
15.00 13.42
16.00 19.80
17.00 25.44
18.00 14.74
19.00 12.44
20.00 13.79
21.00 19.58
22.00 33.50
23.00 19.31
24.00 16.04
25.00 16.61
26.00 21.62
27.00 43.05
28.00 20.94
29.00 17.26
30.00 17.37
31.00 20.29
32.00 26.51
33.00 29.52
34.00 24.80
35.00 23.44
36.00 23.95
37.00 23.21
38.00 20.98
39.00 19.85
40.00 20.63
41.00 23.50
42.00 28.51
43.00 33.07
44.00 29.48
45.00 25.96
46.00 25.52
47.00 28.59
48.00 35.50
49.00 32.40
50.00 27.94
51.00 26.05
52.00 25.07
53.00 24.60
54.00 24.97
55.00 26.74
56.00 30.56
57.00 38.31
58.00 47.47
59.00 37.47
60.00 33.49
61.00 31.26
62.00 30.31
63.00 30.85
64.00 33.06
65.00 36.91
66.00 39.64
67.00 38.68
68.00 38.12
69.00 38.29
70.00 37.57
71.00 35.75
72.00 34.43
73.00 34.63
74.00 36.25
75.00 37.65
76.00 37.91
77.00 38.63
78.00 40.02
79.00 40.38
80.00 38.67
81.00 36.93
82.00 36.80
83.00 36.63
84.00 34.32
85.00 33.18
86.00 35.53
87.00 47.61
88.00 41.18
89.00 33.38
90.00 30.37
91.00 29.68
92.00 31.00
93.00 33.58
94.00 34.89
95.00 34.63
96.00 34.63
97.00 34.85
98.00 35.34
99.00 36.68
100.00 38.26
101.00 38.60
102.00 39.46
103.00 43.41
104.00 48.38
105.00 44.33
106.00 41.25
107.00 39.25
108.00 37.77
109.00 36.97
110.00 37.04
111.00 38.08
112.00 40.11
113.00 42.43
114.00 40.88
115.00 37.38
116.00 35.71
117.00 35.74
118.00 36.59
119.00 37.33
120.00 38.21
121.00 40.86
122.00 47.38
123.00 47.10
124.00 42.79
125.00 44.00
126.00 52.30
127.00 52.06
128.00 46.24
129.00 45.26
130.00 43.28
131.00 39.86
132.00 37.40
133.00 36.37
134.00 36.63
135.00 37.54
136.00 38.20
137.00 39.13
138.00 41.27
139.00 42.54
140.00 42.18
141.00 43.95
142.00 44.69
143.00 42.57
144.00 43.26
145.00 42.73
146.00 40.75
147.00 42.36
148.00 43.26
149.00 40.80
150.00 42.30
151.00 43.42
152.00 40.69
153.00 41.98
154.00 40.22
155.00 35.27
156.00 33.79
157.00 35.19
158.00 38.10
159.00 38.52
160.00 37.50
161.00 39.46
162.00 45.63
163.00 44.55
164.00 42.87
165.00 45.97
166.00 43.43
167.00 39.00
168.00 37.54
169.00 38.95
170.00 42.84
171.00 41.31
172.00 39.72
173.00 43.77
174.00 41.93
175.00 36.25
176.00 33.80
177.00 32.22
178.00 31.65
179.00 32.93
180.00 36.12
181.00 37.86
182.00 37.22
183.00 37.41
184.00 37.81
185.00 37.63
186.00 37.09
187.00 35.82
188.00 33.87
189.00 32.32
190.00 32.00
191.00 33.11
192.00 35.68
193.00 39.45
194.00 39.75
195.00 35.94
196.00 33.91
197.00 34.02
198.00 35.67
199.00 37.64
200.00 37.90
201.00 36.41
202.00 35.98
203.00 38.53
204.00 43.51
205.00 43.47
206.00 44.00
207.00 41.91
208.00 38.52
209.00 39.81
210.00 49.06
211.00 55.14
212.00 52.60
213.00 51.47
214.00 43.21
215.00 39.97
216.00 39.35
217.00 42.84
218.00 44.68
219.00 37.87
220.00 36.33
221.00 38.14
222.00 40.73
223.00 44.84
224.00 64.25
225.00 44.45
226.00 43.09
227.00 45.18
228.00 39.15
229.00 34.60
230.00 32.45
231.00 31.95
232.00 33.20
233.00 36.91
234.00 44.09
235.00 44.17
236.00 40.53
237.00 40.32
238.00 41.31
239.00 41.21
240.00 38.93
241.00 36.53
242.00 35.78
243.00 37.26
244.00 42.10
245.00 55.28
246.00 42.91
247.00 36.76
248.00 33.85
249.00 32.80
250.00 33.46
251.00 35.92
252.00 40.32
253.00 46.71
254.00 47.39
255.00 40.80
256.00 37.07
257.00 35.28
258.00 34.32
259.00 33.25
260.00 31.82
261.00 30.65
262.00 30.39
263.00 31.39
264.00 33.59
265.00 36.04
266.00 35.53
267.00 31.94
268.00 28.75
269.00 27.01
270.00 26.77
271.00 27.73
272.00 29.26
273.00 30.58
274.00 31.68
275.00 33.01
276.00 34.30
277.00 34.55
278.00 33.65
279.00 32.48
280.00 32.03
281.00 32.70
282.00 34.00
283.00 34.65
284.00 34.05
285.00 33.39
286.00 34.03
287.00 36.83
288.00 42.69
289.00 48.80
290.00 43.67
291.00 41.39
292.00 40.70
293.00 37.74
294.00 33.75
295.00 30.22
296.00 27.52
297.00 25.95
298.00 25.65
299.00 26.74
300.00 29.20
301.00 31.81
302.00 31.81
303.00 27.90
304.00 22.72
305.00 18.55
306.00 15.54
307.00 13.37
308.00 11.72
309.00 10.44
310.00 9.54
311.00 9.13
312.00 9.39
313.00 10.57
314.00 13.09
315.00 18.33
316.00 30.70
317.00 23.30
318.00 18.27
319.00 17.21
320.00 18.29
321.00 21.59
322.00 28.39
323.00 26.57
324.00 20.84
325.00 19.18
326.00 20.65
327.00 27.42
328.00 32.50
329.00 21.35
330.00 18.36
331.00 19.05
332.00 25.01
333.00 30.73
334.00 19.96
335.00 17.32
336.00 18.59
337.00 27.02
338.00 27.07
339.00 17.08
340.00 13.45
341.00 12.43
342.00 13.50
343.00 16.89
344.00 24.58
345.00 37.95
346.00 23.37
347.00 21.87
348.00 25.50
349.00 31.17
350.00 22.96
351.00 19.98
352.00 20.76
353.00 24.90
354.00 33.88
355.00 38.41
356.00 30.51
357.00 26.29
358.00 23.99
359.00 22.70
