NAME ATR4518R7_2350_X_CO_P45_09T_yyR
FREQUENCY 2350
GAIN 14.94 dBd
TILT	ELECTRICAL
COMMENT DATE 05.08.2013 +45 degrees polarized system Lever position 09T deg
HORIZONTAL 360
0.00 0.05
1.00 0.07
2.00 0.10
3.00 0.14
4.00 0.17
5.00 0.21
6.00 0.25
7.00 0.29
8.00 0.33
9.00 0.38
10.00 0.42
11.00 0.48
12.00 0.53
13.00 0.59
14.00 0.65
15.00 0.72
16.00 0.79
17.00 0.86
18.00 0.95
19.00 1.04
20.00 1.14
21.00 1.24
22.00 1.36
23.00 1.48
24.00 1.61
25.00 1.75
26.00 1.89
27.00 2.05
28.00 2.21
29.00 2.38
30.00 2.55
31.00 2.74
32.00 2.93
33.00 3.12
34.00 3.32
35.00 3.53
36.00 3.74
37.00 3.95
38.00 4.17
39.00 4.39
40.00 4.61
41.00 4.84
42.00 5.07
43.00 5.30
44.00 5.54
45.00 5.79
46.00 6.04
47.00 6.30
48.00 6.56
49.00 6.84
50.00 7.13
51.00 7.42
52.00 7.73
53.00 8.06
54.00 8.39
55.00 8.75
56.00 9.11
57.00 9.50
58.00 9.90
59.00 10.32
60.00 10.75
61.00 11.20
62.00 11.67
63.00 12.15
64.00 12.64
65.00 13.15
66.00 13.66
67.00 14.19
68.00 14.73
69.00 15.27
70.00 15.81
71.00 16.36
72.00 16.91
73.00 17.47
74.00 18.02
75.00 18.58
76.00 19.15
77.00 19.72
78.00 20.30
79.00 20.90
80.00 21.52
81.00 22.16
82.00 22.83
83.00 23.53
84.00 24.26
85.00 25.04
86.00 25.87
87.00 26.74
88.00 27.68
89.00 28.66
90.00 29.70
91.00 30.78
92.00 31.89
93.00 32.99
94.00 34.03
95.00 34.97
96.00 35.72
97.00 36.25
98.00 36.57
99.00 36.74
100.00 36.82
101.00 36.88
102.00 36.98
103.00 37.17
104.00 37.50
105.00 37.96
106.00 38.61
107.00 39.47
108.00 40.59
109.00 42.00
110.00 43.72
111.00 45.64
112.00 47.08
113.00 46.91
114.00 45.17
115.00 43.03
116.00 41.07
117.00 39.43
118.00 38.06
119.00 36.93
120.00 36.01
121.00 35.25
122.00 34.64
123.00 34.15
124.00 33.79
125.00 33.53
126.00 33.37
127.00 33.31
128.00 33.35
129.00 33.48
130.00 33.70
131.00 34.02
132.00 34.45
133.00 35.01
134.00 35.69
135.00 36.52
136.00 37.51
137.00 38.67
138.00 39.98
139.00 41.34
140.00 42.42
141.00 42.70
142.00 41.94
143.00 40.52
144.00 38.93
145.00 37.43
146.00 36.11
147.00 34.97
148.00 34.00
149.00 33.19
150.00 32.53
151.00 32.00
152.00 31.59
153.00 31.29
154.00 31.10
155.00 31.01
156.00 31.02
157.00 31.13
158.00 31.32
159.00 31.60
160.00 31.95
161.00 32.36
162.00 32.82
163.00 33.30
164.00 33.77
165.00 34.20
166.00 34.56
167.00 34.82
168.00 34.97
169.00 35.03
170.00 35.04
171.00 35.03
172.00 35.03
173.00 35.09
174.00 35.21
175.00 35.45
176.00 35.79
177.00 36.27
178.00 36.90
179.00 37.68
180.00 38.62
181.00 39.72
182.00 40.96
183.00 42.25
184.00 43.41
185.00 44.13
186.00 44.21
187.00 43.68
188.00 42.85
189.00 41.93
190.00 41.05
191.00 40.25
192.00 39.50
193.00 38.79
194.00 38.08
195.00 37.34
196.00 36.58
197.00 35.78
198.00 34.98
199.00 34.19
200.00 33.44
201.00 32.74
202.00 32.12
203.00 31.57
204.00 31.11
205.00 30.76
206.00 30.50
207.00 30.36
208.00 30.32
209.00 30.40
210.00 30.61
211.00 30.95
212.00 31.43
213.00 32.07
214.00 32.87
215.00 33.86
216.00 35.02
217.00 36.32
218.00 37.67
219.00 38.77
220.00 39.20
221.00 38.76
222.00 37.72
223.00 36.50
224.00 35.35
225.00 34.36
226.00 33.57
227.00 32.95
228.00 32.51
229.00 32.24
230.00 32.12
231.00 32.16
232.00 32.34
233.00 32.68
234.00 33.19
235.00 33.86
236.00 34.73
237.00 35.84
238.00 37.22
239.00 38.98
240.00 41.27
241.00 44.45
242.00 49.40
243.00 57.54
244.00 52.01
245.00 46.18
246.00 42.68
247.00 40.24
248.00 38.41
249.00 36.94
250.00 35.72
251.00 34.69
252.00 33.81
253.00 33.04
254.00 32.36
255.00 31.75
256.00 31.22
257.00 30.76
258.00 30.35
259.00 30.00
260.00 29.70
261.00 29.45
262.00 29.24
263.00 29.07
264.00 28.92
265.00 28.79
266.00 28.66
267.00 28.52
268.00 28.35
269.00 28.14
270.00 27.87
271.00 27.53
272.00 27.12
273.00 26.65
274.00 26.13
275.00 25.55
276.00 24.95
277.00 24.33
278.00 23.70
279.00 23.07
280.00 22.45
281.00 21.85
282.00 21.25
283.00 20.68
284.00 20.12
285.00 19.58
286.00 19.05
287.00 18.54
288.00 18.05
289.00 17.57
290.00 17.10
291.00 16.64
292.00 16.19
293.00 15.75
294.00 15.32
295.00 14.89
296.00 14.47
297.00 14.05
298.00 13.65
299.00 13.25
300.00 12.85
301.00 12.45
302.00 12.07
303.00 11.69
304.00 11.32
305.00 10.95
306.00 10.60
307.00 10.25
308.00 9.91
309.00 9.57
310.00 9.25
311.00 8.93
312.00 8.62
313.00 8.31
314.00 8.02
315.00 7.73
316.00 7.44
317.00 7.16
318.00 6.88
319.00 6.61
320.00 6.33
321.00 6.06
322.00 5.79
323.00 5.53
324.00 5.26
325.00 5.00
326.00 4.73
327.00 4.47
328.00 4.20
329.00 3.94
330.00 3.68
331.00 3.43
332.00 3.17
333.00 2.92
334.00 2.68
335.00 2.44
336.00 2.22
337.00 1.99
338.00 1.78
339.00 1.58
340.00 1.39
341.00 1.21
342.00 1.05
343.00 0.89
344.00 0.75
345.00 0.62
346.00 0.50
347.00 0.40
348.00 0.31
349.00 0.23
350.00 0.17
351.00 0.11
352.00 0.07
353.00 0.04
354.00 0.01
355.00 0.00
356.00 0.00
357.00 0.00
358.00 0.01
359.00 0.03
VERTICAL 360
0.00 29.42
1.00 31.46
2.00 24.67
3.00 17.34
4.00 11.52
5.00 7.13
6.00 3.93
7.00 1.72
8.00 0.41
9.00 0.00
10.00 0.56
11.00 2.31
12.00 5.78
13.00 12.76
14.00 27.48
15.00 13.75
16.00 10.70
17.00 11.00
18.00 13.74
19.00 18.33
20.00 19.21
21.00 16.63
22.00 15.92
23.00 17.39
24.00 20.75
25.00 21.60
26.00 18.14
27.00 16.41
28.00 17.28
29.00 21.56
30.00 31.83
31.00 25.08
32.00 19.83
33.00 17.85
34.00 17.53
35.00 18.80
36.00 22.33
37.00 29.92
38.00 30.90
39.00 24.85
40.00 23.02
41.00 23.57
42.00 26.48
43.00 34.57
44.00 40.63
45.00 29.83
46.00 27.89
47.00 29.89
48.00 36.47
49.00 37.43
50.00 31.35
51.00 27.93
52.00 25.21
53.00 23.50
54.00 23.27
55.00 24.75
56.00 28.13
57.00 32.88
58.00 34.02
59.00 31.08
60.00 28.50
61.00 26.87
62.00 26.22
63.00 26.41
64.00 27.22
65.00 28.35
66.00 29.53
67.00 30.67
68.00 31.82
69.00 32.96
70.00 33.87
71.00 34.09
72.00 33.46
73.00 32.29
74.00 30.98
75.00 29.85
76.00 29.03
77.00 28.39
78.00 27.58
79.00 26.73
80.00 26.34
81.00 26.66
82.00 27.57
83.00 28.64
84.00 28.57
85.00 27.10
86.00 25.65
87.00 25.24
88.00 25.80
89.00 26.71
90.00 27.39
91.00 27.53
92.00 27.27
93.00 27.43
94.00 28.21
95.00 28.72
96.00 28.04
97.00 26.83
98.00 26.31
99.00 27.15
100.00 29.53
101.00 32.95
102.00 34.67
103.00 33.34
104.00 32.80
105.00 34.90
106.00 40.33
107.00 46.16
108.00 47.84
109.00 48.92
110.00 45.78
111.00 43.50
112.00 40.98
113.00 39.81
114.00 40.74
115.00 42.39
116.00 42.19
117.00 39.99
118.00 38.62
119.00 38.91
120.00 39.58
121.00 40.41
122.00 41.23
123.00 38.76
124.00 36.69
125.00 36.56
126.00 36.77
127.00 37.36
128.00 40.94
129.00 52.82
130.00 48.69
131.00 45.32
132.00 46.32
133.00 45.94
134.00 42.32
135.00 37.99
136.00 35.23
137.00 34.16
138.00 34.28
139.00 35.06
140.00 36.51
141.00 39.61
142.00 48.08
143.00 53.18
144.00 42.81
145.00 41.04
146.00 43.09
147.00 49.08
148.00 47.10
149.00 41.27
150.00 37.84
151.00 35.32
152.00 33.88
153.00 34.08
154.00 36.48
155.00 42.07
156.00 46.56
157.00 41.80
158.00 40.35
159.00 43.01
160.00 54.08
161.00 41.15
162.00 34.70
163.00 32.30
164.00 32.50
165.00 35.18
166.00 40.33
167.00 42.04
168.00 38.00
169.00 35.67
170.00 35.12
171.00 35.79
172.00 37.09
173.00 38.80
174.00 41.38
175.00 45.11
176.00 50.21
177.00 54.07
178.00 51.74
179.00 50.57
180.00 51.00
181.00 45.89
182.00 40.25
183.00 37.72
184.00 37.98
185.00 39.59
186.00 38.76
187.00 37.55
188.00 38.66
189.00 39.68
190.00 38.18
191.00 37.80
192.00 37.49
193.00 35.44
194.00 34.66
195.00 36.41
196.00 40.17
197.00 44.32
198.00 47.15
199.00 46.31
200.00 43.50
201.00 38.78
202.00 36.09
203.00 36.80
204.00 40.36
205.00 40.83
206.00 39.18
207.00 40.18
208.00 44.09
209.00 53.37
210.00 42.73
211.00 37.88
212.00 37.63
213.00 40.64
214.00 46.25
215.00 47.73
216.00 40.71
217.00 36.49
218.00 34.65
219.00 34.20
220.00 34.17
221.00 33.71
222.00 33.02
223.00 32.93
224.00 33.53
225.00 34.21
226.00 34.70
227.00 35.22
228.00 35.69
229.00 35.75
230.00 35.37
231.00 34.91
232.00 34.85
233.00 35.56
234.00 36.54
235.00 35.96
236.00 33.84
237.00 31.72
238.00 30.11
239.00 29.20
240.00 29.01
241.00 29.40
242.00 30.19
243.00 31.39
244.00 33.38
245.00 36.89
246.00 41.56
247.00 41.92
248.00 40.80
249.00 41.60
250.00 42.94
251.00 42.83
252.00 40.87
253.00 39.71
254.00 40.63
255.00 41.78
256.00 40.34
257.00 38.88
258.00 38.40
259.00 38.03
260.00 37.33
261.00 36.99
262.00 37.94
263.00 40.24
264.00 42.24
265.00 42.26
266.00 39.62
267.00 36.04
268.00 34.04
269.00 34.10
270.00 36.39
271.00 42.15
272.00 56.57
273.00 41.96
274.00 36.81
275.00 34.75
276.00 34.38
277.00 35.68
278.00 39.82
279.00 44.55
280.00 38.44
281.00 35.96
282.00 36.53
283.00 36.57
284.00 34.87
285.00 34.73
286.00 37.28
287.00 41.89
288.00 42.25
289.00 39.65
290.00 36.48
291.00 32.09
292.00 27.92
293.00 24.51
294.00 21.74
295.00 19.41
296.00 17.41
297.00 15.72
298.00 14.36
299.00 13.37
300.00 12.71
301.00 12.37
302.00 12.39
303.00 12.83
304.00 13.79
305.00 15.32
306.00 17.48
307.00 20.29
308.00 23.55
309.00 25.07
310.00 22.19
311.00 19.55
312.00 18.43
313.00 18.81
314.00 20.87
315.00 24.83
316.00 27.51
317.00 24.70
318.00 22.84
319.00 23.42
320.00 27.29
321.00 37.06
322.00 27.99
323.00 22.04
324.00 19.53
325.00 19.05
326.00 20.72
327.00 26.30
328.00 35.99
329.00 23.13
330.00 18.76
331.00 17.22
332.00 17.50
333.00 19.59
334.00 22.93
335.00 21.10
336.00 16.44
337.00 13.44
338.00 12.02
339.00 11.94
340.00 13.09
341.00 15.36
342.00 18.49
343.00 21.75
344.00 23.94
345.00 23.97
346.00 22.00
347.00 20.08
348.00 19.32
349.00 20.13
350.00 23.00
351.00 26.94
352.00 23.75
353.00 19.79
354.00 18.58
355.00 19.79
356.00 22.99
357.00 25.21
358.00 24.65
359.00 25.61
