NAME ATR4518R7_2350_X_CO_P45_07T_yL
FREQUENCY 2350
GAIN 15.42 dBd
TILT	ELECTRICAL
COMMENT DATE 05.08.2013 +45 degrees polarized system Lever position 07T deg
HORIZONTAL 360
0.00 0.01
1.00 0.00
2.00 0.00
3.00 0.01
4.00 0.04
5.00 0.07
6.00 0.11
7.00 0.16
8.00 0.22
9.00 0.28
10.00 0.35
11.00 0.42
12.00 0.50
13.00 0.58
14.00 0.66
15.00 0.74
16.00 0.83
17.00 0.92
18.00 1.01
19.00 1.10
20.00 1.20
21.00 1.30
22.00 1.40
23.00 1.51
24.00 1.63
25.00 1.75
26.00 1.87
27.00 2.01
28.00 2.14
29.00 2.29
30.00 2.44
31.00 2.60
32.00 2.76
33.00 2.94
34.00 3.11
35.00 3.30
36.00 3.49
37.00 3.68
38.00 3.89
39.00 4.09
40.00 4.31
41.00 4.52
42.00 4.75
43.00 4.97
44.00 5.21
45.00 5.45
46.00 5.69
47.00 5.94
48.00 6.20
49.00 6.46
50.00 6.73
51.00 7.00
52.00 7.28
53.00 7.57
54.00 7.87
55.00 8.17
56.00 8.49
57.00 8.81
58.00 9.14
59.00 9.48
60.00 9.83
61.00 10.19
62.00 10.56
63.00 10.94
64.00 11.34
65.00 11.74
66.00 12.16
67.00 12.59
68.00 13.02
69.00 13.46
70.00 13.91
71.00 14.37
72.00 14.83
73.00 15.30
74.00 15.76
75.00 16.22
76.00 16.68
77.00 17.13
78.00 17.56
79.00 17.99
80.00 18.39
81.00 18.77
82.00 19.14
83.00 19.47
84.00 19.78
85.00 20.07
86.00 20.33
87.00 20.57
88.00 20.78
89.00 20.97
90.00 21.15
91.00 21.32
92.00 21.47
93.00 21.62
94.00 21.77
95.00 21.92
96.00 22.07
97.00 22.23
98.00 22.40
99.00 22.58
100.00 22.77
101.00 22.98
102.00 23.19
103.00 23.42
104.00 23.65
105.00 23.89
106.00 24.14
107.00 24.38
108.00 24.61
109.00 24.83
110.00 25.03
111.00 25.20
112.00 25.35
113.00 25.48
114.00 25.57
115.00 25.65
116.00 25.72
117.00 25.77
118.00 25.83
119.00 25.89
120.00 25.97
121.00 26.08
122.00 26.21
123.00 26.39
124.00 26.60
125.00 26.85
126.00 27.14
127.00 27.47
128.00 27.82
129.00 28.20
130.00 28.59
131.00 28.97
132.00 29.33
133.00 29.65
134.00 29.90
135.00 30.07
136.00 30.17
137.00 30.20
138.00 30.17
139.00 30.09
140.00 29.99
141.00 29.88
142.00 29.76
143.00 29.66
144.00 29.58
145.00 29.51
146.00 29.47
147.00 29.46
148.00 29.47
149.00 29.51
150.00 29.59
151.00 29.71
152.00 29.88
153.00 30.10
154.00 30.39
155.00 30.75
156.00 31.20
157.00 31.73
158.00 32.33
159.00 33.01
160.00 33.69
161.00 34.31
162.00 34.73
163.00 34.82
164.00 34.51
165.00 33.88
166.00 33.06
167.00 32.18
168.00 31.34
169.00 30.58
170.00 29.95
171.00 29.44
172.00 29.06
173.00 28.83
174.00 28.73
175.00 28.78
176.00 28.97
177.00 29.33
178.00 29.85
179.00 30.56
180.00 31.47
181.00 32.62
182.00 34.01
183.00 35.61
184.00 37.25
185.00 38.41
186.00 38.44
187.00 37.36
188.00 35.87
189.00 34.44
190.00 33.24
191.00 32.29
192.00 31.58
193.00 31.08
194.00 30.79
195.00 30.70
196.00 30.79
197.00 31.07
198.00 31.55
199.00 32.23
200.00 33.13
201.00 34.28
202.00 35.70
203.00 37.40
204.00 39.30
205.00 41.05
206.00 41.88
207.00 41.33
208.00 40.01
209.00 38.66
210.00 37.55
211.00 36.75
212.00 36.26
213.00 36.04
214.00 36.10
215.00 36.41
216.00 36.97
217.00 37.71
218.00 38.50
219.00 39.04
220.00 38.94
221.00 38.03
222.00 36.58
223.00 34.98
224.00 33.45
225.00 32.08
226.00 30.88
227.00 29.85
228.00 28.98
229.00 28.24
230.00 27.62
231.00 27.12
232.00 26.73
233.00 26.42
234.00 26.20
235.00 26.06
236.00 25.99
237.00 25.98
238.00 26.03
239.00 26.12
240.00 26.24
241.00 26.39
242.00 26.54
243.00 26.68
244.00 26.80
245.00 26.89
246.00 26.92
247.00 26.90
248.00 26.81
249.00 26.67
250.00 26.47
251.00 26.24
252.00 25.98
253.00 25.70
254.00 25.41
255.00 25.12
256.00 24.83
257.00 24.55
258.00 24.27
259.00 23.99
260.00 23.70
261.00 23.41
262.00 23.11
263.00 22.80
264.00 22.47
265.00 22.12
266.00 21.75
267.00 21.36
268.00 20.96
269.00 20.56
270.00 20.15
271.00 19.73
272.00 19.33
273.00 18.93
274.00 18.54
275.00 18.16
276.00 17.81
277.00 17.46
278.00 17.14
279.00 16.84
280.00 16.55
281.00 16.28
282.00 16.03
283.00 15.79
284.00 15.56
285.00 15.34
286.00 15.13
287.00 14.93
288.00 14.72
289.00 14.52
290.00 14.32
291.00 14.11
292.00 13.89
293.00 13.67
294.00 13.43
295.00 13.19
296.00 12.94
297.00 12.67
298.00 12.39
299.00 12.10
300.00 11.80
301.00 11.49
302.00 11.17
303.00 10.84
304.00 10.51
305.00 10.17
306.00 9.83
307.00 9.49
308.00 9.14
309.00 8.80
310.00 8.46
311.00 8.11
312.00 7.77
313.00 7.44
314.00 7.10
315.00 6.78
316.00 6.45
317.00 6.14
318.00 5.83
319.00 5.53
320.00 5.23
321.00 4.95
322.00 4.68
323.00 4.42
324.00 4.17
325.00 3.93
326.00 3.71
327.00 3.50
328.00 3.30
329.00 3.11
330.00 2.94
331.00 2.78
332.00 2.63
333.00 2.49
334.00 2.36
335.00 2.25
336.00 2.13
337.00 2.03
338.00 1.93
339.00 1.83
340.00 1.73
341.00 1.64
342.00 1.54
343.00 1.44
344.00 1.34
345.00 1.24
346.00 1.13
347.00 1.02
348.00 0.91
349.00 0.81
350.00 0.70
351.00 0.60
352.00 0.50
353.00 0.40
354.00 0.32
355.00 0.24
356.00 0.17
357.00 0.11
358.00 0.07
359.00 0.03
VERTICAL 360
0.00 26.20
1.00 25.85
2.00 15.90
3.00 9.12
4.00 4.76
5.00 1.98
6.00 0.44
7.00 0.00
8.00 0.66
9.00 2.57
10.00 6.20
11.00 13.23
12.00 33.51
13.00 14.91
14.00 12.20
15.00 13.01
16.00 16.60
17.00 20.85
18.00 18.09
19.00 15.77
20.00 15.94
21.00 18.67
22.00 24.54
23.00 22.17
24.00 17.24
25.00 15.50
26.00 16.20
27.00 19.62
28.00 28.63
29.00 30.14
30.00 22.51
31.00 20.35
32.00 20.32
33.00 21.58
34.00 22.60
35.00 20.97
36.00 18.43
37.00 16.74
38.00 16.01
39.00 16.06
40.00 16.72
41.00 17.86
42.00 19.31
43.00 20.90
44.00 22.95
45.00 26.59
46.00 34.11
47.00 32.41
48.00 26.67
49.00 24.39
50.00 23.58
51.00 23.23
52.00 23.22
53.00 24.07
54.00 26.54
55.00 32.11
56.00 42.07
57.00 32.42
58.00 28.60
59.00 27.35
60.00 27.26
61.00 27.67
62.00 28.32
63.00 29.10
64.00 29.92
65.00 30.68
66.00 31.44
67.00 32.31
68.00 33.28
69.00 34.00
70.00 34.43
71.00 34.99
72.00 35.86
73.00 36.68
74.00 37.08
75.00 37.27
76.00 37.82
77.00 39.18
78.00 41.55
79.00 44.62
80.00 46.65
81.00 45.06
82.00 41.59
83.00 38.59
84.00 36.56
85.00 35.38
86.00 34.88
87.00 35.07
88.00 36.08
89.00 37.96
90.00 40.31
91.00 42.08
92.00 42.11
93.00 40.66
94.00 39.17
95.00 38.28
96.00 37.91
97.00 37.93
98.00 38.35
99.00 39.05
100.00 39.83
101.00 40.54
102.00 40.71
103.00 40.27
104.00 40.05
105.00 40.66
106.00 42.29
107.00 45.16
108.00 49.02
109.00 51.77
110.00 51.83
111.00 49.15
112.00 47.13
113.00 48.36
114.00 54.65
115.00 51.49
116.00 45.70
117.00 42.68
118.00 40.76
119.00 40.33
120.00 42.35
121.00 49.00
122.00 56.04
123.00 46.24
124.00 43.18
125.00 41.76
126.00 41.30
127.00 42.35
128.00 45.97
129.00 55.71
130.00 50.61
131.00 44.68
132.00 42.99
133.00 44.23
134.00 49.45
135.00 49.79
136.00 42.56
137.00 39.23
138.00 37.95
139.00 37.69
140.00 37.45
141.00 36.62
142.00 35.48
143.00 34.61
144.00 34.46
145.00 35.31
146.00 37.33
147.00 40.57
148.00 44.88
149.00 49.88
150.00 54.18
151.00 50.25
152.00 43.73
153.00 38.97
154.00 35.91
155.00 34.36
156.00 34.15
157.00 35.18
158.00 37.36
159.00 40.49
160.00 43.50
161.00 44.47
162.00 45.38
163.00 47.77
164.00 43.70
165.00 38.49
166.00 35.88
167.00 35.37
168.00 36.90
169.00 41.42
170.00 54.55
171.00 41.13
172.00 35.55
173.00 33.28
174.00 33.10
175.00 34.68
176.00 36.94
177.00 36.47
178.00 34.38
179.00 33.37
180.00 33.67
181.00 34.90
182.00 36.46
183.00 37.90
184.00 39.56
185.00 41.67
186.00 40.54
187.00 35.95
188.00 32.50
189.00 30.86
190.00 31.02
191.00 33.23
192.00 38.07
193.00 41.52
194.00 37.04
195.00 34.13
196.00 32.95
197.00 33.34
198.00 35.66
199.00 39.05
200.00 37.28
201.00 34.22
202.00 33.09
203.00 33.54
204.00 35.34
205.00 38.86
206.00 45.30
207.00 47.64
208.00 43.17
209.00 42.16
210.00 43.49
211.00 46.29
212.00 50.40
213.00 56.27
214.00 52.26
215.00 45.99
216.00 41.77
217.00 38.87
218.00 36.99
219.00 35.83
220.00 34.95
221.00 33.99
222.00 32.97
223.00 32.17
224.00 31.88
225.00 32.14
226.00 32.53
227.00 32.43
228.00 31.89
229.00 31.49
230.00 31.43
231.00 31.47
232.00 31.32
233.00 30.99
234.00 30.81
235.00 31.10
236.00 32.00
237.00 33.41
238.00 35.13
239.00 37.09
240.00 39.61
241.00 43.40
242.00 49.07
243.00 49.64
244.00 44.84
245.00 40.93
246.00 37.89
247.00 35.81
248.00 34.68
249.00 34.23
250.00 34.18
251.00 34.38
252.00 34.87
253.00 35.89
254.00 37.64
255.00 39.82
256.00 41.20
257.00 41.13
258.00 41.05
259.00 42.49
260.00 47.01
261.00 62.25
262.00 51.88
263.00 47.39
264.00 45.32
265.00 43.85
266.00 43.57
267.00 43.95
268.00 42.67
269.00 39.52
270.00 36.32
271.00 34.08
272.00 33.13
273.00 33.52
274.00 35.03
275.00 37.02
276.00 37.59
277.00 35.46
278.00 32.85
279.00 30.92
280.00 29.63
281.00 28.79
282.00 28.29
283.00 27.88
284.00 27.25
285.00 26.14
286.00 24.61
287.00 22.94
288.00 21.43
289.00 20.15
290.00 19.02
291.00 17.93
292.00 16.82
293.00 15.70
294.00 14.68
295.00 13.78
296.00 13.02
297.00 12.39
298.00 11.94
299.00 11.78
300.00 12.09
301.00 13.04
302.00 14.83
303.00 17.82
304.00 22.92
305.00 35.49
306.00 29.67
307.00 22.82
308.00 19.86
309.00 18.46
310.00 18.15
311.00 18.99
312.00 21.42
313.00 26.68
314.00 30.43
315.00 23.73
316.00 20.50
317.00 19.74
318.00 20.91
319.00 23.77
320.00 25.42
321.00 22.18
322.00 19.06
323.00 17.46
324.00 17.44
325.00 19.49
326.00 26.02
327.00 31.97
328.00 20.19
329.00 16.46
330.00 15.52
331.00 16.77
332.00 20.86
333.00 32.44
334.00 25.98
335.00 20.56
336.00 19.51
337.00 21.09
338.00 23.67
339.00 22.31
340.00 20.14
341.00 20.38
342.00 24.19
343.00 33.43
344.00 23.11
345.00 18.36
346.00 16.91
347.00 18.01
348.00 22.83
349.00 36.46
350.00 21.82
351.00 17.65
352.00 16.78
353.00 18.04
354.00 20.91
355.00 23.93
356.00 25.60
357.00 28.74
358.00 33.23
359.00 27.51
