NAME ATR4518R7_2535_X_CO_M45_02T_yyR
FREQUENCY 2535
GAIN 15.90 dBd
TILT	ELECTRICAL
COMMENT DATE 05.08.2013 -45 degrees polarized system Lever position 02T deg
HORIZONTAL 360
0.00 0.01
1.00 0.01
2.00 0.02
3.00 0.04
4.00 0.07
5.00 0.11
6.00 0.16
7.00 0.22
8.00 0.30
9.00 0.38
10.00 0.48
11.00 0.59
12.00 0.71
13.00 0.84
14.00 0.98
15.00 1.12
16.00 1.28
17.00 1.44
18.00 1.60
19.00 1.77
20.00 1.94
21.00 2.11
22.00 2.29
23.00 2.46
24.00 2.64
25.00 2.82
26.00 3.00
27.00 3.19
28.00 3.38
29.00 3.58
30.00 3.79
31.00 4.01
32.00 4.23
33.00 4.47
34.00 4.72
35.00 4.99
36.00 5.28
37.00 5.58
38.00 5.91
39.00 6.25
40.00 6.61
41.00 7.00
42.00 7.40
43.00 7.83
44.00 8.28
45.00 8.75
46.00 9.25
47.00 9.77
48.00 10.30
49.00 10.87
50.00 11.46
51.00 12.06
52.00 12.70
53.00 13.36
54.00 14.04
55.00 14.76
56.00 15.50
57.00 16.27
58.00 17.08
59.00 17.92
60.00 18.79
61.00 19.70
62.00 20.64
63.00 21.61
64.00 22.60
65.00 23.60
66.00 24.58
67.00 25.53
68.00 26.39
69.00 27.14
70.00 27.73
71.00 28.17
72.00 28.45
73.00 28.61
74.00 28.68
75.00 28.71
76.00 28.74
77.00 28.78
78.00 28.85
79.00 28.97
80.00 29.14
81.00 29.35
82.00 29.61
83.00 29.91
84.00 30.22
85.00 30.55
86.00 30.86
87.00 31.13
88.00 31.34
89.00 31.49
90.00 31.55
91.00 31.54
92.00 31.48
93.00 31.37
94.00 31.24
95.00 31.12
96.00 31.02
97.00 30.96
98.00 30.95
99.00 30.99
100.00 31.08
101.00 31.23
102.00 31.42
103.00 31.66
104.00 31.92
105.00 32.20
106.00 32.47
107.00 32.70
108.00 32.89
109.00 33.03
110.00 33.10
111.00 33.13
112.00 33.14
113.00 33.15
114.00 33.18
115.00 33.27
116.00 33.43
117.00 33.70
118.00 34.09
119.00 34.63
120.00 35.33
121.00 36.20
122.00 37.25
123.00 38.44
124.00 39.62
125.00 40.45
126.00 40.54
127.00 39.80
128.00 38.55
129.00 37.21
130.00 35.98
131.00 34.93
132.00 34.08
133.00 33.42
134.00 32.95
135.00 32.66
136.00 32.54
137.00 32.60
138.00 32.84
139.00 33.27
140.00 33.90
141.00 34.77
142.00 35.91
143.00 37.40
144.00 39.29
145.00 41.70
146.00 44.45
147.00 46.21
148.00 45.01
149.00 42.47
150.00 40.20
151.00 38.44
152.00 37.11
153.00 36.12
154.00 35.40
155.00 34.90
156.00 34.59
157.00 34.42
158.00 34.36
159.00 34.37
160.00 34.39
161.00 34.38
162.00 34.28
163.00 34.07
164.00 33.73
165.00 33.30
166.00 32.81
167.00 32.31
168.00 31.83
169.00 31.42
170.00 31.08
171.00 30.85
172.00 30.72
173.00 30.70
174.00 30.80
175.00 31.04
176.00 31.40
177.00 31.91
178.00 32.56
179.00 33.36
180.00 34.32
181.00 35.42
182.00 36.64
183.00 37.89
184.00 39.03
185.00 39.83
186.00 40.14
187.00 40.01
188.00 39.64
189.00 39.27
190.00 39.02
191.00 38.98
192.00 39.22
193.00 39.79
194.00 40.76
195.00 42.22
196.00 44.39
197.00 47.41
198.00 50.16
199.00 48.33
200.00 44.43
201.00 41.27
202.00 38.85
203.00 36.99
204.00 35.53
205.00 34.37
206.00 33.45
207.00 32.75
208.00 32.22
209.00 31.85
210.00 31.61
211.00 31.50
212.00 31.48
213.00 31.55
214.00 31.66
215.00 31.80
216.00 31.92
217.00 31.98
218.00 31.94
219.00 31.79
220.00 31.51
221.00 31.15
222.00 30.72
223.00 30.26
224.00 29.81
225.00 29.40
226.00 29.03
227.00 28.73
228.00 28.50
229.00 28.34
230.00 28.26
231.00 28.25
232.00 28.31
233.00 28.44
234.00 28.64
235.00 28.90
236.00 29.23
237.00 29.60
238.00 30.01
239.00 30.45
240.00 30.92
241.00 31.40
242.00 31.87
243.00 32.34
244.00 32.79
245.00 33.23
246.00 33.67
247.00 34.10
248.00 34.57
249.00 35.07
250.00 35.65
251.00 36.32
252.00 37.12
253.00 38.10
254.00 39.29
255.00 40.78
256.00 42.70
257.00 45.21
258.00 48.51
259.00 51.72
260.00 50.56
261.00 46.79
262.00 43.67
263.00 41.26
264.00 39.35
265.00 37.79
266.00 36.50
267.00 35.38
268.00 34.41
269.00 33.55
270.00 32.77
271.00 32.04
272.00 31.36
273.00 30.71
274.00 30.07
275.00 29.44
276.00 28.81
277.00 28.17
278.00 27.52
279.00 26.87
280.00 26.20
281.00 25.53
282.00 24.86
283.00 24.18
284.00 23.50
285.00 22.83
286.00 22.16
287.00 21.50
288.00 20.85
289.00 20.21
290.00 19.57
291.00 18.96
292.00 18.35
293.00 17.76
294.00 17.18
295.00 16.62
296.00 16.06
297.00 15.52
298.00 15.00
299.00 14.48
300.00 13.98
301.00 13.49
302.00 13.01
303.00 12.53
304.00 12.07
305.00 11.62
306.00 11.17
307.00 10.73
308.00 10.30
309.00 9.88
310.00 9.46
311.00 9.04
312.00 8.64
313.00 8.24
314.00 7.84
315.00 7.46
316.00 7.08
317.00 6.70
318.00 6.34
319.00 5.98
320.00 5.63
321.00 5.29
322.00 4.96
323.00 4.64
324.00 4.33
325.00 4.03
326.00 3.74
327.00 3.47
328.00 3.20
329.00 2.95
330.00 2.72
331.00 2.49
332.00 2.29
333.00 2.09
334.00 1.90
335.00 1.73
336.00 1.58
337.00 1.43
338.00 1.30
339.00 1.17
340.00 1.06
341.00 0.96
342.00 0.86
343.00 0.78
344.00 0.70
345.00 0.62
346.00 0.56
347.00 0.49
348.00 0.43
349.00 0.38
350.00 0.33
351.00 0.28
352.00 0.23
353.00 0.19
354.00 0.14
355.00 0.11
356.00 0.08
357.00 0.05
358.00 0.03
359.00 0.01
VERTICAL 360
0.00 2.56
1.00 0.69
2.00 0.00
3.00 0.51
4.00 2.42
5.00 6.38
6.00 15.30
7.00 25.17
8.00 12.91
9.00 11.35
10.00 13.18
11.00 16.90
12.00 16.77
13.00 14.27
14.00 14.19
15.00 17.18
16.00 22.86
17.00 20.65
18.00 16.76
19.00 16.14
20.00 18.59
21.00 24.37
22.00 21.46
23.00 16.15
24.00 14.17
25.00 14.23
26.00 15.58
27.00 17.46
28.00 18.97
29.00 19.61
30.00 19.05
31.00 17.44
32.00 15.86
33.00 15.20
34.00 15.88
35.00 18.33
36.00 23.90
37.00 35.53
38.00 26.31
39.00 21.48
40.00 20.39
41.00 21.81
42.00 26.63
43.00 39.09
44.00 29.53
45.00 24.21
46.00 22.63
47.00 23.12
48.00 26.07
49.00 35.04
50.00 35.25
51.00 26.54
52.00 23.67
53.00 23.04
54.00 24.00
55.00 26.85
56.00 34.02
57.00 41.05
58.00 30.54
59.00 28.16
60.00 29.21
61.00 33.36
62.00 41.86
63.00 39.67
64.00 33.49
65.00 30.32
66.00 28.31
67.00 26.92
68.00 25.95
69.00 25.44
70.00 25.44
71.00 25.85
72.00 26.43
73.00 26.94
74.00 27.24
75.00 27.58
76.00 28.37
77.00 29.83
78.00 32.35
79.00 36.88
80.00 45.53
81.00 61.06
82.00 41.31
83.00 35.20
84.00 31.66
85.00 29.10
86.00 27.91
87.00 28.91
88.00 31.67
89.00 33.14
90.00 33.39
91.00 30.47
92.00 26.32
93.00 25.21
94.00 27.86
95.00 37.19
96.00 47.35
97.00 39.03
98.00 41.14
99.00 41.11
100.00 41.79
101.00 41.77
102.00 41.69
103.00 42.60
104.00 38.65
105.00 37.39
106.00 40.53
107.00 45.36
108.00 47.42
109.00 45.15
110.00 40.46
111.00 39.28
112.00 39.80
113.00 40.46
114.00 41.75
115.00 42.74
116.00 44.43
117.00 44.55
118.00 39.25
119.00 37.01
120.00 38.09
121.00 41.40
122.00 44.19
123.00 43.85
124.00 42.85
125.00 43.83
126.00 48.26
127.00 56.41
128.00 50.93
129.00 47.33
130.00 49.67
131.00 53.12
132.00 44.55
133.00 40.63
134.00 39.64
135.00 40.08
136.00 41.14
137.00 42.78
138.00 45.05
139.00 46.87
140.00 47.36
141.00 46.74
142.00 45.90
143.00 46.25
144.00 47.49
145.00 49.23
146.00 53.13
147.00 45.90
148.00 38.59
149.00 34.88
150.00 33.57
151.00 34.43
152.00 37.13
153.00 39.41
154.00 40.17
155.00 43.41
156.00 58.43
157.00 53.85
158.00 51.31
159.00 55.89
160.00 47.40
161.00 42.30
162.00 41.07
163.00 42.56
164.00 43.85
165.00 42.63
166.00 42.16
167.00 41.16
168.00 39.14
169.00 38.20
170.00 37.89
171.00 37.91
172.00 39.91
173.00 43.57
174.00 41.53
175.00 39.06
176.00 37.92
177.00 35.95
178.00 34.86
179.00 36.23
180.00 41.47
181.00 50.09
182.00 52.47
183.00 61.07
184.00 49.37
185.00 44.47
186.00 39.16
187.00 35.99
188.00 36.45
189.00 39.22
190.00 37.24
191.00 34.69
192.00 35.46
193.00 39.57
194.00 46.99
195.00 58.94
196.00 48.22
197.00 39.55
198.00 36.07
199.00 35.37
200.00 36.32
201.00 37.45
202.00 38.16
203.00 38.67
204.00 36.82
205.00 33.34
206.00 31.22
207.00 31.01
208.00 32.32
209.00 34.08
210.00 34.84
211.00 34.57
212.00 34.40
213.00 34.34
214.00 33.70
215.00 33.47
216.00 34.27
217.00 34.68
218.00 34.65
219.00 35.93
220.00 38.04
221.00 38.22
222.00 36.45
223.00 35.16
224.00 35.81
225.00 38.42
226.00 40.60
227.00 41.77
228.00 45.12
229.00 47.78
230.00 46.23
231.00 47.75
232.00 52.27
233.00 47.31
234.00 45.60
235.00 51.59
236.00 44.85
237.00 38.36
238.00 36.50
239.00 37.06
240.00 38.93
241.00 40.28
242.00 38.97
243.00 36.02
244.00 33.62
245.00 32.66
246.00 33.06
247.00 34.16
248.00 35.25
249.00 35.88
250.00 35.62
251.00 35.08
252.00 34.84
253.00 34.50
254.00 33.84
255.00 33.20
256.00 32.73
257.00 32.28
258.00 31.85
259.00 31.65
260.00 31.73
261.00 31.89
262.00 32.00
263.00 32.63
264.00 34.98
265.00 41.35
266.00 44.87
267.00 35.14
268.00 31.00
269.00 29.82
270.00 30.97
271.00 33.97
272.00 36.69
273.00 33.87
274.00 29.62
275.00 27.37
276.00 26.87
277.00 27.53
278.00 28.86
279.00 30.25
280.00 30.79
281.00 30.63
282.00 30.49
283.00 30.65
284.00 31.57
285.00 33.92
286.00 37.32
287.00 37.01
288.00 32.47
289.00 28.48
290.00 25.60
291.00 23.64
292.00 22.30
293.00 21.26
294.00 20.32
295.00 19.48
296.00 18.94
297.00 18.97
298.00 19.81
299.00 21.69
300.00 24.86
301.00 29.75
302.00 34.90
303.00 31.82
304.00 27.02
305.00 23.96
306.00 22.20
307.00 21.52
308.00 21.68
309.00 22.46
310.00 23.88
311.00 26.16
312.00 27.89
313.00 25.90
314.00 23.54
315.00 23.37
316.00 25.78
317.00 27.73
318.00 23.96
319.00 20.72
320.00 19.59
321.00 20.32
322.00 23.08
323.00 28.14
324.00 28.81
325.00 23.78
326.00 20.70
327.00 19.44
328.00 19.91
329.00 22.60
330.00 29.22
331.00 43.32
332.00 35.83
333.00 33.61
334.00 29.66
335.00 25.25
336.00 22.46
337.00 21.14
338.00 21.55
339.00 24.57
340.00 29.60
341.00 25.78
342.00 21.79
343.00 21.13
344.00 23.57
345.00 32.89
346.00 32.92
347.00 23.98
348.00 22.13
349.00 24.01
350.00 31.29
351.00 31.77
352.00 24.01
353.00 20.89
354.00 19.70
355.00 20.04
356.00 21.19
357.00 17.23
358.00 10.59
359.00 5.75
