NAME ATR4518R7_0947_X_CO_P45_03T
FREQUENCY 0947
GAIN 14.86 dBd
TILT	ELECTRICAL
COMMENT DATE 05.08.2013 +45 degrees polarized system Lever position 03T deg
HORIZONTAL 360
0.00 0.02
1.00 0.00
2.00 0.00
3.00 0.00
4.00 0.00
5.00 0.02
6.00 0.04
7.00 0.06
8.00 0.10
9.00 0.14
10.00 0.18
11.00 0.24
12.00 0.30
13.00 0.36
14.00 0.43
15.00 0.51
16.00 0.60
17.00 0.69
18.00 0.79
19.00 0.90
20.00 1.01
21.00 1.13
22.00 1.25
23.00 1.38
24.00 1.52
25.00 1.66
26.00 1.82
27.00 1.97
28.00 2.13
29.00 2.30
30.00 2.48
31.00 2.66
32.00 2.85
33.00 3.04
34.00 3.24
35.00 3.45
36.00 3.66
37.00 3.88
38.00 4.10
39.00 4.33
40.00 4.56
41.00 4.80
42.00 5.05
43.00 5.30
44.00 5.56
45.00 5.82
46.00 6.09
47.00 6.37
48.00 6.65
49.00 6.93
50.00 7.22
51.00 7.52
52.00 7.82
53.00 8.13
54.00 8.44
55.00 8.75
56.00 9.08
57.00 9.41
58.00 9.74
59.00 10.08
60.00 10.42
61.00 10.77
62.00 11.13
63.00 11.49
64.00 11.86
65.00 12.23
66.00 12.61
67.00 13.00
68.00 13.39
69.00 13.79
70.00 14.19
71.00 14.60
72.00 15.02
73.00 15.45
74.00 15.88
75.00 16.32
76.00 16.77
77.00 17.22
78.00 17.69
79.00 18.16
80.00 18.64
81.00 19.13
82.00 19.63
83.00 20.13
84.00 20.65
85.00 21.17
86.00 21.71
87.00 22.25
88.00 22.81
89.00 23.37
90.00 23.95
91.00 24.53
92.00 25.13
93.00 25.73
94.00 26.34
95.00 26.97
96.00 27.60
97.00 28.25
98.00 28.90
99.00 29.55
100.00 30.21
101.00 30.87
102.00 31.53
103.00 32.18
104.00 32.83
105.00 33.45
106.00 34.04
107.00 34.58
108.00 35.08
109.00 35.52
110.00 35.87
111.00 36.15
112.00 36.33
113.00 36.42
114.00 36.43
115.00 36.37
116.00 36.25
117.00 36.07
118.00 35.87
119.00 35.63
120.00 35.38
121.00 35.12
122.00 34.86
123.00 34.60
124.00 34.35
125.00 34.11
126.00 33.88
127.00 33.66
128.00 33.46
129.00 33.28
130.00 33.12
131.00 32.97
132.00 32.84
133.00 32.72
134.00 32.63
135.00 32.55
136.00 32.50
137.00 32.47
138.00 32.45
139.00 32.45
140.00 32.48
141.00 32.53
142.00 32.60
143.00 32.70
144.00 32.82
145.00 32.96
146.00 33.13
147.00 33.33
148.00 33.56
149.00 33.81
150.00 34.10
151.00 34.42
152.00 34.79
153.00 35.18
154.00 35.62
155.00 36.11
156.00 36.65
157.00 37.25
158.00 37.90
159.00 38.64
160.00 39.45
161.00 40.36
162.00 41.39
163.00 42.57
164.00 43.93
165.00 45.52
166.00 47.43
167.00 49.84
168.00 53.00
169.00 57.43
170.00 62.27
171.00 59.22
172.00 54.69
173.00 51.60
174.00 49.40
175.00 47.72
176.00 46.42
177.00 45.37
178.00 44.53
179.00 43.86
180.00 43.31
181.00 42.87
182.00 42.54
183.00 42.29
184.00 42.12
185.00 42.01
186.00 41.97
187.00 41.98
188.00 42.02
189.00 42.10
190.00 42.19
191.00 42.28
192.00 42.35
193.00 42.36
194.00 42.30
195.00 42.15
196.00 41.91
197.00 41.55
198.00 41.11
199.00 40.59
200.00 40.02
201.00 39.41
202.00 38.79
203.00 38.17
204.00 37.57
205.00 36.99
206.00 36.43
207.00 35.91
208.00 35.42
209.00 34.97
210.00 34.55
211.00 34.16
212.00 33.81
213.00 33.49
214.00 33.21
215.00 32.96
216.00 32.75
217.00 32.56
218.00 32.42
219.00 32.30
220.00 32.22
221.00 32.16
222.00 32.15
223.00 32.16
224.00 32.21
225.00 32.29
226.00 32.40
227.00 32.54
228.00 32.73
229.00 32.94
230.00 33.19
231.00 33.48
232.00 33.80
233.00 34.15
234.00 34.53
235.00 34.95
236.00 35.39
237.00 35.85
238.00 36.32
239.00 36.79
240.00 37.22
241.00 37.62
242.00 37.93
243.00 38.13
244.00 38.20
245.00 38.14
246.00 37.94
247.00 37.62
248.00 37.21
249.00 36.73
250.00 36.21
251.00 35.67
252.00 35.12
253.00 34.57
254.00 34.03
255.00 33.51
256.00 32.99
257.00 32.48
258.00 31.99
259.00 31.50
260.00 31.02
261.00 30.54
262.00 30.06
263.00 29.57
264.00 29.09
265.00 28.60
266.00 28.10
267.00 27.60
268.00 27.09
269.00 26.58
270.00 26.06
271.00 25.54
272.00 25.01
273.00 24.48
274.00 23.96
275.00 23.43
276.00 22.91
277.00 22.38
278.00 21.87
279.00 21.35
280.00 20.85
281.00 20.35
282.00 19.85
283.00 19.36
284.00 18.88
285.00 18.41
286.00 17.94
287.00 17.48
288.00 17.03
289.00 16.59
290.00 16.15
291.00 15.72
292.00 15.30
293.00 14.88
294.00 14.48
295.00 14.07
296.00 13.67
297.00 13.29
298.00 12.90
299.00 12.52
300.00 12.15
301.00 11.79
302.00 11.42
303.00 11.07
304.00 10.72
305.00 10.37
306.00 10.03
307.00 9.70
308.00 9.37
309.00 9.04
310.00 8.72
311.00 8.41
312.00 8.10
313.00 7.80
314.00 7.50
315.00 7.20
316.00 6.91
317.00 6.63
318.00 6.35
319.00 6.08
320.00 5.81
321.00 5.55
322.00 5.29
323.00 5.04
324.00 4.79
325.00 4.55
326.00 4.32
327.00 4.09
328.00 3.87
329.00 3.65
330.00 3.44
331.00 3.23
332.00 3.03
333.00 2.84
334.00 2.65
335.00 2.47
336.00 2.30
337.00 2.13
338.00 1.96
339.00 1.81
340.00 1.66
341.00 1.51
342.00 1.38
343.00 1.25
344.00 1.12
345.00 1.00
346.00 0.89
347.00 0.79
348.00 0.69
349.00 0.60
350.00 0.51
351.00 0.43
352.00 0.36
353.00 0.29
354.00 0.23
355.00 0.18
356.00 0.14
357.00 0.10
358.00 0.06
359.00 0.04
VERTICAL 360
0.00 1.57
1.00 0.64
2.00 0.13
3.00 0.00
4.00 0.25
5.00 0.91
6.00 2.02
7.00 3.64
8.00 5.87
9.00 8.84
10.00 12.79
11.00 18.10
12.00 23.88
13.00 23.90
14.00 22.47
15.00 23.22
16.00 26.97
17.00 40.29
18.00 31.03
19.00 24.29
20.00 21.43
21.00 20.25
22.00 20.28
23.00 21.60
24.00 24.82
25.00 32.32
26.00 36.12
27.00 27.32
28.00 24.39
29.00 23.71
30.00 24.33
31.00 25.59
32.00 26.35
33.00 25.05
34.00 22.15
35.00 19.27
36.00 17.07
37.00 15.60
38.00 14.75
39.00 14.41
40.00 14.46
41.00 14.83
42.00 15.49
43.00 16.43
44.00 17.68
45.00 19.30
46.00 21.41
47.00 24.23
48.00 28.13
49.00 33.32
50.00 38.21
51.00 39.95
52.00 41.51
53.00 40.97
54.00 36.95
55.00 34.26
56.00 33.60
57.00 34.67
58.00 36.61
59.00 37.47
60.00 36.28
61.00 35.27
62.00 36.16
63.00 39.52
64.00 43.18
65.00 40.06
66.00 35.10
67.00 32.25
68.00 32.18
69.00 35.32
70.00 40.32
71.00 38.43
72.00 36.38
73.00 35.95
74.00 37.87
75.00 47.14
76.00 40.64
77.00 34.00
78.00 31.17
79.00 29.96
80.00 30.48
81.00 31.82
82.00 30.07
83.00 27.28
84.00 25.68
85.00 25.50
86.00 26.92
87.00 30.26
88.00 32.81
89.00 29.62
90.00 26.97
91.00 25.70
92.00 25.70
93.00 27.42
94.00 31.64
95.00 40.02
96.00 41.12
97.00 35.54
98.00 34.26
99.00 36.74
100.00 40.93
101.00 35.83
102.00 33.14
103.00 32.92
104.00 34.11
105.00 37.27
106.00 38.91
107.00 34.76
108.00 33.17
109.00 34.30
110.00 37.23
111.00 40.27
112.00 38.14
113.00 35.07
114.00 34.87
115.00 38.00
116.00 45.73
117.00 46.41
118.00 39.48
119.00 36.99
120.00 38.24
121.00 42.61
122.00 38.92
123.00 34.89
124.00 33.28
125.00 33.00
126.00 33.65
127.00 34.48
128.00 34.33
129.00 33.99
130.00 34.75
131.00 37.35
132.00 43.87
133.00 51.67
134.00 40.61
135.00 37.32
136.00 35.79
137.00 34.26
138.00 32.60
139.00 31.41
140.00 31.16
141.00 32.11
142.00 34.22
143.00 37.08
144.00 39.77
145.00 41.53
146.00 43.40
147.00 46.42
148.00 46.75
149.00 44.42
150.00 42.82
151.00 41.87
152.00 42.39
153.00 45.20
154.00 47.33
155.00 43.92
156.00 41.12
157.00 40.32
158.00 40.79
159.00 39.36
160.00 36.29
161.00 34.37
162.00 33.78
163.00 33.86
164.00 34.00
165.00 34.07
166.00 34.55
167.00 36.05
168.00 38.73
169.00 41.68
170.00 43.16
171.00 43.22
172.00 41.96
173.00 39.78
174.00 38.39
175.00 37.59
176.00 38.45
177.00 42.41
178.00 43.36
179.00 38.96
180.00 36.41
181.00 35.65
182.00 36.52
183.00 37.16
184.00 38.18
185.00 38.21
186.00 37.41
187.00 37.66
188.00 40.05
189.00 45.29
190.00 52.62
191.00 46.40
192.00 41.09
193.00 37.98
194.00 35.98
195.00 34.76
196.00 34.43
197.00 34.88
198.00 36.09
199.00 38.91
200.00 46.38
201.00 49.09
202.00 40.33
203.00 37.41
204.00 36.27
205.00 35.54
206.00 34.83
207.00 34.77
208.00 36.15
209.00 38.53
210.00 37.90
211.00 35.25
212.00 33.75
213.00 33.38
214.00 33.36
215.00 32.94
216.00 32.36
217.00 32.30
218.00 32.92
219.00 33.84
220.00 34.61
221.00 35.29
222.00 36.36
223.00 38.18
224.00 40.85
225.00 44.60
226.00 48.73
227.00 46.34
228.00 42.22
229.00 39.82
230.00 39.09
231.00 39.77
232.00 40.78
233.00 40.27
234.00 37.85
235.00 35.33
236.00 34.25
237.00 35.19
238.00 38.30
239.00 42.75
240.00 44.44
241.00 41.83
242.00 39.73
243.00 40.31
244.00 45.08
245.00 59.65
246.00 44.61
247.00 40.32
248.00 39.14
249.00 38.35
250.00 35.16
251.00 32.05
252.00 30.60
253.00 30.74
254.00 32.04
255.00 32.87
256.00 31.41
257.00 29.52
258.00 28.68
259.00 29.06
260.00 30.38
261.00 31.54
262.00 31.12
263.00 30.12
264.00 30.03
265.00 31.26
266.00 33.19
267.00 33.00
268.00 30.96
269.00 29.78
270.00 29.86
271.00 30.88
272.00 32.05
273.00 31.57
274.00 30.02
275.00 29.55
276.00 30.76
277.00 33.41
278.00 36.74
279.00 36.21
280.00 32.53
281.00 30.70
282.00 30.95
283.00 32.63
284.00 34.99
285.00 36.20
286.00 33.84
287.00 31.33
288.00 30.11
289.00 29.87
290.00 30.68
291.00 32.65
292.00 33.48
293.00 31.32
294.00 29.45
295.00 28.92
296.00 29.94
297.00 32.89
298.00 37.26
299.00 37.36
300.00 35.83
301.00 36.67
302.00 41.38
303.00 54.67
304.00 37.87
305.00 32.95
306.00 30.73
307.00 29.65
308.00 29.19
309.00 29.37
310.00 30.56
311.00 33.00
312.00 34.57
313.00 32.35
314.00 29.86
315.00 27.61
316.00 24.85
317.00 22.05
318.00 19.85
319.00 18.49
320.00 17.99
321.00 18.20
322.00 18.77
323.00 19.24
324.00 19.50
325.00 19.95
326.00 21.10
327.00 23.26
328.00 26.41
329.00 29.73
330.00 31.67
331.00 32.38
332.00 33.12
333.00 34.46
334.00 36.82
335.00 40.92
336.00 44.02
337.00 39.09
338.00 33.11
339.00 28.04
340.00 24.32
341.00 21.88
342.00 20.53
343.00 20.07
344.00 20.38
345.00 21.42
346.00 23.37
347.00 26.77
348.00 30.93
349.00 27.88
350.00 23.85
351.00 22.01
352.00 22.03
353.00 23.10
354.00 20.90
355.00 15.58
356.00 11.02
357.00 7.54
358.00 4.92
359.00 2.97
