NAME ATR4518R7_1850_X_CO_P45_10T_yyR
FREQUENCY 1850
GAIN 14.96 dBd
TILT	ELECTRICAL
COMMENT DATE 05.08.2013 +45 degrees polarized system Lever position 10T deg
HORIZONTAL 360
0.00 0.01
1.00 0.00
2.00 0.00
3.00 0.00
4.00 0.01
5.00 0.03
6.00 0.06
7.00 0.10
8.00 0.15
9.00 0.20
10.00 0.27
11.00 0.34
12.00 0.43
13.00 0.52
14.00 0.62
15.00 0.74
16.00 0.86
17.00 1.00
18.00 1.14
19.00 1.30
20.00 1.46
21.00 1.64
22.00 1.82
23.00 2.01
24.00 2.21
25.00 2.42
26.00 2.63
27.00 2.85
28.00 3.08
29.00 3.31
30.00 3.54
31.00 3.78
32.00 4.02
33.00 4.26
34.00 4.51
35.00 4.75
36.00 4.99
37.00 5.23
38.00 5.46
39.00 5.70
40.00 5.93
41.00 6.16
42.00 6.39
43.00 6.62
44.00 6.84
45.00 7.06
46.00 7.28
47.00 7.51
48.00 7.73
49.00 7.95
50.00 8.17
51.00 8.40
52.00 8.63
53.00 8.86
54.00 9.09
55.00 9.33
56.00 9.58
57.00 9.82
58.00 10.07
59.00 10.33
60.00 10.59
61.00 10.85
62.00 11.12
63.00 11.39
64.00 11.67
65.00 11.95
66.00 12.24
67.00 12.53
68.00 12.83
69.00 13.13
70.00 13.44
71.00 13.75
72.00 14.07
73.00 14.40
74.00 14.74
75.00 15.08
76.00 15.44
77.00 15.80
78.00 16.17
79.00 16.56
80.00 16.95
81.00 17.36
82.00 17.78
83.00 18.20
84.00 18.64
85.00 19.09
86.00 19.55
87.00 20.01
88.00 20.48
89.00 20.96
90.00 21.43
91.00 21.91
92.00 22.39
93.00 22.86
94.00 23.32
95.00 23.77
96.00 24.22
97.00 24.65
98.00 25.07
99.00 25.48
100.00 25.88
101.00 26.27
102.00 26.66
103.00 27.04
104.00 27.41
105.00 27.79
106.00 28.16
107.00 28.53
108.00 28.90
109.00 29.26
110.00 29.61
111.00 29.94
112.00 30.23
113.00 30.49
114.00 30.70
115.00 30.86
116.00 30.96
117.00 31.00
118.00 31.00
119.00 30.96
120.00 30.90
121.00 30.81
122.00 30.73
123.00 30.66
124.00 30.60
125.00 30.57
126.00 30.58
127.00 30.62
128.00 30.71
129.00 30.84
130.00 31.03
131.00 31.26
132.00 31.55
133.00 31.89
134.00 32.29
135.00 32.74
136.00 33.24
137.00 33.78
138.00 34.37
139.00 35.00
140.00 35.65
141.00 36.30
142.00 36.95
143.00 37.57
144.00 38.14
145.00 38.66
146.00 39.12
147.00 39.52
148.00 39.89
149.00 40.23
150.00 40.58
151.00 40.96
152.00 41.39
153.00 41.86
154.00 42.39
155.00 42.93
156.00 43.43
157.00 43.76
158.00 43.82
159.00 43.50
160.00 42.83
161.00 41.91
162.00 40.86
163.00 39.79
164.00 38.77
165.00 37.81
166.00 36.94
167.00 36.16
168.00 35.46
169.00 34.86
170.00 34.33
171.00 33.87
172.00 33.49
173.00 33.17
174.00 32.91
175.00 32.72
176.00 32.57
177.00 32.48
178.00 32.43
179.00 32.44
180.00 32.47
181.00 32.55
182.00 32.65
183.00 32.77
184.00 32.92
185.00 33.07
186.00 33.22
187.00 33.37
188.00 33.49
189.00 33.60
190.00 33.66
191.00 33.68
192.00 33.66
193.00 33.60
194.00 33.49
195.00 33.35
196.00 33.17
197.00 32.98
198.00 32.78
199.00 32.57
200.00 32.37
201.00 32.18
202.00 32.00
203.00 31.85
204.00 31.72
205.00 31.61
206.00 31.54
207.00 31.50
208.00 31.49
209.00 31.51
210.00 31.56
211.00 31.65
212.00 31.76
213.00 31.90
214.00 32.05
215.00 32.22
216.00 32.39
217.00 32.54
218.00 32.68
219.00 32.77
220.00 32.81
221.00 32.79
222.00 32.68
223.00 32.50
224.00 32.25
225.00 31.94
226.00 31.58
227.00 31.19
228.00 30.78
229.00 30.36
230.00 29.94
231.00 29.55
232.00 29.16
233.00 28.81
234.00 28.48
235.00 28.18
236.00 27.90
237.00 27.66
238.00 27.44
239.00 27.26
240.00 27.10
241.00 26.97
242.00 26.86
243.00 26.77
244.00 26.71
245.00 26.67
246.00 26.65
247.00 26.64
248.00 26.64
249.00 26.66
250.00 26.68
251.00 26.71
252.00 26.74
253.00 26.77
254.00 26.80
255.00 26.81
256.00 26.82
257.00 26.80
258.00 26.77
259.00 26.72
260.00 26.64
261.00 26.54
262.00 26.41
263.00 26.25
264.00 26.06
265.00 25.84
266.00 25.58
267.00 25.31
268.00 25.01
269.00 24.68
270.00 24.34
271.00 23.97
272.00 23.60
273.00 23.21
274.00 22.81
275.00 22.40
276.00 21.99
277.00 21.57
278.00 21.16
279.00 20.74
280.00 20.32
281.00 19.90
282.00 19.48
283.00 19.06
284.00 18.65
285.00 18.24
286.00 17.83
287.00 17.43
288.00 17.02
289.00 16.62
290.00 16.22
291.00 15.82
292.00 15.43
293.00 15.04
294.00 14.65
295.00 14.26
296.00 13.87
297.00 13.49
298.00 13.10
299.00 12.72
300.00 12.34
301.00 11.96
302.00 11.59
303.00 11.22
304.00 10.85
305.00 10.48
306.00 10.11
307.00 9.76
308.00 9.40
309.00 9.05
310.00 8.70
311.00 8.36
312.00 8.02
313.00 7.69
314.00 7.36
315.00 7.04
316.00 6.73
317.00 6.42
318.00 6.12
319.00 5.83
320.00 5.54
321.00 5.26
322.00 4.99
323.00 4.73
324.00 4.47
325.00 4.22
326.00 3.98
327.00 3.75
328.00 3.53
329.00 3.31
330.00 3.10
331.00 2.90
332.00 2.71
333.00 2.53
334.00 2.35
335.00 2.19
336.00 2.03
337.00 1.87
338.00 1.73
339.00 1.59
340.00 1.45
341.00 1.33
342.00 1.21
343.00 1.09
344.00 0.99
345.00 0.88
346.00 0.79
347.00 0.70
348.00 0.61
349.00 0.53
350.00 0.46
351.00 0.39
352.00 0.32
353.00 0.26
354.00 0.21
355.00 0.16
356.00 0.12
357.00 0.08
358.00 0.05
359.00 0.03
VERTICAL 360
0.00 31.15
1.00 37.48
2.00 26.55
3.00 17.72
4.00 11.88
5.00 7.67
6.00 4.57
7.00 2.35
8.00 0.89
9.00 0.13
10.00 0.04
11.00 0.63
12.00 1.97
13.00 4.17
14.00 7.55
15.00 13.03
16.00 26.71
17.00 22.61
18.00 15.93
19.00 14.29
20.00 15.06
21.00 18.35
22.00 26.69
23.00 27.37
24.00 19.78
25.00 17.34
26.00 17.21
27.00 18.81
28.00 22.41
29.00 29.64
30.00 31.30
31.00 23.85
32.00 20.60
33.00 19.56
34.00 20.30
35.00 23.15
36.00 30.25
37.00 37.78
38.00 26.54
39.00 22.74
40.00 21.17
41.00 20.79
42.00 21.35
43.00 23.02
44.00 26.50
45.00 33.76
46.00 34.36
47.00 27.03
48.00 23.74
49.00 22.27
50.00 21.82
51.00 22.01
52.00 22.61
53.00 23.32
54.00 23.66
55.00 23.30
56.00 22.59
57.00 22.11
58.00 22.13
59.00 22.69
60.00 23.71
61.00 25.03
62.00 26.51
63.00 28.09
64.00 29.75
65.00 31.56
66.00 33.57
67.00 35.80
68.00 38.43
69.00 42.22
70.00 48.62
71.00 48.79
72.00 42.70
73.00 39.39
74.00 37.16
75.00 35.19
76.00 33.29
77.00 31.62
78.00 30.42
79.00 29.79
80.00 29.65
81.00 29.75
82.00 29.80
83.00 29.71
84.00 29.72
85.00 30.19
86.00 31.31
87.00 32.97
88.00 34.60
89.00 35.04
90.00 33.34
91.00 30.77
92.00 28.84
93.00 27.93
94.00 27.95
95.00 28.60
96.00 29.49
97.00 30.26
98.00 30.82
99.00 31.38
100.00 32.22
101.00 33.54
102.00 35.34
103.00 37.34
104.00 38.93
105.00 39.61
106.00 39.65
107.00 39.49
108.00 39.31
109.00 39.13
110.00 39.08
111.00 39.41
112.00 40.37
113.00 42.09
114.00 44.30
115.00 46.11
116.00 46.82
117.00 46.99
118.00 46.98
119.00 46.30
120.00 44.92
121.00 43.83
122.00 43.89
123.00 45.55
124.00 49.21
125.00 52.14
126.00 47.87
127.00 43.52
128.00 40.54
129.00 38.44
130.00 36.91
131.00 35.70
132.00 34.66
133.00 33.92
134.00 33.83
135.00 34.72
136.00 36.41
137.00 37.38
138.00 36.37
139.00 35.28
140.00 35.42
141.00 37.06
142.00 40.41
143.00 46.43
144.00 59.84
145.00 52.74
146.00 45.95
147.00 41.48
148.00 37.70
149.00 34.91
150.00 33.29
151.00 32.74
152.00 33.05
153.00 33.96
154.00 35.35
155.00 37.19
156.00 38.76
157.00 38.44
158.00 37.26
159.00 37.08
160.00 38.28
161.00 40.50
162.00 42.59
163.00 42.07
164.00 38.44
165.00 34.94
166.00 32.84
167.00 31.99
168.00 31.90
169.00 32.00
170.00 32.29
171.00 33.25
172.00 35.10
173.00 37.12
174.00 37.74
175.00 36.69
176.00 35.56
177.00 35.69
178.00 38.07
179.00 43.63
180.00 45.44
181.00 42.60
182.00 45.15
183.00 58.87
184.00 44.55
185.00 39.85
186.00 38.70
187.00 38.65
188.00 38.02
189.00 36.27
190.00 34.16
191.00 32.46
192.00 31.55
193.00 31.47
194.00 32.00
195.00 32.62
196.00 32.71
197.00 32.18
198.00 31.50
199.00 31.05
200.00 30.96
201.00 31.35
202.00 32.35
203.00 34.04
204.00 36.57
205.00 40.41
206.00 46.09
207.00 43.78
208.00 37.14
209.00 33.05
210.00 30.54
211.00 29.12
212.00 28.58
213.00 28.84
214.00 29.87
215.00 31.71
216.00 34.30
217.00 37.27
218.00 39.45
219.00 39.77
220.00 39.50
221.00 40.34
222.00 43.68
223.00 56.24
224.00 50.16
225.00 42.76
226.00 40.88
227.00 42.38
228.00 51.35
229.00 49.65
230.00 39.72
231.00 36.22
232.00 35.28
233.00 36.18
234.00 38.56
235.00 41.20
236.00 41.67
237.00 40.88
238.00 40.91
239.00 42.43
240.00 46.57
241.00 56.40
242.00 46.64
243.00 40.10
244.00 36.96
245.00 35.60
246.00 35.46
247.00 36.18
248.00 37.30
249.00 38.34
250.00 38.88
251.00 38.79
252.00 38.13
253.00 37.29
254.00 36.87
255.00 37.47
256.00 39.69
257.00 44.60
258.00 55.39
259.00 50.60
260.00 44.40
261.00 41.26
262.00 39.22
263.00 38.07
264.00 37.79
265.00 38.26
266.00 39.05
267.00 39.24
268.00 38.05
269.00 36.02
270.00 34.04
271.00 32.56
272.00 31.78
273.00 31.67
274.00 32.06
275.00 32.52
276.00 32.55
277.00 31.96
278.00 31.03
279.00 30.20
280.00 29.67
281.00 29.41
282.00 29.21
283.00 28.92
284.00 28.57
285.00 28.41
286.00 28.63
287.00 29.28
288.00 30.18
289.00 31.07
290.00 31.78
291.00 32.25
292.00 32.10
293.00 30.79
294.00 28.65
295.00 26.52
296.00 24.80
297.00 23.54
298.00 22.71
299.00 22.30
300.00 22.31
301.00 22.71
302.00 23.32
303.00 23.92
304.00 24.41
305.00 25.14
306.00 26.79
307.00 30.50
308.00 39.06
309.00 35.14
310.00 27.84
311.00 24.36
312.00 22.57
313.00 21.97
314.00 22.60
315.00 24.98
316.00 31.03
317.00 34.29
318.00 25.25
319.00 21.08
320.00 19.04
321.00 18.21
322.00 18.26
323.00 19.15
324.00 21.03
325.00 23.42
326.00 22.67
327.00 19.03
328.00 16.01
329.00 14.12
330.00 13.17
331.00 13.01
332.00 13.54
333.00 14.70
334.00 16.53
335.00 19.19
336.00 22.99
337.00 28.30
338.00 31.03
339.00 27.03
340.00 23.65
341.00 21.23
342.00 19.56
343.00 18.85
344.00 19.56
345.00 22.58
346.00 32.97
347.00 31.61
348.00 22.60
349.00 19.84
350.00 19.62
351.00 21.66
352.00 27.60
353.00 44.59
354.00 25.38
355.00 20.96
356.00 19.56
357.00 20.06
358.00 22.22
359.00 25.96
