NAME ATR4518R7_1750_X_CO_P45_09T_yyR
FREQUENCY 1750
GAIN 14.35 dBd
TILT	ELECTRICAL
COMMENT DATE 05.08.2013 +45 degrees polarized system Lever position 09T deg
HORIZONTAL 360
0.00 0.02
1.00 0.04
2.00 0.06
3.00 0.09
4.00 0.13
5.00 0.17
6.00 0.22
7.00 0.28
8.00 0.35
9.00 0.42
10.00 0.51
11.00 0.59
12.00 0.69
13.00 0.80
14.00 0.92
15.00 1.04
16.00 1.18
17.00 1.32
18.00 1.47
19.00 1.62
20.00 1.79
21.00 1.96
22.00 2.14
23.00 2.33
24.00 2.52
25.00 2.71
26.00 2.91
27.00 3.12
28.00 3.33
29.00 3.53
30.00 3.75
31.00 3.96
32.00 4.17
33.00 4.38
34.00 4.58
35.00 4.79
36.00 4.99
37.00 5.18
38.00 5.38
39.00 5.57
40.00 5.75
41.00 5.93
42.00 6.11
43.00 6.29
44.00 6.46
45.00 6.64
46.00 6.81
47.00 6.98
48.00 7.15
49.00 7.32
50.00 7.50
51.00 7.67
52.00 7.85
53.00 8.03
54.00 8.22
55.00 8.41
56.00 8.60
57.00 8.80
58.00 9.00
59.00 9.21
60.00 9.42
61.00 9.63
62.00 9.85
63.00 10.07
64.00 10.29
65.00 10.52
66.00 10.76
67.00 11.00
68.00 11.24
69.00 11.49
70.00 11.74
71.00 12.00
72.00 12.27
73.00 12.54
74.00 12.82
75.00 13.10
76.00 13.39
77.00 13.69
78.00 13.99
79.00 14.30
80.00 14.62
81.00 14.95
82.00 15.28
83.00 15.61
84.00 15.96
85.00 16.30
86.00 16.65
87.00 17.00
88.00 17.35
89.00 17.69
90.00 18.03
91.00 18.36
92.00 18.68
93.00 18.99
94.00 19.28
95.00 19.56
96.00 19.82
97.00 20.07
98.00 20.29
99.00 20.50
100.00 20.69
101.00 20.87
102.00 21.04
103.00 21.19
104.00 21.35
105.00 21.49
106.00 21.64
107.00 21.79
108.00 21.94
109.00 22.10
110.00 22.27
111.00 22.45
112.00 22.64
113.00 22.84
114.00 23.05
115.00 23.28
116.00 23.52
117.00 23.77
118.00 24.04
119.00 24.32
120.00 24.61
121.00 24.91
122.00 25.22
123.00 25.54
124.00 25.87
125.00 26.21
126.00 26.55
127.00 26.90
128.00 27.25
129.00 27.61
130.00 27.96
131.00 28.32
132.00 28.68
133.00 29.04
134.00 29.39
135.00 29.74
136.00 30.09
137.00 30.44
138.00 30.78
139.00 31.13
140.00 31.48
141.00 31.83
142.00 32.20
143.00 32.58
144.00 32.99
145.00 33.43
146.00 33.91
147.00 34.44
148.00 35.05
149.00 35.73
150.00 36.54
151.00 37.47
152.00 38.59
153.00 39.95
154.00 41.65
155.00 43.88
156.00 46.96
157.00 51.66
158.00 56.98
159.00 52.04
160.00 46.99
161.00 43.64
162.00 41.20
163.00 39.31
164.00 37.80
165.00 36.56
166.00 35.52
167.00 34.66
168.00 33.93
169.00 33.33
170.00 32.84
171.00 32.44
172.00 32.14
173.00 31.93
174.00 31.80
175.00 31.74
176.00 31.76
177.00 31.86
178.00 32.03
179.00 32.27
180.00 32.57
181.00 32.92
182.00 33.30
183.00 33.69
184.00 34.06
185.00 34.36
186.00 34.54
187.00 34.56
188.00 34.40
189.00 34.07
190.00 33.59
191.00 33.03
192.00 32.43
193.00 31.83
194.00 31.25
195.00 30.71
196.00 30.22
197.00 29.79
198.00 29.43
199.00 29.13
200.00 28.89
201.00 28.71
202.00 28.60
203.00 28.55
204.00 28.57
205.00 28.64
206.00 28.78
207.00 28.97
208.00 29.22
209.00 29.53
210.00 29.88
211.00 30.28
212.00 30.71
213.00 31.14
214.00 31.57
215.00 31.97
216.00 32.29
217.00 32.51
218.00 32.61
219.00 32.57
220.00 32.40
221.00 32.13
222.00 31.78
223.00 31.40
224.00 31.01
225.00 30.62
226.00 30.26
227.00 29.94
228.00 29.66
229.00 29.42
230.00 29.23
231.00 29.09
232.00 28.99
233.00 28.94
234.00 28.93
235.00 28.97
236.00 29.05
237.00 29.16
238.00 29.32
239.00 29.50
240.00 29.71
241.00 29.96
242.00 30.23
243.00 30.51
244.00 30.82
245.00 31.15
246.00 31.48
247.00 31.83
248.00 32.18
249.00 32.55
250.00 32.94
251.00 33.33
252.00 33.75
253.00 34.19
254.00 34.67
255.00 35.19
256.00 35.74
257.00 36.34
258.00 36.98
259.00 37.62
260.00 38.21
261.00 38.65
262.00 38.80
263.00 38.56
264.00 37.89
265.00 36.90
266.00 35.72
267.00 34.45
268.00 33.18
269.00 31.94
270.00 30.77
271.00 29.65
272.00 28.59
273.00 27.59
274.00 26.64
275.00 25.74
276.00 24.89
277.00 24.07
278.00 23.28
279.00 22.53
280.00 21.81
281.00 21.12
282.00 20.44
283.00 19.79
284.00 19.16
285.00 18.54
286.00 17.95
287.00 17.36
288.00 16.79
289.00 16.24
290.00 15.69
291.00 15.16
292.00 14.64
293.00 14.13
294.00 13.63
295.00 13.14
296.00 12.66
297.00 12.19
298.00 11.73
299.00 11.28
300.00 10.83
301.00 10.40
302.00 9.97
303.00 9.56
304.00 9.16
305.00 8.76
306.00 8.37
307.00 7.99
308.00 7.63
309.00 7.27
310.00 6.91
311.00 6.57
312.00 6.24
313.00 5.92
314.00 5.61
315.00 5.31
316.00 5.01
317.00 4.73
318.00 4.46
319.00 4.19
320.00 3.94
321.00 3.69
322.00 3.46
323.00 3.23
324.00 3.01
325.00 2.80
326.00 2.61
327.00 2.42
328.00 2.24
329.00 2.07
330.00 1.90
331.00 1.75
332.00 1.60
333.00 1.46
334.00 1.33
335.00 1.21
336.00 1.09
337.00 0.99
338.00 0.88
339.00 0.79
340.00 0.70
341.00 0.62
342.00 0.54
343.00 0.47
344.00 0.41
345.00 0.35
346.00 0.29
347.00 0.25
348.00 0.20
349.00 0.16
350.00 0.12
351.00 0.09
352.00 0.06
353.00 0.04
354.00 0.03
355.00 0.01
356.00 0.00
357.00 0.00
358.00 0.00
359.00 0.01
VERTICAL 360
0.00 24.99
1.00 22.10
2.00 16.71
3.00 11.45
4.00 7.40
5.00 4.42
6.00 2.31
7.00 0.92
8.00 0.16
9.00 0.00
10.00 0.45
11.00 1.59
12.00 3.56
13.00 6.63
14.00 11.51
15.00 21.28
16.00 27.37
17.00 18.10
18.00 16.44
19.00 17.88
20.00 23.07
21.00 31.06
22.00 21.12
23.00 16.49
24.00 14.37
25.00 13.62
26.00 13.92
27.00 15.33
28.00 18.26
29.00 24.17
30.00 38.16
31.00 26.30
32.00 21.61
33.00 20.22
34.00 20.76
35.00 23.51
36.00 30.78
37.00 30.90
38.00 22.58
39.00 19.12
40.00 17.77
41.00 17.70
42.00 18.47
43.00 19.73
44.00 21.40
45.00 23.87
46.00 27.93
47.00 30.58
48.00 26.09
49.00 22.58
50.00 20.81
51.00 19.95
52.00 19.28
53.00 18.41
54.00 17.39
55.00 16.51
56.00 16.00
57.00 15.96
58.00 16.34
59.00 17.04
60.00 17.89
61.00 18.82
62.00 19.80
63.00 20.85
64.00 21.94
65.00 23.04
66.00 24.16
67.00 25.36
68.00 26.75
69.00 28.40
70.00 30.30
71.00 32.20
72.00 33.00
73.00 32.39
74.00 31.34
75.00 30.44
76.00 29.80
77.00 29.29
78.00 28.74
79.00 28.09
80.00 27.32
81.00 26.48
82.00 25.76
83.00 25.39
84.00 25.81
85.00 27.10
86.00 27.97
87.00 28.33
88.00 28.22
89.00 25.32
90.00 26.36
91.00 29.65
92.00 32.73
93.00 29.38
94.00 26.85
95.00 26.47
96.00 27.43
97.00 29.21
98.00 31.61
99.00 33.68
100.00 33.66
101.00 32.91
102.00 33.17
103.00 34.74
104.00 37.42
105.00 40.37
106.00 41.56
107.00 40.61
108.00 39.48
109.00 39.39
110.00 40.61
111.00 42.45
112.00 42.65
113.00 40.03
114.00 37.24
115.00 35.93
116.00 36.29
117.00 37.82
118.00 38.83
119.00 37.64
120.00 35.31
121.00 33.43
122.00 32.54
123.00 32.52
124.00 33.10
125.00 34.14
126.00 35.69
127.00 37.59
128.00 39.32
129.00 40.46
130.00 41.17
131.00 41.28
132.00 40.53
133.00 39.89
134.00 39.66
135.00 38.72
136.00 37.36
137.00 37.01
138.00 38.13
139.00 40.41
140.00 41.53
141.00 38.95
142.00 36.70
143.00 36.77
144.00 39.57
145.00 43.47
146.00 41.53
147.00 38.48
148.00 36.69
149.00 35.57
150.00 34.47
151.00 32.95
152.00 31.77
153.00 31.82
154.00 33.45
155.00 36.66
156.00 41.23
157.00 48.75
158.00 50.74
159.00 40.16
160.00 35.70
161.00 33.92
162.00 34.09
163.00 36.02
164.00 39.86
165.00 46.70
166.00 50.68
167.00 42.04
168.00 37.01
169.00 33.92
170.00 32.27
171.00 31.94
172.00 32.82
173.00 34.86
174.00 38.20
175.00 42.54
176.00 42.93
177.00 40.54
178.00 40.50
179.00 44.04
180.00 54.58
181.00 46.09
182.00 41.16
183.00 40.88
184.00 40.64
185.00 36.10
186.00 32.49
187.00 30.96
188.00 30.89
189.00 31.48
190.00 32.07
191.00 32.56
192.00 33.12
193.00 33.96
194.00 35.18
195.00 36.03
196.00 35.87
197.00 36.18
198.00 38.50
199.00 42.34
200.00 41.66
201.00 39.50
202.00 39.53
203.00 40.39
204.00 39.85
205.00 38.68
206.00 38.91
207.00 41.29
208.00 41.45
209.00 36.36
210.00 33.00
211.00 31.60
212.00 31.24
213.00 30.91
214.00 30.34
215.00 30.20
216.00 31.11
217.00 33.24
218.00 36.10
219.00 37.48
220.00 36.75
221.00 36.45
222.00 37.08
223.00 37.05
224.00 35.59
225.00 34.24
226.00 33.63
227.00 33.46
228.00 33.35
229.00 33.30
230.00 33.72
231.00 35.08
232.00 37.69
233.00 41.46
234.00 45.07
235.00 45.58
236.00 43.29
237.00 40.71
238.00 38.34
239.00 36.68
240.00 36.32
241.00 37.19
242.00 37.80
243.00 36.88
244.00 35.80
245.00 35.35
246.00 35.35
247.00 35.50
248.00 35.37
249.00 35.09
250.00 35.61
251.00 38.06
252.00 44.15
253.00 57.80
254.00 49.89
255.00 49.45
256.00 55.70
257.00 54.51
258.00 45.29
259.00 39.50
260.00 36.14
261.00 34.95
262.00 35.80
263.00 38.48
264.00 41.26
265.00 40.70
266.00 38.90
267.00 37.94
268.00 37.60
269.00 36.50
270.00 34.49
271.00 33.22
272.00 33.70
273.00 36.67
274.00 43.99
275.00 46.01
276.00 38.39
277.00 34.41
278.00 31.85
279.00 30.43
280.00 30.07
281.00 30.37
282.00 30.45
283.00 29.40
284.00 27.61
285.00 26.06
286.00 25.14
287.00 24.76
288.00 24.57
289.00 24.21
290.00 23.57
291.00 22.94
292.00 22.74
293.00 23.24
294.00 24.60
295.00 27.05
296.00 31.29
297.00 40.12
298.00 40.74
299.00 31.98
300.00 27.85
301.00 25.33
302.00 23.69
303.00 22.71
304.00 22.34
305.00 22.66
306.00 23.70
307.00 25.44
308.00 27.94
309.00 31.67
310.00 36.82
311.00 33.07
312.00 26.58
313.00 22.47
314.00 19.79
315.00 18.02
316.00 16.96
317.00 16.51
318.00 16.74
319.00 17.83
320.00 20.16
321.00 24.80
322.00 35.19
323.00 29.09
324.00 22.40
325.00 19.28
326.00 17.67
327.00 17.03
328.00 17.17
329.00 18.00
330.00 19.46
331.00 21.46
332.00 23.96
333.00 27.57
334.00 34.47
335.00 31.10
336.00 23.12
337.00 18.87
338.00 16.40
339.00 14.99
340.00 14.35
341.00 14.35
342.00 15.12
343.00 17.05
344.00 21.13
345.00 30.09
346.00 27.96
347.00 22.04
348.00 20.80
349.00 22.61
350.00 28.64
351.00 31.76
352.00 23.46
353.00 20.04
354.00 19.06
355.00 19.91
356.00 22.79
357.00 28.96
358.00 34.47
359.00 27.86
