NAME ATR4518R7_2140_X_CO_P45_01T_yL
FREQUENCY 2140
GAIN 15.81 dBd
TILT	ELECTRICAL
COMMENT DATE 05.08.2013 +45 degrees polarized system Lever position 01T deg
HORIZONTAL 360
0.00 0.00
1.00 0.00
2.00 0.00
3.00 0.01
4.00 0.02
5.00 0.03
6.00 0.05
7.00 0.07
8.00 0.10
9.00 0.13
10.00 0.17
11.00 0.21
12.00 0.26
13.00 0.31
14.00 0.37
15.00 0.43
16.00 0.51
17.00 0.58
18.00 0.67
19.00 0.77
20.00 0.87
21.00 0.98
22.00 1.10
23.00 1.22
24.00 1.36
25.00 1.50
26.00 1.66
27.00 1.82
28.00 1.99
29.00 2.17
30.00 2.36
31.00 2.56
32.00 2.76
33.00 2.98
34.00 3.20
35.00 3.44
36.00 3.68
37.00 3.93
38.00 4.18
39.00 4.44
40.00 4.70
41.00 4.97
42.00 5.24
43.00 5.51
44.00 5.79
45.00 6.06
46.00 6.34
47.00 6.61
48.00 6.88
49.00 7.15
50.00 7.41
51.00 7.67
52.00 7.93
53.00 8.18
54.00 8.43
55.00 8.68
56.00 8.92
57.00 9.17
58.00 9.42
59.00 9.66
60.00 9.91
61.00 10.17
62.00 10.43
63.00 10.69
64.00 10.97
65.00 11.25
66.00 11.55
67.00 11.86
68.00 12.18
69.00 12.51
70.00 12.86
71.00 13.22
72.00 13.59
73.00 13.98
74.00 14.38
75.00 14.80
76.00 15.23
77.00 15.66
78.00 16.10
79.00 16.55
80.00 16.99
81.00 17.44
82.00 17.87
83.00 18.30
84.00 18.72
85.00 19.12
86.00 19.50
87.00 19.86
88.00 20.21
89.00 20.55
90.00 20.87
91.00 21.19
92.00 21.51
93.00 21.84
94.00 22.18
95.00 22.53
96.00 22.92
97.00 23.33
98.00 23.78
99.00 24.28
100.00 24.82
101.00 25.42
102.00 26.09
103.00 26.82
104.00 27.63
105.00 28.52
106.00 29.50
107.00 30.58
108.00 31.75
109.00 33.05
110.00 34.46
111.00 35.99
112.00 37.65
113.00 39.44
114.00 41.34
115.00 43.35
116.00 45.40
117.00 47.38
118.00 49.00
119.00 49.68
120.00 49.03
121.00 47.39
122.00 45.46
123.00 43.56
124.00 41.83
125.00 40.29
126.00 38.96
127.00 37.80
128.00 36.81
129.00 35.97
130.00 35.28
131.00 34.70
132.00 34.25
133.00 33.89
134.00 33.62
135.00 33.42
136.00 33.27
137.00 33.15
138.00 33.04
139.00 32.91
140.00 32.75
141.00 32.54
142.00 32.27
143.00 31.96
144.00 31.62
145.00 31.26
146.00 30.92
147.00 30.60
148.00 30.33
149.00 30.12
150.00 29.97
151.00 29.91
152.00 29.94
153.00 30.06
154.00 30.28
155.00 30.60
156.00 31.03
157.00 31.57
158.00 32.20
159.00 32.91
160.00 33.68
161.00 34.44
162.00 35.10
163.00 35.55
164.00 35.69
165.00 35.52
166.00 35.11
167.00 34.58
168.00 34.02
169.00 33.52
170.00 33.11
171.00 32.80
172.00 32.63
173.00 32.59
174.00 32.69
175.00 32.94
176.00 33.34
177.00 33.90
178.00 34.63
179.00 35.56
180.00 36.70
181.00 38.07
182.00 39.68
183.00 41.44
184.00 43.06
185.00 43.96
186.00 43.65
187.00 42.51
188.00 41.17
189.00 39.96
190.00 38.97
191.00 38.21
192.00 37.65
193.00 37.25
194.00 37.00
195.00 36.85
196.00 36.79
197.00 36.76
198.00 36.74
199.00 36.69
200.00 36.57
201.00 36.37
202.00 36.09
203.00 35.75
204.00 35.38
205.00 34.99
206.00 34.62
207.00 34.30
208.00 34.04
209.00 33.84
210.00 33.73
211.00 33.71
212.00 33.78
213.00 33.95
214.00 34.24
215.00 34.64
216.00 35.18
217.00 35.88
218.00 36.76
219.00 37.86
220.00 39.25
221.00 41.05
222.00 43.42
223.00 46.68
224.00 50.81
225.00 51.46
226.00 47.27
227.00 43.64
228.00 40.96
229.00 38.92
230.00 37.31
231.00 36.02
232.00 34.97
233.00 34.12
234.00 33.45
235.00 32.92
236.00 32.53
237.00 32.28
238.00 32.14
239.00 32.13
240.00 32.23
241.00 32.44
242.00 32.76
243.00 33.18
244.00 33.67
245.00 34.19
246.00 34.67
247.00 35.00
248.00 35.06
249.00 34.79
250.00 34.21
251.00 33.42
252.00 32.52
253.00 31.61
254.00 30.74
255.00 29.93
256.00 29.21
257.00 28.57
258.00 28.01
259.00 27.52
260.00 27.09
261.00 26.71
262.00 26.38
263.00 26.08
264.00 25.79
265.00 25.50
266.00 25.21
267.00 24.90
268.00 24.57
269.00 24.20
270.00 23.80
271.00 23.37
272.00 22.93
273.00 22.46
274.00 21.99
275.00 21.51
276.00 21.05
277.00 20.59
278.00 20.14
279.00 19.72
280.00 19.31
281.00 18.93
282.00 18.57
283.00 18.22
284.00 17.89
285.00 17.58
286.00 17.28
287.00 17.00
288.00 16.72
289.00 16.44
290.00 16.16
291.00 15.88
292.00 15.60
293.00 15.30
294.00 15.00
295.00 14.68
296.00 14.35
297.00 14.00
298.00 13.65
299.00 13.28
300.00 12.90
301.00 12.51
302.00 12.13
303.00 11.74
304.00 11.34
305.00 10.95
306.00 10.55
307.00 10.17
308.00 9.78
309.00 9.40
310.00 9.02
311.00 8.65
312.00 8.28
313.00 7.92
314.00 7.56
315.00 7.21
316.00 6.86
317.00 6.51
318.00 6.17
319.00 5.84
320.00 5.50
321.00 5.18
322.00 4.86
323.00 4.55
324.00 4.25
325.00 3.95
326.00 3.67
327.00 3.40
328.00 3.14
329.00 2.89
330.00 2.65
331.00 2.42
332.00 2.21
333.00 2.01
334.00 1.82
335.00 1.64
336.00 1.48
337.00 1.32
338.00 1.18
339.00 1.05
340.00 0.93
341.00 0.82
342.00 0.72
343.00 0.63
344.00 0.54
345.00 0.47
346.00 0.40
347.00 0.34
348.00 0.28
349.00 0.24
350.00 0.19
351.00 0.16
352.00 0.12
353.00 0.09
354.00 0.07
355.00 0.05
356.00 0.03
357.00 0.02
358.00 0.01
359.00 0.00
VERTICAL 360
0.00 0.45
1.00 0.00
2.00 0.42
3.00 1.78
4.00 4.29
5.00 8.43
6.00 15.95
7.00 33.66
8.00 17.40
9.00 14.78
10.00 15.65
11.00 19.89
12.00 25.27
13.00 18.99
14.00 15.70
15.00 15.20
16.00 16.94
17.00 21.45
18.00 29.98
19.00 24.88
20.00 20.86
21.00 20.27
22.00 22.62
23.00 30.64
24.00 32.67
25.00 23.13
26.00 19.86
27.00 18.64
28.00 18.49
29.00 18.90
30.00 19.33
31.00 19.22
32.00 18.44
33.00 17.28
34.00 16.06
35.00 15.02
36.00 14.38
37.00 14.27
38.00 14.73
39.00 15.76
40.00 17.46
41.00 20.18
42.00 24.95
43.00 36.72
44.00 32.28
45.00 25.66
46.00 23.31
47.00 22.62
48.00 22.94
49.00 24.29
50.00 27.13
51.00 32.62
52.00 38.88
53.00 32.79
54.00 29.58
55.00 28.59
56.00 28.72
57.00 29.37
58.00 30.40
59.00 32.25
60.00 35.85
61.00 41.81
62.00 40.46
63.00 36.50
64.00 34.87
65.00 34.37
66.00 34.04
67.00 33.47
68.00 32.90
69.00 32.78
70.00 33.35
71.00 34.49
72.00 35.78
73.00 36.59
74.00 36.66
75.00 36.47
76.00 36.65
77.00 37.48
78.00 38.92
79.00 40.90
80.00 43.52
81.00 46.55
82.00 48.47
83.00 47.93
84.00 45.96
85.00 44.42
86.00 44.22
87.00 45.52
88.00 48.05
89.00 51.25
90.00 53.13
91.00 51.42
92.00 49.42
93.00 48.45
94.00 47.87
95.00 47.47
96.00 47.93
97.00 50.10
98.00 55.87
99.00 68.42
100.00 51.56
101.00 46.30
102.00 43.77
103.00 42.96
104.00 43.44
105.00 44.69
106.00 45.94
107.00 47.23
108.00 49.52
109.00 52.79
110.00 53.97
111.00 54.03
112.00 56.13
113.00 56.63
114.00 52.12
115.00 48.04
116.00 44.75
117.00 42.20
118.00 40.55
119.00 39.93
120.00 40.46
121.00 42.15
122.00 44.83
123.00 47.53
124.00 48.99
125.00 50.20
126.00 52.58
127.00 55.82
128.00 59.09
129.00 66.20
130.00 55.53
131.00 49.82
132.00 48.37
133.00 49.89
134.00 51.13
135.00 49.78
136.00 51.48
137.00 54.44
138.00 45.58
139.00 40.91
140.00 38.86
141.00 38.10
142.00 37.83
143.00 37.91
144.00 38.78
145.00 40.60
146.00 41.87
147.00 40.96
148.00 40.43
149.00 41.98
150.00 45.10
151.00 45.40
152.00 44.79
153.00 47.57
154.00 53.52
155.00 49.36
156.00 45.61
157.00 42.66
158.00 40.59
159.00 40.75
160.00 44.43
161.00 58.01
162.00 50.16
163.00 45.70
164.00 44.10
165.00 42.67
166.00 43.02
167.00 47.49
168.00 54.61
169.00 45.74
170.00 43.88
171.00 46.79
172.00 59.12
173.00 53.86
174.00 49.47
175.00 49.55
176.00 48.62
177.00 45.40
178.00 41.22
179.00 37.36
180.00 35.12
181.00 34.24
182.00 34.27
183.00 34.72
184.00 35.69
185.00 37.82
186.00 41.97
187.00 44.73
188.00 41.54
189.00 39.64
190.00 38.88
191.00 38.46
192.00 38.94
193.00 40.92
194.00 43.48
195.00 45.12
196.00 49.90
197.00 54.62
198.00 43.19
199.00 39.97
200.00 39.95
201.00 40.98
202.00 40.74
203.00 40.63
204.00 42.67
205.00 46.35
206.00 46.38
207.00 45.92
208.00 49.71
209.00 56.15
210.00 46.65
211.00 42.16
212.00 39.51
213.00 37.36
214.00 35.47
215.00 34.12
216.00 33.59
217.00 33.98
218.00 35.30
219.00 37.38
220.00 40.11
221.00 43.50
222.00 47.42
223.00 50.45
224.00 49.60
225.00 46.00
226.00 42.75
227.00 40.54
228.00 39.19
229.00 38.48
230.00 38.37
231.00 39.01
232.00 40.71
233.00 43.77
234.00 46.79
235.00 45.73
236.00 43.72
237.00 42.84
238.00 42.58
239.00 42.31
240.00 41.83
241.00 41.40
242.00 41.46
243.00 42.36
244.00 44.42
245.00 48.53
246.00 56.42
247.00 51.99
248.00 47.37
249.00 45.34
250.00 43.47
251.00 41.76
252.00 41.46
253.00 43.32
254.00 47.67
255.00 50.31
256.00 48.53
257.00 48.89
258.00 50.82
259.00 49.28
260.00 44.74
261.00 40.93
262.00 38.59
263.00 37.79
264.00 38.38
265.00 39.76
266.00 40.56
267.00 40.13
268.00 39.58
269.00 39.55
270.00 39.87
271.00 40.09
272.00 40.07
273.00 40.04
274.00 39.81
275.00 38.59
276.00 36.41
277.00 34.18
278.00 32.49
279.00 31.53
280.00 31.27
281.00 31.49
282.00 31.82
283.00 31.91
284.00 31.68
285.00 31.34
286.00 31.17
287.00 31.33
288.00 31.87
289.00 32.82
290.00 34.39
291.00 37.11
292.00 42.26
293.00 44.64
294.00 37.36
295.00 33.31
296.00 31.30
297.00 30.21
298.00 29.19
299.00 28.11
300.00 27.50
301.00 27.83
302.00 29.29
303.00 31.93
304.00 34.73
305.00 33.82
306.00 30.57
307.00 27.98
308.00 26.46
309.00 26.07
310.00 26.95
311.00 29.33
312.00 32.81
313.00 32.43
314.00 28.53
315.00 25.36
316.00 23.07
317.00 21.48
318.00 20.56
319.00 20.28
320.00 20.39
321.00 20.39
322.00 19.85
323.00 18.84
324.00 17.72
325.00 16.60
326.00 15.54
327.00 14.64
328.00 14.04
329.00 13.91
330.00 14.44
331.00 15.89
332.00 18.81
333.00 24.85
334.00 38.50
335.00 24.39
336.00 20.33
337.00 19.34
338.00 20.57
339.00 24.82
340.00 41.75
341.00 27.51
342.00 21.93
343.00 20.49
344.00 21.96
345.00 28.17
346.00 35.09
347.00 22.97
348.00 19.42
349.00 18.86
350.00 20.86
351.00 26.75
352.00 42.28
353.00 30.04
354.00 29.88
355.00 20.79
356.00 12.73
357.00 7.54
358.00 4.07
359.00 1.78
