NAME ATR4518R7_1850_X_CO_M45_06T_yyR
FREQUENCY 1850
GAIN 15.24 dBd
TILT	ELECTRICAL
COMMENT DATE 05.08.2013 -45 degrees polarized system Lever position 06T deg
HORIZONTAL 360
0.00 0.15
1.00 0.11
2.00 0.08
3.00 0.06
4.00 0.04
5.00 0.02
6.00 0.01
7.00 0.00
8.00 0.01
9.00 0.01
10.00 0.03
11.00 0.04
12.00 0.07
13.00 0.10
14.00 0.14
15.00 0.19
16.00 0.24
17.00 0.31
18.00 0.38
19.00 0.46
20.00 0.54
21.00 0.64
22.00 0.75
23.00 0.86
24.00 0.98
25.00 1.12
26.00 1.26
27.00 1.41
28.00 1.58
29.00 1.75
30.00 1.93
31.00 2.13
32.00 2.33
33.00 2.55
34.00 2.77
35.00 3.00
36.00 3.25
37.00 3.51
38.00 3.77
39.00 4.04
40.00 4.33
41.00 4.62
42.00 4.93
43.00 5.24
44.00 5.56
45.00 5.89
46.00 6.24
47.00 6.58
48.00 6.94
49.00 7.31
50.00 7.69
51.00 8.07
52.00 8.46
53.00 8.86
54.00 9.26
55.00 9.68
56.00 10.10
57.00 10.52
58.00 10.95
59.00 11.39
60.00 11.83
61.00 12.28
62.00 12.74
63.00 13.19
64.00 13.65
65.00 14.11
66.00 14.58
67.00 15.04
68.00 15.51
69.00 15.97
70.00 16.44
71.00 16.91
72.00 17.38
73.00 17.84
74.00 18.31
75.00 18.77
76.00 19.24
77.00 19.71
78.00 20.19
79.00 20.67
80.00 21.15
81.00 21.64
82.00 22.15
83.00 22.67
84.00 23.20
85.00 23.75
86.00 24.32
87.00 24.91
88.00 25.53
89.00 26.16
90.00 26.83
91.00 27.52
92.00 28.23
93.00 28.95
94.00 29.69
95.00 30.41
96.00 31.12
97.00 31.77
98.00 32.34
99.00 32.80
100.00 33.13
101.00 33.31
102.00 33.36
103.00 33.29
104.00 33.14
105.00 32.93
106.00 32.70
107.00 32.46
108.00 32.23
109.00 32.01
110.00 31.83
111.00 31.67
112.00 31.54
113.00 31.44
114.00 31.37
115.00 31.32
116.00 31.29
117.00 31.29
118.00 31.30
119.00 31.31
120.00 31.34
121.00 31.38
122.00 31.42
123.00 31.47
124.00 31.52
125.00 31.58
126.00 31.65
127.00 31.72
128.00 31.82
129.00 31.93
130.00 32.06
131.00 32.22
132.00 32.42
133.00 32.66
134.00 32.93
135.00 33.27
136.00 33.65
137.00 34.10
138.00 34.63
139.00 35.23
140.00 35.92
141.00 36.71
142.00 37.60
143.00 38.61
144.00 39.71
145.00 40.92
146.00 42.14
147.00 43.21
148.00 43.90
149.00 43.98
150.00 43.45
151.00 42.54
152.00 41.51
153.00 40.49
154.00 39.57
155.00 38.77
156.00 38.08
157.00 37.50
158.00 37.02
159.00 36.64
160.00 36.36
161.00 36.15
162.00 36.02
163.00 35.97
164.00 35.99
165.00 36.08
166.00 36.23
167.00 36.46
168.00 36.75
169.00 37.12
170.00 37.56
171.00 38.09
172.00 38.70
173.00 39.43
174.00 40.28
175.00 41.27
176.00 42.47
177.00 43.91
178.00 45.71
179.00 48.07
180.00 51.39
181.00 56.67
182.00 62.79
183.00 55.86
184.00 50.71
185.00 47.37
186.00 44.95
187.00 43.06
188.00 41.52
189.00 40.25
190.00 39.17
191.00 38.24
192.00 37.45
193.00 36.77
194.00 36.19
195.00 35.70
196.00 35.30
197.00 34.96
198.00 34.71
199.00 34.52
200.00 34.40
201.00 34.34
202.00 34.34
203.00 34.40
204.00 34.51
205.00 34.68
206.00 34.89
207.00 35.12
208.00 35.39
209.00 35.65
210.00 35.90
211.00 36.10
212.00 36.24
213.00 36.28
214.00 36.20
215.00 36.01
216.00 35.72
217.00 35.35
218.00 34.92
219.00 34.45
220.00 33.98
221.00 33.52
222.00 33.08
223.00 32.67
224.00 32.30
225.00 31.96
226.00 31.67
227.00 31.42
228.00 31.20
229.00 31.03
230.00 30.89
231.00 30.79
232.00 30.72
233.00 30.68
234.00 30.67
235.00 30.67
236.00 30.70
237.00 30.73
238.00 30.78
239.00 30.82
240.00 30.86
241.00 30.89
242.00 30.89
243.00 30.87
244.00 30.82
245.00 30.74
246.00 30.61
247.00 30.45
248.00 30.25
249.00 30.02
250.00 29.75
251.00 29.47
252.00 29.16
253.00 28.83
254.00 28.50
255.00 28.16
256.00 27.81
257.00 27.46
258.00 27.11
259.00 26.77
260.00 26.42
261.00 26.09
262.00 25.75
263.00 25.42
264.00 25.09
265.00 24.76
266.00 24.43
267.00 24.11
268.00 23.78
269.00 23.45
270.00 23.12
271.00 22.79
272.00 22.45
273.00 22.11
274.00 21.76
275.00 21.41
276.00 21.05
277.00 20.69
278.00 20.33
279.00 19.96
280.00 19.59
281.00 19.22
282.00 18.85
283.00 18.48
284.00 18.11
285.00 17.74
286.00 17.37
287.00 17.00
288.00 16.64
289.00 16.27
290.00 15.92
291.00 15.56
292.00 15.21
293.00 14.86
294.00 14.51
295.00 14.16
296.00 13.82
297.00 13.48
298.00 13.15
299.00 12.81
300.00 12.48
301.00 12.14
302.00 11.81
303.00 11.49
304.00 11.16
305.00 10.83
306.00 10.50
307.00 10.18
308.00 9.86
309.00 9.54
310.00 9.22
311.00 8.91
312.00 8.59
313.00 8.28
314.00 7.97
315.00 7.66
316.00 7.36
317.00 7.06
318.00 6.77
319.00 6.48
320.00 6.20
321.00 5.92
322.00 5.65
323.00 5.38
324.00 5.12
325.00 4.86
326.00 4.61
327.00 4.37
328.00 4.14
329.00 3.91
330.00 3.69
331.00 3.47
332.00 3.27
333.00 3.07
334.00 2.88
335.00 2.69
336.00 2.52
337.00 2.35
338.00 2.18
339.00 2.03
340.00 1.88
341.00 1.74
342.00 1.60
343.00 1.47
344.00 1.35
345.00 1.24
346.00 1.13
347.00 1.02
348.00 0.93
349.00 0.83
350.00 0.75
351.00 0.66
352.00 0.59
353.00 0.52
354.00 0.45
355.00 0.39
356.00 0.33
357.00 0.28
358.00 0.23
359.00 0.18
VERTICAL 360
0.00 15.49
1.00 9.40
2.00 5.47
3.00 2.84
4.00 1.16
5.00 0.24
6.00 0.00
7.00 0.45
8.00 1.64
9.00 3.73
10.00 7.15
11.00 13.16
12.00 26.61
13.00 18.00
14.00 13.04
15.00 11.78
16.00 12.51
17.00 15.05
18.00 19.73
19.00 22.66
20.00 18.49
21.00 15.65
22.00 14.81
23.00 15.67
24.00 18.55
25.00 25.32
26.00 33.10
27.00 22.78
28.00 19.37
29.00 18.65
30.00 19.73
31.00 22.53
32.00 26.43
33.00 26.14
34.00 22.33
35.00 19.68
36.00 18.29
37.00 17.97
38.00 18.67
39.00 20.57
40.00 24.15
41.00 31.07
42.00 42.63
43.00 32.34
44.00 29.13
45.00 28.78
46.00 30.18
47.00 33.51
48.00 41.98
49.00 42.35
50.00 31.52
51.00 26.53
52.00 23.56
53.00 21.91
54.00 21.35
55.00 21.78
56.00 23.18
57.00 25.57
58.00 29.03
59.00 33.44
60.00 36.47
61.00 34.69
62.00 31.92
63.00 30.09
64.00 29.34
65.00 29.60
66.00 30.72
67.00 32.20
68.00 33.20
69.00 33.33
70.00 33.07
71.00 32.81
72.00 32.48
73.00 31.96
74.00 31.38
75.00 30.93
76.00 30.66
77.00 30.49
78.00 30.32
79.00 30.03
80.00 29.68
81.00 29.48
82.00 29.47
83.00 29.40
84.00 29.14
85.00 28.88
86.00 28.73
87.00 28.59
88.00 28.44
89.00 28.54
90.00 28.94
91.00 29.32
92.00 29.22
93.00 28.66
94.00 28.13
95.00 28.03
96.00 28.55
97.00 29.69
98.00 31.20
99.00 32.68
100.00 33.80
101.00 34.65
102.00 35.56
103.00 36.98
104.00 39.09
105.00 41.59
106.00 43.62
107.00 44.45
108.00 44.26
109.00 44.14
110.00 44.64
111.00 44.66
112.00 43.70
113.00 43.29
114.00 44.08
115.00 45.28
116.00 45.50
117.00 44.77
118.00 43.79
119.00 43.00
120.00 42.66
121.00 42.60
122.00 42.27
123.00 41.16
124.00 39.41
125.00 37.86
126.00 37.16
127.00 37.28
128.00 37.61
129.00 37.68
130.00 37.85
131.00 38.53
132.00 39.36
133.00 40.00
134.00 41.26
135.00 44.70
136.00 52.26
137.00 47.44
138.00 41.04
139.00 37.97
140.00 36.58
141.00 36.26
142.00 36.41
143.00 36.27
144.00 35.72
145.00 35.49
146.00 36.32
147.00 38.54
148.00 41.96
149.00 46.04
150.00 54.31
151.00 48.64
152.00 39.71
153.00 35.79
154.00 34.22
155.00 34.20
156.00 35.26
157.00 36.97
158.00 38.41
159.00 38.47
160.00 37.81
161.00 37.71
162.00 38.00
163.00 37.43
164.00 36.02
165.00 35.01
166.00 34.77
167.00 34.85
168.00 34.91
169.00 35.32
170.00 36.93
171.00 40.18
172.00 42.86
173.00 42.08
174.00 42.25
175.00 44.64
176.00 45.37
177.00 43.93
178.00 44.20
179.00 44.05
180.00 41.58
181.00 40.09
182.00 40.55
183.00 42.37
184.00 44.52
185.00 45.75
186.00 44.07
187.00 41.29
188.00 40.26
189.00 42.01
190.00 48.72
191.00 46.86
192.00 38.82
193.00 35.22
194.00 33.69
195.00 33.55
196.00 34.32
197.00 35.52
198.00 36.71
199.00 37.70
200.00 38.18
201.00 37.75
202.00 36.52
203.00 35.11
204.00 34.19
205.00 34.38
206.00 36.29
207.00 40.94
208.00 45.17
209.00 39.37
210.00 35.72
211.00 34.09
212.00 33.51
213.00 33.58
214.00 34.27
215.00 35.73
216.00 38.13
217.00 41.46
218.00 45.20
219.00 47.80
220.00 48.39
221.00 48.81
222.00 50.96
223.00 52.68
224.00 47.09
225.00 42.12
226.00 39.01
227.00 37.02
228.00 35.75
229.00 35.13
230.00 35.28
231.00 36.34
232.00 38.15
233.00 39.96
234.00 40.72
235.00 40.56
236.00 40.54
237.00 41.31
238.00 42.75
239.00 43.74
240.00 43.81
241.00 44.40
242.00 46.24
243.00 48.07
244.00 47.81
245.00 46.22
246.00 44.67
247.00 43.90
248.00 43.62
249.00 42.53
250.00 41.05
251.00 40.71
252.00 42.13
253.00 45.51
254.00 49.93
255.00 49.07
256.00 44.88
257.00 42.37
258.00 41.47
259.00 41.28
260.00 41.00
261.00 40.99
262.00 41.78
263.00 42.98
264.00 44.25
265.00 45.68
266.00 43.49
267.00 39.20
268.00 36.76
269.00 36.32
270.00 37.52
271.00 39.81
272.00 42.12
273.00 43.14
274.00 42.70
275.00 42.13
276.00 42.57
277.00 44.22
278.00 45.71
279.00 45.54
280.00 45.20
281.00 45.69
282.00 46.43
283.00 46.54
284.00 44.67
285.00 40.43
286.00 36.11
287.00 32.79
288.00 30.47
289.00 28.91
290.00 27.82
291.00 26.97
292.00 26.29
293.00 25.82
294.00 25.66
295.00 25.87
296.00 26.52
297.00 27.71
298.00 29.64
299.00 32.37
300.00 33.97
301.00 30.86
302.00 26.76
303.00 23.74
304.00 21.76
305.00 20.65
306.00 20.21
307.00 20.27
308.00 20.67
309.00 21.27
310.00 22.02
311.00 22.93
312.00 23.91
313.00 24.55
314.00 24.16
315.00 22.78
316.00 21.21
317.00 20.08
318.00 19.65
319.00 20.02
320.00 21.21
321.00 23.16
322.00 25.49
323.00 27.25
324.00 27.55
325.00 26.70
326.00 25.33
327.00 23.73
328.00 22.09
329.00 20.63
330.00 19.63
331.00 19.36
332.00 20.10
333.00 22.33
334.00 26.84
335.00 30.01
336.00 24.40
337.00 20.37
338.00 18.22
339.00 17.33
340.00 17.50
341.00 18.68
342.00 20.92
343.00 23.88
344.00 25.95
345.00 25.99
346.00 26.35
347.00 29.03
348.00 30.97
349.00 24.68
350.00 19.96
351.00 17.47
352.00 16.68
353.00 17.58
354.00 20.74
355.00 29.40
356.00 35.57
357.00 26.12
358.00 27.50
359.00 26.02
