NAME ATR4518R7_1850_X_CO_M45_10T_yyR
FREQUENCY 1850
GAIN 14.65 dBd
TILT	ELECTRICAL
COMMENT DATE 05.08.2013 -45 degrees polarized system Lever position 10T deg
HORIZONTAL 360
0.00 0.09
1.00 0.06
2.00 0.04
3.00 0.02
4.00 0.01
5.00 0.00
6.00 0.00
7.00 0.01
8.00 0.02
9.00 0.03
10.00 0.05
11.00 0.08
12.00 0.12
13.00 0.16
14.00 0.21
15.00 0.26
16.00 0.32
17.00 0.39
18.00 0.47
19.00 0.56
20.00 0.65
21.00 0.76
22.00 0.87
23.00 0.99
24.00 1.12
25.00 1.26
26.00 1.41
27.00 1.58
28.00 1.75
29.00 1.93
30.00 2.12
31.00 2.32
32.00 2.53
33.00 2.75
34.00 2.98
35.00 3.22
36.00 3.47
37.00 3.73
38.00 4.00
39.00 4.27
40.00 4.56
41.00 4.85
42.00 5.15
43.00 5.46
44.00 5.78
45.00 6.10
46.00 6.43
47.00 6.77
48.00 7.11
49.00 7.46
50.00 7.82
51.00 8.18
52.00 8.54
53.00 8.91
54.00 9.29
55.00 9.68
56.00 10.06
57.00 10.45
58.00 10.85
59.00 11.25
60.00 11.66
61.00 12.07
62.00 12.48
63.00 12.90
64.00 13.32
65.00 13.74
66.00 14.17
67.00 14.60
68.00 15.04
69.00 15.47
70.00 15.90
71.00 16.33
72.00 16.77
73.00 17.20
74.00 17.63
75.00 18.06
76.00 18.49
77.00 18.91
78.00 19.34
79.00 19.76
80.00 20.18
81.00 20.61
82.00 21.03
83.00 21.46
84.00 21.90
85.00 22.34
86.00 22.79
87.00 23.26
88.00 23.73
89.00 24.22
90.00 24.73
91.00 25.26
92.00 25.81
93.00 26.37
94.00 26.96
95.00 27.57
96.00 28.19
97.00 28.81
98.00 29.45
99.00 30.07
100.00 30.67
101.00 31.23
102.00 31.74
103.00 32.17
104.00 32.51
105.00 32.75
106.00 32.89
107.00 32.94
108.00 32.91
109.00 32.83
110.00 32.70
111.00 32.55
112.00 32.39
113.00 32.22
114.00 32.07
115.00 31.92
116.00 31.78
117.00 31.66
118.00 31.55
119.00 31.45
120.00 31.36
121.00 31.28
122.00 31.20
123.00 31.13
124.00 31.06
125.00 31.00
126.00 30.95
127.00 30.90
128.00 30.87
129.00 30.85
130.00 30.84
131.00 30.85
132.00 30.89
133.00 30.94
134.00 31.03
135.00 31.14
136.00 31.28
137.00 31.45
138.00 31.66
139.00 31.89
140.00 32.15
141.00 32.44
142.00 32.76
143.00 33.09
144.00 33.42
145.00 33.76
146.00 34.08
147.00 34.36
148.00 34.60
149.00 34.78
150.00 34.90
151.00 34.96
152.00 34.97
153.00 34.92
154.00 34.85
155.00 34.77
156.00 34.69
157.00 34.63
158.00 34.60
159.00 34.62
160.00 34.69
161.00 34.82
162.00 35.02
163.00 35.31
164.00 35.68
165.00 36.16
166.00 36.75
167.00 37.48
168.00 38.36
169.00 39.44
170.00 40.75
171.00 42.39
172.00 44.50
173.00 47.33
174.00 51.55
175.00 59.11
176.00 59.94
177.00 52.29
178.00 48.19
179.00 45.55
180.00 43.68
181.00 42.30
182.00 41.26
183.00 40.49
184.00 39.94
185.00 39.58
186.00 39.39
187.00 39.37
188.00 39.50
189.00 39.80
190.00 40.28
191.00 40.94
192.00 41.80
193.00 42.89
194.00 44.21
195.00 45.69
196.00 47.05
197.00 47.63
198.00 46.91
199.00 45.27
200.00 43.42
201.00 41.70
202.00 40.19
203.00 38.90
204.00 37.79
205.00 36.84
206.00 36.03
207.00 35.35
208.00 34.77
209.00 34.30
210.00 33.91
211.00 33.60
212.00 33.36
213.00 33.19
214.00 33.09
215.00 33.03
216.00 33.02
217.00 33.06
218.00 33.12
219.00 33.20
220.00 33.30
221.00 33.39
222.00 33.46
223.00 33.50
224.00 33.49
225.00 33.42
226.00 33.28
227.00 33.08
228.00 32.82
229.00 32.51
230.00 32.17
231.00 31.79
232.00 31.39
233.00 30.99
234.00 30.59
235.00 30.20
236.00 29.82
237.00 29.45
238.00 29.09
239.00 28.75
240.00 28.42
241.00 28.11
242.00 27.80
243.00 27.50
244.00 27.21
245.00 26.92
246.00 26.63
247.00 26.34
248.00 26.06
249.00 25.76
250.00 25.47
251.00 25.17
252.00 24.86
253.00 24.55
254.00 24.24
255.00 23.91
256.00 23.59
257.00 23.26
258.00 22.92
259.00 22.59
260.00 22.25
261.00 21.91
262.00 21.57
263.00 21.24
264.00 20.90
265.00 20.57
266.00 20.24
267.00 19.91
268.00 19.58
269.00 19.26
270.00 18.94
271.00 18.62
272.00 18.31
273.00 18.00
274.00 17.70
275.00 17.40
276.00 17.10
277.00 16.81
278.00 16.52
279.00 16.24
280.00 15.96
281.00 15.69
282.00 15.41
283.00 15.14
284.00 14.88
285.00 14.62
286.00 14.36
287.00 14.11
288.00 13.86
289.00 13.61
290.00 13.36
291.00 13.12
292.00 12.88
293.00 12.64
294.00 12.41
295.00 12.17
296.00 11.94
297.00 11.71
298.00 11.47
299.00 11.24
300.00 11.01
301.00 10.78
302.00 10.55
303.00 10.31
304.00 10.08
305.00 9.84
306.00 9.60
307.00 9.36
308.00 9.12
309.00 8.87
310.00 8.62
311.00 8.38
312.00 8.12
313.00 7.87
314.00 7.62
315.00 7.36
316.00 7.11
317.00 6.85
318.00 6.60
319.00 6.34
320.00 6.09
321.00 5.83
322.00 5.58
323.00 5.33
324.00 5.09
325.00 4.84
326.00 4.60
327.00 4.37
328.00 4.14
329.00 3.91
330.00 3.69
331.00 3.48
332.00 3.27
333.00 3.06
334.00 2.87
335.00 2.68
336.00 2.49
337.00 2.32
338.00 2.15
339.00 1.98
340.00 1.82
341.00 1.68
342.00 1.53
343.00 1.40
344.00 1.27
345.00 1.15
346.00 1.03
347.00 0.93
348.00 0.83
349.00 0.73
350.00 0.64
351.00 0.56
352.00 0.49
353.00 0.42
354.00 0.35
355.00 0.30
356.00 0.24
357.00 0.20
358.00 0.15
359.00 0.12
VERTICAL 360
0.00 23.09
1.00 27.32
2.00 30.28
3.00 19.07
4.00 12.45
5.00 8.03
6.00 4.87
7.00 2.61
8.00 1.09
9.00 0.23
10.00 0.00
11.00 0.41
12.00 1.50
13.00 3.41
14.00 6.44
15.00 11.47
16.00 22.35
17.00 21.16
18.00 14.24
19.00 12.36
20.00 12.81
21.00 15.45
22.00 21.88
23.00 30.81
24.00 20.07
25.00 16.43
26.00 15.54
27.00 16.46
28.00 19.29
29.00 25.39
30.00 35.66
31.00 24.91
32.00 20.40
33.00 18.59
34.00 18.40
35.00 19.77
36.00 23.23
37.00 29.74
38.00 28.84
39.00 23.31
40.00 20.80
41.00 19.96
42.00 20.15
43.00 21.15
44.00 23.05
45.00 26.55
46.00 34.97
47.00 38.96
48.00 27.85
49.00 24.06
50.00 22.51
51.00 22.17
52.00 22.47
53.00 22.74
54.00 22.43
55.00 21.53
56.00 20.57
57.00 20.00
58.00 19.99
59.00 20.56
60.00 21.58
61.00 22.92
62.00 24.40
63.00 25.86
64.00 27.20
65.00 28.37
66.00 29.47
67.00 30.74
68.00 32.48
69.00 35.01
70.00 38.67
71.00 43.69
72.00 46.85
73.00 43.03
74.00 38.91
75.00 35.90
76.00 33.81
77.00 32.46
78.00 31.61
79.00 31.06
80.00 30.60
81.00 30.08
82.00 29.46
83.00 28.97
84.00 28.91
85.00 29.46
86.00 30.61
87.00 32.31
88.00 34.84
89.00 39.44
90.00 42.94
91.00 35.85
92.00 31.48
93.00 29.51
94.00 29.19
95.00 30.17
96.00 32.13
97.00 34.31
98.00 35.58
99.00 35.91
100.00 36.49
101.00 38.10
102.00 40.86
103.00 43.19
104.00 42.72
105.00 41.79
106.00 41.99
107.00 42.98
108.00 43.66
109.00 42.89
110.00 40.97
111.00 39.16
112.00 38.04
113.00 37.61
114.00 37.61
115.00 37.68
116.00 37.51
117.00 36.99
118.00 36.30
119.00 35.75
120.00 35.66
121.00 36.25
122.00 37.64
123.00 39.58
124.00 41.32
125.00 41.87
126.00 41.10
127.00 39.71
128.00 38.51
129.00 37.91
130.00 37.93
131.00 38.59
132.00 40.52
133.00 45.48
134.00 47.01
135.00 38.53
136.00 34.18
137.00 32.22
138.00 32.01
139.00 33.38
140.00 36.07
141.00 38.34
142.00 37.99
143.00 37.38
144.00 37.87
145.00 38.24
146.00 37.45
147.00 37.40
148.00 40.77
149.00 51.04
150.00 37.75
151.00 32.06
152.00 29.73
153.00 29.31
154.00 30.31
155.00 32.44
156.00 35.58
157.00 39.57
158.00 40.41
159.00 37.34
160.00 36.00
161.00 37.28
162.00 39.89
163.00 37.82
164.00 34.36
165.00 32.88
166.00 32.89
167.00 33.70
168.00 34.94
169.00 36.81
170.00 39.39
171.00 41.17
172.00 41.18
173.00 41.46
174.00 41.31
175.00 39.24
176.00 37.13
177.00 36.10
178.00 36.34
179.00 38.09
180.00 41.94
181.00 46.79
182.00 47.17
183.00 49.41
184.00 61.38
185.00 46.02
186.00 41.79
187.00 42.20
188.00 47.59
189.00 49.67
190.00 41.88
191.00 38.87
192.00 38.17
193.00 38.95
194.00 41.02
195.00 44.40
196.00 48.65
197.00 51.38
198.00 49.31
199.00 45.60
200.00 43.48
201.00 42.90
202.00 41.56
203.00 38.52
204.00 36.27
205.00 35.98
206.00 38.11
207.00 42.70
208.00 43.36
209.00 40.82
210.00 41.76
211.00 44.21
212.00 40.09
213.00 36.35
214.00 35.29
215.00 36.51
216.00 40.06
217.00 46.22
218.00 48.44
219.00 45.31
220.00 45.42
221.00 51.13
222.00 50.74
223.00 40.54
224.00 35.90
225.00 33.52
226.00 32.57
227.00 32.77
228.00 34.08
229.00 36.68
230.00 40.50
231.00 42.39
232.00 40.42
233.00 39.33
234.00 40.27
235.00 43.09
236.00 45.07
237.00 42.08
238.00 38.79
239.00 36.93
240.00 36.49
241.00 37.68
242.00 41.42
243.00 52.23
244.00 45.35
245.00 38.04
246.00 35.02
247.00 33.97
248.00 34.28
249.00 35.56
250.00 37.06
251.00 37.66
252.00 37.03
253.00 35.89
254.00 34.83
255.00 34.15
256.00 34.04
257.00 34.61
258.00 35.80
259.00 37.16
260.00 37.97
261.00 37.99
262.00 37.79
263.00 37.77
264.00 37.88
265.00 37.68
266.00 36.82
267.00 35.42
268.00 34.00
269.00 33.06
270.00 32.80
271.00 33.01
272.00 33.26
273.00 33.48
274.00 34.06
275.00 35.24
276.00 36.49
277.00 36.65
278.00 35.08
279.00 32.65
280.00 30.37
281.00 28.61
282.00 27.28
283.00 26.16
284.00 25.06
285.00 23.96
286.00 23.03
287.00 22.47
288.00 22.43
289.00 22.92
290.00 23.87
291.00 25.11
292.00 26.29
293.00 27.09
294.00 27.58
295.00 28.09
296.00 28.66
297.00 28.85
298.00 28.23
299.00 27.10
300.00 26.13
301.00 25.80
302.00 26.32
303.00 27.62
304.00 29.05
305.00 29.25
306.00 28.00
307.00 26.46
308.00 25.03
309.00 23.58
310.00 22.12
311.00 20.98
312.00 20.46
313.00 20.70
314.00 21.69
315.00 23.29
316.00 24.90
317.00 25.02
318.00 23.09
319.00 20.68
320.00 18.78
321.00 17.62
322.00 17.25
323.00 17.75
324.00 19.25
325.00 22.04
326.00 26.26
327.00 27.81
328.00 24.02
329.00 21.11
330.00 19.64
331.00 19.18
332.00 19.38
333.00 19.88
334.00 20.35
335.00 20.59
336.00 20.78
337.00 21.31
338.00 22.65
339.00 24.97
340.00 25.32
341.00 21.25
342.00 17.60
343.00 15.59
344.00 15.16
345.00 16.47
346.00 20.33
347.00 34.25
348.00 29.25
349.00 21.79
350.00 20.06
351.00 21.04
352.00 25.09
353.00 33.83
354.00 26.70
355.00 21.09
356.00 18.85
357.00 18.46
358.00 19.35
359.00 20.98
