NAME ATR4518R7_1950_X_CO_M45_10T_yyR
FREQUENCY 1950
GAIN 14.35 dBd
TILT	ELECTRICAL
COMMENT DATE 05.08.2013 -45 degrees polarized system Lever position 10T deg
HORIZONTAL 360
0.00 0.08
1.00 0.06
2.00 0.03
3.00 0.02
4.00 0.01
5.00 0.00
6.00 0.00
7.00 0.01
8.00 0.02
9.00 0.04
10.00 0.06
11.00 0.09
12.00 0.12
13.00 0.17
14.00 0.22
15.00 0.27
16.00 0.34
17.00 0.41
18.00 0.49
19.00 0.58
20.00 0.68
21.00 0.78
22.00 0.90
23.00 1.03
24.00 1.17
25.00 1.32
26.00 1.48
27.00 1.65
28.00 1.84
29.00 2.04
30.00 2.25
31.00 2.47
32.00 2.71
33.00 2.96
34.00 3.22
35.00 3.50
36.00 3.79
37.00 4.09
38.00 4.41
39.00 4.74
40.00 5.09
41.00 5.45
42.00 5.82
43.00 6.21
44.00 6.60
45.00 7.01
46.00 7.43
47.00 7.86
48.00 8.29
49.00 8.74
50.00 9.19
51.00 9.64
52.00 10.10
53.00 10.56
54.00 11.02
55.00 11.48
56.00 11.93
57.00 12.38
58.00 12.82
59.00 13.25
60.00 13.67
61.00 14.08
62.00 14.48
63.00 14.87
64.00 15.24
65.00 15.61
66.00 15.96
67.00 16.30
68.00 16.63
69.00 16.95
70.00 17.27
71.00 17.58
72.00 17.88
73.00 18.17
74.00 18.46
75.00 18.75
76.00 19.03
77.00 19.32
78.00 19.59
79.00 19.87
80.00 20.15
81.00 20.43
82.00 20.70
83.00 20.99
84.00 21.27
85.00 21.56
86.00 21.86
87.00 22.17
88.00 22.48
89.00 22.81
90.00 23.16
91.00 23.52
92.00 23.90
93.00 24.30
94.00 24.72
95.00 25.17
96.00 25.65
97.00 26.16
98.00 26.70
99.00 27.28
100.00 27.90
101.00 28.55
102.00 29.26
103.00 30.00
104.00 30.80
105.00 31.63
106.00 32.50
107.00 33.41
108.00 34.31
109.00 35.20
110.00 36.01
111.00 36.70
112.00 37.20
113.00 37.49
114.00 37.55
115.00 37.43
116.00 37.17
117.00 36.84
118.00 36.48
119.00 36.12
120.00 35.80
121.00 35.50
122.00 35.24
123.00 35.01
124.00 34.82
125.00 34.67
126.00 34.54
127.00 34.42
128.00 34.32
129.00 34.23
130.00 34.15
131.00 34.06
132.00 33.98
133.00 33.90
134.00 33.82
135.00 33.74
136.00 33.67
137.00 33.62
138.00 33.59
139.00 33.58
140.00 33.61
141.00 33.67
142.00 33.77
143.00 33.92
144.00 34.13
145.00 34.39
146.00 34.71
147.00 35.10
148.00 35.57
149.00 36.11
150.00 36.75
151.00 37.48
152.00 38.32
153.00 39.28
154.00 40.38
155.00 41.65
156.00 43.10
157.00 44.79
158.00 46.76
159.00 49.12
160.00 51.98
161.00 55.45
162.00 59.00
163.00 59.84
164.00 57.58
165.00 55.17
166.00 53.26
167.00 51.73
168.00 50.39
169.00 49.14
170.00 47.90
171.00 46.68
172.00 45.46
173.00 44.27
174.00 43.15
175.00 42.11
176.00 41.16
177.00 40.31
178.00 39.57
179.00 38.93
180.00 38.40
181.00 37.99
182.00 37.68
183.00 37.50
184.00 37.43
185.00 37.50
186.00 37.70
187.00 38.06
188.00 38.60
189.00 39.35
190.00 40.36
191.00 41.70
192.00 43.50
193.00 45.91
194.00 48.98
195.00 51.14
196.00 48.98
197.00 45.39
198.00 42.40
199.00 40.06
200.00 38.17
201.00 36.62
202.00 35.33
203.00 34.24
204.00 33.32
205.00 32.53
206.00 31.87
207.00 31.31
208.00 30.84
209.00 30.45
210.00 30.14
211.00 29.90
212.00 29.71
213.00 29.58
214.00 29.49
215.00 29.44
216.00 29.42
217.00 29.42
218.00 29.43
219.00 29.44
220.00 29.45
221.00 29.45
222.00 29.42
223.00 29.37
224.00 29.28
225.00 29.17
226.00 29.03
227.00 28.86
228.00 28.68
229.00 28.49
230.00 28.29
231.00 28.09
232.00 27.89
233.00 27.69
234.00 27.50
235.00 27.31
236.00 27.13
237.00 26.94
238.00 26.76
239.00 26.56
240.00 26.36
241.00 26.15
242.00 25.92
243.00 25.68
244.00 25.41
245.00 25.14
246.00 24.84
247.00 24.54
248.00 24.22
249.00 23.90
250.00 23.57
251.00 23.24
252.00 22.91
253.00 22.58
254.00 22.27
255.00 21.96
256.00 21.65
257.00 21.36
258.00 21.07
259.00 20.80
260.00 20.54
261.00 20.28
262.00 20.03
263.00 19.79
264.00 19.55
265.00 19.32
266.00 19.09
267.00 18.87
268.00 18.65
269.00 18.43
270.00 18.20
271.00 17.98
272.00 17.75
273.00 17.52
274.00 17.29
275.00 17.05
276.00 16.81
277.00 16.57
278.00 16.32
279.00 16.06
280.00 15.81
281.00 15.55
282.00 15.29
283.00 15.03
284.00 14.76
285.00 14.49
286.00 14.23
287.00 13.96
288.00 13.69
289.00 13.43
290.00 13.16
291.00 12.89
292.00 12.63
293.00 12.37
294.00 12.11
295.00 11.85
296.00 11.59
297.00 11.34
298.00 11.09
299.00 10.83
300.00 10.59
301.00 10.34
302.00 10.10
303.00 9.85
304.00 9.61
305.00 9.37
306.00 9.13
307.00 8.90
308.00 8.67
309.00 8.43
310.00 8.20
311.00 7.97
312.00 7.74
313.00 7.51
314.00 7.28
315.00 7.05
316.00 6.83
317.00 6.60
318.00 6.38
319.00 6.15
320.00 5.92
321.00 5.70
322.00 5.48
323.00 5.26
324.00 5.04
325.00 4.82
326.00 4.60
327.00 4.38
328.00 4.17
329.00 3.96
330.00 3.75
331.00 3.55
332.00 3.35
333.00 3.15
334.00 2.96
335.00 2.78
336.00 2.59
337.00 2.42
338.00 2.25
339.00 2.08
340.00 1.92
341.00 1.77
342.00 1.62
343.00 1.48
344.00 1.34
345.00 1.22
346.00 1.10
347.00 0.98
348.00 0.87
349.00 0.77
350.00 0.68
351.00 0.59
352.00 0.51
353.00 0.43
354.00 0.37
355.00 0.30
356.00 0.25
357.00 0.20
358.00 0.15
359.00 0.11
VERTICAL 360
0.00 22.65
1.00 23.59
2.00 20.49
3.00 15.93
4.00 11.59
5.00 7.88
6.00 4.94
7.00 2.72
8.00 1.19
9.00 0.29
10.00 0.00
11.00 0.35
12.00 1.46
13.00 3.54
14.00 7.13
15.00 13.81
16.00 26.47
17.00 15.95
18.00 12.55
19.00 12.43
20.00 14.62
21.00 19.77
22.00 27.88
23.00 21.04
24.00 16.47
25.00 14.71
26.00 14.75
27.00 16.69
28.00 21.84
29.00 34.63
30.00 22.70
31.00 17.82
32.00 16.31
33.00 16.74
34.00 18.86
35.00 23.16
36.00 33.45
37.00 33.91
38.00 25.00
39.00 21.79
40.00 20.67
41.00 21.18
42.00 23.74
43.00 30.79
44.00 39.47
45.00 25.97
46.00 21.88
47.00 20.18
48.00 19.76
49.00 20.18
50.00 21.24
51.00 22.92
52.00 25.32
53.00 28.68
54.00 32.66
55.00 34.10
56.00 32.31
57.00 31.08
58.00 31.18
59.00 32.46
60.00 34.55
61.00 36.81
62.00 38.39
63.00 39.05
64.00 40.04
65.00 43.09
66.00 47.57
67.00 44.48
68.00 42.33
69.00 44.65
70.00 51.13
71.00 47.10
72.00 43.96
73.00 44.09
74.00 43.64
75.00 40.60
76.00 36.75
77.00 33.41
78.00 31.15
79.00 29.97
80.00 29.41
81.00 28.87
82.00 28.15
83.00 27.59
84.00 27.59
85.00 28.31
86.00 29.62
87.00 30.96
88.00 31.43
89.00 30.56
90.00 28.90
91.00 27.28
92.00 26.19
93.00 25.78
94.00 25.98
95.00 26.59
96.00 27.27
97.00 27.74
98.00 28.02
99.00 28.30
100.00 28.73
101.00 29.45
102.00 30.59
103.00 32.18
104.00 34.07
105.00 35.88
106.00 37.21
107.00 37.99
108.00 38.89
109.00 40.75
110.00 44.28
111.00 50.66
112.00 62.85
113.00 60.63
114.00 53.94
115.00 47.87
116.00 43.65
117.00 41.42
118.00 40.76
119.00 40.83
120.00 40.17
121.00 38.89
122.00 38.74
123.00 41.30
124.00 50.35
125.00 45.66
126.00 38.47
127.00 35.83
128.00 34.90
129.00 34.44
130.00 34.16
131.00 34.67
132.00 36.85
133.00 41.77
134.00 49.15
135.00 44.21
136.00 38.92
137.00 35.56
138.00 33.62
139.00 33.11
140.00 33.87
141.00 35.19
142.00 35.45
143.00 34.09
144.00 32.41
145.00 31.36
146.00 31.47
147.00 33.26
148.00 37.69
149.00 46.35
150.00 43.30
151.00 38.06
152.00 35.73
153.00 34.67
154.00 34.37
155.00 34.32
156.00 34.49
157.00 35.62
158.00 38.50
159.00 43.49
160.00 47.39
161.00 45.21
162.00 42.12
163.00 41.13
164.00 43.24
165.00 42.89
166.00 37.17
167.00 34.30
168.00 34.27
169.00 36.36
170.00 37.58
171.00 35.87
172.00 35.23
173.00 36.55
174.00 37.64
175.00 36.92
176.00 37.73
177.00 43.14
178.00 46.35
179.00 38.76
180.00 36.80
181.00 38.29
182.00 43.99
183.00 64.21
184.00 45.02
185.00 41.71
186.00 42.62
187.00 47.61
188.00 62.57
189.00 46.33
190.00 38.94
191.00 35.12
192.00 33.63
193.00 34.08
194.00 36.09
195.00 38.72
196.00 40.25
197.00 39.98
198.00 38.87
199.00 37.98
200.00 37.72
201.00 38.05
202.00 39.04
203.00 40.44
204.00 39.56
205.00 35.62
206.00 32.19
207.00 30.30
208.00 29.96
209.00 31.15
210.00 33.76
211.00 37.64
212.00 42.89
213.00 47.62
214.00 42.77
215.00 38.64
216.00 36.65
217.00 35.79
218.00 35.57
219.00 35.85
220.00 36.65
221.00 37.82
222.00 38.94
223.00 39.81
224.00 40.64
225.00 41.38
226.00 41.99
227.00 43.90
228.00 49.80
229.00 51.43
230.00 44.59
231.00 43.02
232.00 45.11
233.00 52.73
234.00 62.26
235.00 48.96
236.00 44.97
237.00 42.22
238.00 39.73
239.00 37.81
240.00 36.78
241.00 36.67
242.00 37.32
243.00 38.20
244.00 38.64
245.00 38.46
246.00 38.07
247.00 37.82
248.00 37.71
249.00 37.39
250.00 36.56
251.00 35.70
252.00 35.45
253.00 36.15
254.00 37.78
255.00 39.91
256.00 41.08
257.00 39.41
258.00 35.97
259.00 33.00
260.00 31.26
261.00 30.79
262.00 31.30
263.00 32.27
264.00 32.99
265.00 32.83
266.00 31.79
267.00 30.63
268.00 29.77
269.00 29.13
270.00 28.70
271.00 28.66
272.00 28.95
273.00 28.97
274.00 28.18
275.00 26.85
276.00 25.71
277.00 25.27
278.00 25.73
279.00 26.96
280.00 28.48
281.00 29.50
282.00 29.66
283.00 29.64
284.00 30.48
285.00 33.01
286.00 38.48
287.00 48.38
288.00 41.47
289.00 36.32
290.00 33.44
291.00 31.16
292.00 29.12
293.00 27.49
294.00 26.54
295.00 26.33
296.00 26.59
297.00 26.79
298.00 26.67
299.00 26.73
300.00 27.51
301.00 29.02
302.00 30.44
303.00 30.41
304.00 28.74
305.00 26.67
306.00 25.24
307.00 24.79
308.00 25.13
309.00 25.68
310.00 25.68
311.00 24.79
312.00 23.36
313.00 21.88
314.00 20.72
315.00 20.16
316.00 20.47
317.00 21.95
318.00 25.22
319.00 33.33
320.00 37.33
321.00 25.22
322.00 20.38
323.00 17.69
324.00 16.35
325.00 16.11
326.00 16.84
327.00 18.02
328.00 18.19
329.00 17.11
330.00 15.49
331.00 13.96
332.00 12.90
333.00 12.50
334.00 12.85
335.00 13.91
336.00 15.61
337.00 17.76
338.00 19.97
339.00 22.07
340.00 24.47
341.00 27.13
342.00 25.71
343.00 21.66
344.00 19.33
345.00 18.59
346.00 19.09
347.00 20.64
348.00 22.81
349.00 23.65
350.00 21.81
351.00 19.86
352.00 19.20
353.00 20.06
354.00 22.03
355.00 22.84
356.00 21.05
357.00 19.41
358.00 19.17
359.00 20.38
