NAME ATR4518R7_2350_X_CO_M45_05T_yyR
FREQUENCY 2350
GAIN 15.16 dBd
TILT	ELECTRICAL
COMMENT DATE 05.08.2013 -45 degrees polarized system Lever position 05T deg
HORIZONTAL 360
0.00 0.00
1.00 0.01
2.00 0.02
3.00 0.04
4.00 0.07
5.00 0.11
6.00 0.16
7.00 0.21
8.00 0.27
9.00 0.33
10.00 0.41
11.00 0.48
12.00 0.57
13.00 0.65
14.00 0.75
15.00 0.84
16.00 0.94
17.00 1.04
18.00 1.15
19.00 1.26
20.00 1.37
21.00 1.49
22.00 1.61
23.00 1.74
24.00 1.87
25.00 2.01
26.00 2.16
27.00 2.31
28.00 2.48
29.00 2.65
30.00 2.83
31.00 3.03
32.00 3.23
33.00 3.45
34.00 3.68
35.00 3.92
36.00 4.18
37.00 4.45
38.00 4.74
39.00 5.04
40.00 5.36
41.00 5.69
42.00 6.03
43.00 6.39
44.00 6.76
45.00 7.15
46.00 7.55
47.00 7.96
48.00 8.38
49.00 8.82
50.00 9.26
51.00 9.71
52.00 10.18
53.00 10.64
54.00 11.12
55.00 11.60
56.00 12.08
57.00 12.57
58.00 13.07
59.00 13.56
60.00 14.07
61.00 14.58
62.00 15.09
63.00 15.61
64.00 16.14
65.00 16.68
66.00 17.22
67.00 17.79
68.00 18.36
69.00 18.94
70.00 19.53
71.00 20.14
72.00 20.76
73.00 21.39
74.00 22.02
75.00 22.65
76.00 23.28
77.00 23.90
78.00 24.50
79.00 25.07
80.00 25.60
81.00 26.08
82.00 26.50
83.00 26.87
84.00 27.19
85.00 27.45
86.00 27.67
87.00 27.86
88.00 28.02
89.00 28.16
90.00 28.30
91.00 28.43
92.00 28.56
93.00 28.68
94.00 28.80
95.00 28.89
96.00 28.97
97.00 29.02
98.00 29.03
99.00 29.00
100.00 28.94
101.00 28.83
102.00 28.70
103.00 28.56
104.00 28.40
105.00 28.25
106.00 28.12
107.00 28.02
108.00 27.95
109.00 27.93
110.00 27.96
111.00 28.05
112.00 28.20
113.00 28.42
114.00 28.71
115.00 29.08
116.00 29.53
117.00 30.08
118.00 30.71
119.00 31.45
120.00 32.29
121.00 33.23
122.00 34.27
123.00 35.39
124.00 36.54
125.00 37.65
126.00 38.59
127.00 39.24
128.00 39.48
129.00 39.39
130.00 39.08
131.00 38.69
132.00 38.33
133.00 38.03
134.00 37.83
135.00 37.73
136.00 37.73
137.00 37.80
138.00 37.92
139.00 38.05
140.00 38.16
141.00 38.19
142.00 38.12
143.00 37.94
144.00 37.65
145.00 37.30
146.00 36.91
147.00 36.52
148.00 36.18
149.00 35.90
150.00 35.71
151.00 35.61
152.00 35.62
153.00 35.75
154.00 36.01
155.00 36.42
156.00 36.97
157.00 37.70
158.00 38.61
159.00 39.73
160.00 41.02
161.00 42.42
162.00 43.65
163.00 44.21
164.00 43.73
165.00 42.48
166.00 41.00
167.00 39.58
168.00 38.33
169.00 37.28
170.00 36.41
171.00 35.71
172.00 35.15
173.00 34.73
174.00 34.43
175.00 34.25
176.00 34.17
177.00 34.18
178.00 34.30
179.00 34.50
180.00 34.79
181.00 35.17
182.00 35.62
183.00 36.15
184.00 36.73
185.00 37.37
186.00 38.05
187.00 38.73
188.00 39.39
189.00 40.00
190.00 40.49
191.00 40.86
192.00 41.08
193.00 41.14
194.00 41.09
195.00 40.94
196.00 40.73
197.00 40.49
198.00 40.23
199.00 39.97
200.00 39.72
201.00 39.48
202.00 39.25
203.00 39.05
204.00 38.86
205.00 38.70
206.00 38.57
207.00 38.47
208.00 38.41
209.00 38.39
210.00 38.42
211.00 38.49
212.00 38.62
213.00 38.82
214.00 39.07
215.00 39.39
216.00 39.78
217.00 40.24
218.00 40.77
219.00 41.37
220.00 42.04
221.00 42.79
222.00 43.60
223.00 44.46
224.00 45.37
225.00 46.32
226.00 47.29
227.00 48.28
228.00 49.29
229.00 50.32
230.00 51.40
231.00 52.55
232.00 53.76
233.00 54.88
234.00 55.41
235.00 54.93
236.00 53.38
237.00 51.36
238.00 49.28
239.00 47.37
240.00 45.62
241.00 44.07
242.00 42.65
243.00 41.37
244.00 40.21
245.00 39.15
246.00 38.17
247.00 37.26
248.00 36.42
249.00 35.63
250.00 34.88
251.00 34.18
252.00 33.50
253.00 32.85
254.00 32.23
255.00 31.62
256.00 31.04
257.00 30.46
258.00 29.90
259.00 29.34
260.00 28.80
261.00 28.26
262.00 27.74
263.00 27.21
264.00 26.70
265.00 26.19
266.00 25.68
267.00 25.18
268.00 24.68
269.00 24.18
270.00 23.68
271.00 23.19
272.00 22.70
273.00 22.21
274.00 21.73
275.00 21.25
276.00 20.77
277.00 20.29
278.00 19.82
279.00 19.36
280.00 18.89
281.00 18.44
282.00 17.99
283.00 17.54
284.00 17.10
285.00 16.67
286.00 16.24
287.00 15.81
288.00 15.39
289.00 14.98
290.00 14.57
291.00 14.16
292.00 13.75
293.00 13.35
294.00 12.95
295.00 12.55
296.00 12.16
297.00 11.77
298.00 11.38
299.00 10.98
300.00 10.60
301.00 10.22
302.00 9.84
303.00 9.46
304.00 9.09
305.00 8.72
306.00 8.36
307.00 8.00
308.00 7.65
309.00 7.30
310.00 6.96
311.00 6.63
312.00 6.31
313.00 5.99
314.00 5.69
315.00 5.39
316.00 5.10
317.00 4.83
318.00 4.56
319.00 4.30
320.00 4.05
321.00 3.82
322.00 3.59
323.00 3.38
324.00 3.17
325.00 2.98
326.00 2.80
327.00 2.62
328.00 2.46
329.00 2.30
330.00 2.16
331.00 2.02
332.00 1.89
333.00 1.77
334.00 1.65
335.00 1.54
336.00 1.44
337.00 1.34
338.00 1.24
339.00 1.15
340.00 1.07
341.00 0.98
342.00 0.90
343.00 0.82
344.00 0.74
345.00 0.67
346.00 0.60
347.00 0.52
348.00 0.46
349.00 0.39
350.00 0.33
351.00 0.27
352.00 0.22
353.00 0.17
354.00 0.12
355.00 0.09
356.00 0.06
357.00 0.03
358.00 0.01
359.00 0.00
VERTICAL 360
0.00 13.19
1.00 7.95
2.00 4.28
3.00 1.83
4.00 0.43
5.00 0.00
6.00 0.60
7.00 2.42
8.00 6.02
9.00 13.59
10.00 28.06
11.00 13.29
12.00 10.53
13.00 11.11
14.00 14.51
15.00 21.10
16.00 19.81
17.00 14.98
18.00 13.38
19.00 13.87
20.00 15.98
21.00 19.04
22.00 20.81
23.00 20.53
24.00 21.27
25.00 26.02
26.00 36.73
27.00 23.11
28.00 18.48
29.00 17.07
30.00 17.54
31.00 19.37
32.00 22.21
33.00 25.92
34.00 30.50
35.00 34.79
36.00 36.48
37.00 32.98
38.00 27.62
39.00 24.34
40.00 23.05
41.00 23.34
42.00 24.89
43.00 27.51
44.00 30.90
45.00 32.41
46.00 29.69
47.00 27.12
48.00 26.31
49.00 27.20
50.00 29.34
51.00 31.09
52.00 30.59
53.00 29.09
54.00 27.99
55.00 27.57
56.00 27.97
57.00 29.47
58.00 32.62
59.00 39.13
60.00 52.22
61.00 40.44
62.00 35.87
63.00 34.15
64.00 33.68
65.00 33.95
66.00 34.73
67.00 35.89
68.00 37.41
69.00 39.47
70.00 42.16
71.00 43.92
72.00 42.52
73.00 39.53
74.00 36.71
75.00 34.52
76.00 32.87
77.00 31.67
78.00 30.95
79.00 30.73
80.00 30.84
81.00 30.96
82.00 30.82
83.00 30.39
84.00 29.86
85.00 29.57
86.00 29.78
87.00 30.58
88.00 31.97
89.00 33.99
90.00 35.32
91.00 33.75
92.00 31.65
93.00 30.79
94.00 31.02
95.00 31.82
96.00 32.87
97.00 33.81
98.00 34.23
99.00 34.29
100.00 34.58
101.00 35.44
102.00 36.89
103.00 38.43
104.00 39.39
105.00 40.06
106.00 41.10
107.00 42.27
108.00 43.46
109.00 45.08
110.00 46.70
111.00 48.30
112.00 51.95
113.00 53.66
114.00 49.53
115.00 48.15
116.00 49.23
117.00 52.15
118.00 58.34
119.00 53.67
120.00 46.98
121.00 44.30
122.00 43.83
123.00 44.85
124.00 47.24
125.00 51.57
126.00 56.74
127.00 52.41
128.00 46.16
129.00 41.31
130.00 37.98
131.00 36.24
132.00 35.84
133.00 36.45
134.00 37.69
135.00 39.32
136.00 41.24
137.00 43.46
138.00 46.98
139.00 47.93
140.00 41.24
141.00 37.42
142.00 36.79
143.00 38.83
144.00 40.94
145.00 39.21
146.00 37.77
147.00 38.49
148.00 42.02
149.00 57.29
150.00 46.75
151.00 40.11
152.00 39.01
153.00 40.69
154.00 41.76
155.00 40.30
156.00 40.49
157.00 43.09
158.00 42.33
159.00 39.19
160.00 38.43
161.00 39.36
162.00 40.74
163.00 43.31
164.00 51.06
165.00 52.44
166.00 43.12
167.00 39.48
168.00 38.11
169.00 38.25
170.00 39.05
171.00 40.23
172.00 42.52
173.00 42.02
174.00 37.52
175.00 34.79
176.00 33.95
177.00 34.55
178.00 35.84
179.00 36.98
180.00 37.69
181.00 38.41
182.00 39.68
183.00 41.60
184.00 43.50
185.00 45.11
186.00 45.52
187.00 43.55
188.00 42.43
189.00 42.28
190.00 40.38
191.00 38.16
192.00 37.43
193.00 37.80
194.00 38.16
195.00 38.04
196.00 37.75
197.00 37.61
198.00 38.19
199.00 39.87
200.00 39.06
201.00 34.60
202.00 31.25
203.00 29.57
204.00 29.09
205.00 29.42
206.00 30.29
207.00 31.59
208.00 32.86
209.00 32.79
210.00 31.53
211.00 30.66
212.00 30.81
213.00 31.84
214.00 33.32
215.00 34.69
216.00 36.00
217.00 37.81
218.00 40.08
219.00 42.99
220.00 49.63
221.00 49.49
222.00 43.23
223.00 42.92
224.00 48.25
225.00 63.02
226.00 44.84
227.00 39.53
228.00 37.07
229.00 36.43
230.00 37.04
231.00 38.20
232.00 39.25
233.00 40.18
234.00 41.12
235.00 41.01
236.00 39.44
237.00 38.35
238.00 38.85
239.00 40.38
240.00 40.43
241.00 38.87
242.00 37.93
243.00 37.97
244.00 38.60
245.00 39.39
246.00 40.32
247.00 41.84
248.00 44.05
249.00 45.66
250.00 44.86
251.00 42.33
252.00 39.96
253.00 37.81
254.00 35.83
255.00 34.91
256.00 35.58
257.00 37.71
258.00 40.77
259.00 41.84
260.00 39.39
261.00 38.41
262.00 40.00
263.00 41.60
264.00 40.21
265.00 37.29
266.00 34.48
267.00 32.70
268.00 30.94
269.00 28.65
270.00 27.02
271.00 26.61
272.00 26.97
273.00 27.21
274.00 26.71
275.00 25.77
276.00 25.06
277.00 24.83
278.00 24.80
279.00 24.57
280.00 24.04
281.00 23.51
282.00 23.20
283.00 22.99
284.00 22.62
285.00 22.02
286.00 21.27
287.00 20.39
288.00 19.43
289.00 18.53
290.00 17.92
291.00 17.72
292.00 17.86
293.00 18.13
294.00 18.37
295.00 18.64
296.00 19.14
297.00 19.98
298.00 21.18
299.00 22.91
300.00 25.66
301.00 30.67
302.00 36.20
303.00 29.88
304.00 24.94
305.00 22.25
306.00 20.86
307.00 20.52
308.00 21.11
309.00 22.31
310.00 23.47
311.00 24.15
312.00 24.65
313.00 24.86
314.00 24.29
315.00 23.72
316.00 24.28
317.00 25.77
318.00 25.68
319.00 23.74
320.00 22.64
321.00 23.24
322.00 25.94
323.00 33.02
324.00 39.68
325.00 27.45
326.00 23.05
327.00 21.12
328.00 20.73
329.00 21.40
330.00 22.06
331.00 21.11
332.00 19.11
333.00 17.54
334.00 16.88
335.00 17.17
336.00 18.32
337.00 19.95
338.00 21.35
339.00 22.55
340.00 24.90
341.00 28.00
342.00 25.54
343.00 21.94
344.00 20.76
345.00 21.80
346.00 25.52
347.00 34.76
348.00 30.66
349.00 23.78
350.00 20.98
351.00 20.05
352.00 20.53
353.00 22.66
354.00 27.33
355.00 34.90
356.00 32.71
357.00 30.78
358.00 30.26
359.00 20.85
