NAME ATR4518R7_1850_X_CO_P45_08T_yL
FREQUENCY 1850
GAIN 14.92 dBd
TILT	ELECTRICAL
COMMENT DATE 05.08.2013 +45 degrees polarized system Lever position 08T deg
HORIZONTAL 360
0.00 0.04
1.00 0.06
2.00 0.08
3.00 0.11
4.00 0.14
5.00 0.17
6.00 0.20
7.00 0.24
8.00 0.27
9.00 0.31
10.00 0.35
11.00 0.38
12.00 0.42
13.00 0.46
14.00 0.50
15.00 0.54
16.00 0.59
17.00 0.63
18.00 0.68
19.00 0.73
20.00 0.79
21.00 0.85
22.00 0.92
23.00 0.99
24.00 1.07
25.00 1.16
26.00 1.25
27.00 1.35
28.00 1.45
29.00 1.57
30.00 1.69
31.00 1.82
32.00 1.96
33.00 2.11
34.00 2.26
35.00 2.43
36.00 2.60
37.00 2.78
38.00 2.96
39.00 3.15
40.00 3.35
41.00 3.56
42.00 3.77
43.00 3.99
44.00 4.21
45.00 4.44
46.00 4.67
47.00 4.90
48.00 5.14
49.00 5.39
50.00 5.64
51.00 5.89
52.00 6.14
53.00 6.40
54.00 6.66
55.00 6.92
56.00 7.19
57.00 7.46
58.00 7.73
59.00 8.00
60.00 8.28
61.00 8.57
62.00 8.85
63.00 9.15
64.00 9.44
65.00 9.74
66.00 10.05
67.00 10.36
68.00 10.68
69.00 11.00
70.00 11.33
71.00 11.66
72.00 12.00
73.00 12.34
74.00 12.68
75.00 13.03
76.00 13.38
77.00 13.73
78.00 14.09
79.00 14.44
80.00 14.80
81.00 15.15
82.00 15.50
83.00 15.85
84.00 16.19
85.00 16.52
86.00 16.85
87.00 17.18
88.00 17.50
89.00 17.81
90.00 18.13
91.00 18.44
92.00 18.76
93.00 19.08
94.00 19.41
95.00 19.76
96.00 20.12
97.00 20.51
98.00 20.93
99.00 21.38
100.00 21.86
101.00 22.40
102.00 22.98
103.00 23.62
104.00 24.33
105.00 25.11
106.00 25.98
107.00 26.94
108.00 28.01
109.00 29.20
110.00 30.53
111.00 32.02
112.00 33.69
113.00 35.54
114.00 37.56
115.00 39.57
116.00 41.22
117.00 41.99
118.00 41.80
119.00 41.08
120.00 40.29
121.00 39.64
122.00 39.15
123.00 38.79
124.00 38.52
125.00 38.24
126.00 37.89
127.00 37.38
128.00 36.71
129.00 35.88
130.00 34.94
131.00 33.99
132.00 33.04
133.00 32.15
134.00 31.34
135.00 30.61
136.00 29.97
137.00 29.43
138.00 28.98
139.00 28.63
140.00 28.36
141.00 28.19
142.00 28.10
143.00 28.11
144.00 28.20
145.00 28.38
146.00 28.65
147.00 29.01
148.00 29.45
149.00 29.98
150.00 30.59
151.00 31.26
152.00 31.98
153.00 32.71
154.00 33.39
155.00 33.96
156.00 34.35
157.00 34.52
158.00 34.47
159.00 34.26
160.00 33.94
161.00 33.60
162.00 33.28
163.00 33.02
164.00 32.84
165.00 32.75
166.00 32.77
167.00 32.90
168.00 33.15
169.00 33.52
170.00 34.02
171.00 34.68
172.00 35.49
173.00 36.49
174.00 37.70
175.00 39.17
176.00 40.97
177.00 43.15
178.00 45.77
179.00 48.46
180.00 49.66
181.00 48.31
182.00 46.15
183.00 44.28
184.00 42.84
185.00 41.79
186.00 41.06
187.00 40.60
188.00 40.37
189.00 40.37
190.00 40.59
191.00 41.03
192.00 41.69
193.00 42.64
194.00 43.91
195.00 45.58
196.00 47.79
197.00 50.58
198.00 53.11
199.00 52.47
200.00 49.39
201.00 46.51
202.00 44.20
203.00 42.36
204.00 40.88
205.00 39.67
206.00 38.67
207.00 37.85
208.00 37.17
209.00 36.61
210.00 36.17
211.00 35.83
212.00 35.59
213.00 35.43
214.00 35.36
215.00 35.37
216.00 35.46
217.00 35.63
218.00 35.87
219.00 36.18
220.00 36.53
221.00 36.91
222.00 37.29
223.00 37.61
224.00 37.81
225.00 37.83
226.00 37.64
227.00 37.24
228.00 36.67
229.00 36.00
230.00 35.27
231.00 34.55
232.00 33.85
233.00 33.20
234.00 32.62
235.00 32.09
236.00 31.64
237.00 31.24
238.00 30.91
239.00 30.63
240.00 30.41
241.00 30.22
242.00 30.08
243.00 29.96
244.00 29.85
245.00 29.74
246.00 29.61
247.00 29.46
248.00 29.26
249.00 29.01
250.00 28.70
251.00 28.34
252.00 27.91
253.00 27.45
254.00 26.95
255.00 26.42
256.00 25.88
257.00 25.33
258.00 24.78
259.00 24.25
260.00 23.72
261.00 23.21
262.00 22.71
263.00 22.23
264.00 21.77
265.00 21.32
266.00 20.89
267.00 20.47
268.00 20.07
269.00 19.68
270.00 19.30
271.00 18.94
272.00 18.58
273.00 18.24
274.00 17.91
275.00 17.58
276.00 17.27
277.00 16.96
278.00 16.66
279.00 16.37
280.00 16.09
281.00 15.81
282.00 15.54
283.00 15.27
284.00 15.01
285.00 14.75
286.00 14.50
287.00 14.25
288.00 14.00
289.00 13.75
290.00 13.50
291.00 13.26
292.00 13.01
293.00 12.75
294.00 12.50
295.00 12.25
296.00 11.99
297.00 11.74
298.00 11.48
299.00 11.22
300.00 10.96
301.00 10.70
302.00 10.44
303.00 10.18
304.00 9.93
305.00 9.68
306.00 9.43
307.00 9.19
308.00 8.95
309.00 8.71
310.00 8.48
311.00 8.25
312.00 8.03
313.00 7.80
314.00 7.58
315.00 7.36
316.00 7.13
317.00 6.90
318.00 6.67
319.00 6.44
320.00 6.21
321.00 5.96
322.00 5.71
323.00 5.46
324.00 5.20
325.00 4.94
326.00 4.67
327.00 4.40
328.00 4.13
329.00 3.86
330.00 3.60
331.00 3.33
332.00 3.07
333.00 2.82
334.00 2.57
335.00 2.34
336.00 2.11
337.00 1.89
338.00 1.69
339.00 1.49
340.00 1.31
341.00 1.14
342.00 0.98
343.00 0.84
344.00 0.71
345.00 0.59
346.00 0.48
347.00 0.39
348.00 0.30
349.00 0.23
350.00 0.17
351.00 0.12
352.00 0.08
353.00 0.05
354.00 0.03
355.00 0.01
356.00 0.00
357.00 0.00
358.00 0.01
359.00 0.02
VERTICAL 360
0.00 24.20
1.00 17.06
2.00 11.61
3.00 7.53
4.00 4.51
5.00 2.35
6.00 0.91
7.00 0.15
8.00 0.02
9.00 0.55
10.00 1.81
11.00 3.94
12.00 7.31
13.00 12.78
14.00 21.13
15.00 17.01
16.00 13.27
17.00 12.34
18.00 13.37
19.00 16.53
20.00 22.46
21.00 21.66
22.00 16.58
23.00 14.12
24.00 13.37
25.00 13.89
26.00 15.64
27.00 18.88
28.00 23.87
29.00 24.20
30.00 19.84
31.00 17.41
32.00 16.79
33.00 17.86
34.00 21.04
35.00 28.27
36.00 29.93
37.00 22.49
38.00 19.29
39.00 17.86
40.00 17.35
41.00 17.38
42.00 17.81
43.00 18.64
44.00 19.89
45.00 21.52
46.00 23.21
47.00 24.32
48.00 24.52
49.00 24.31
50.00 24.19
51.00 24.27
52.00 24.47
53.00 24.85
54.00 25.57
55.00 26.73
56.00 28.26
57.00 29.88
58.00 31.38
59.00 32.86
60.00 34.59
61.00 36.61
62.00 38.76
63.00 40.92
64.00 43.23
65.00 45.16
66.00 44.20
67.00 40.91
68.00 38.00
69.00 36.03
70.00 34.88
71.00 34.30
72.00 33.99
73.00 33.71
74.00 33.34
75.00 32.94
76.00 32.65
77.00 32.58
78.00 32.69
79.00 32.88
80.00 33.06
81.00 33.22
82.00 33.55
83.00 34.29
84.00 35.67
85.00 37.66
86.00 39.52
87.00 39.77
88.00 38.46
89.00 36.87
90.00 35.58
91.00 34.80
92.00 34.50
93.00 34.54
94.00 34.76
95.00 35.16
96.00 35.83
97.00 36.92
98.00 38.42
99.00 40.04
100.00 41.19
101.00 41.42
102.00 40.79
103.00 39.90
104.00 39.41
105.00 39.73
106.00 40.81
107.00 41.83
108.00 41.48
109.00 39.89
110.00 38.13
111.00 36.78
112.00 36.00
113.00 35.77
114.00 35.89
115.00 36.15
116.00 36.39
117.00 36.63
118.00 36.98
119.00 37.48
120.00 37.99
121.00 38.35
122.00 38.58
123.00 38.68
124.00 38.42
125.00 37.78
126.00 37.10
127.00 36.54
128.00 35.95
129.00 35.36
130.00 35.02
131.00 35.10
132.00 35.48
133.00 35.86
134.00 36.02
135.00 35.99
136.00 36.17
137.00 37.14
138.00 39.55
139.00 44.43
140.00 55.39
141.00 57.74
142.00 52.80
143.00 47.93
144.00 42.66
145.00 39.72
146.00 38.87
147.00 39.80
148.00 42.29
149.00 45.80
150.00 48.24
151.00 46.11
152.00 42.69
153.00 40.63
154.00 39.72
155.00 38.62
156.00 36.73
157.00 35.32
158.00 35.38
159.00 37.15
160.00 39.00
161.00 36.89
162.00 33.96
163.00 32.16
164.00 31.11
165.00 30.49
166.00 30.40
167.00 31.14
168.00 33.03
169.00 36.38
170.00 41.39
171.00 45.36
172.00 43.35
173.00 40.92
174.00 39.39
175.00 38.26
176.00 37.02
177.00 35.70
178.00 34.84
179.00 34.87
180.00 35.64
181.00 36.07
182.00 35.40
183.00 34.74
184.00 35.15
185.00 36.77
186.00 38.92
187.00 40.34
188.00 41.46
189.00 43.57
190.00 45.90
191.00 45.64
192.00 44.72
193.00 45.05
194.00 46.51
195.00 48.65
196.00 51.62
197.00 59.17
198.00 56.97
199.00 46.75
200.00 42.69
201.00 41.85
202.00 44.52
203.00 48.82
204.00 40.86
205.00 35.72
206.00 32.78
207.00 30.90
208.00 29.57
209.00 28.67
210.00 28.22
211.00 28.18
212.00 28.51
213.00 29.14
214.00 30.04
215.00 31.17
216.00 32.47
217.00 34.10
218.00 36.53
219.00 40.77
220.00 50.51
221.00 50.64
222.00 42.99
223.00 40.63
224.00 40.30
225.00 41.14
226.00 42.56
227.00 43.80
228.00 44.25
229.00 44.11
230.00 43.87
231.00 43.63
232.00 43.22
233.00 42.60
234.00 41.91
235.00 41.36
236.00 41.15
237.00 41.54
238.00 42.82
239.00 45.10
240.00 47.99
241.00 49.43
242.00 48.98
243.00 48.95
244.00 49.55
245.00 48.82
246.00 46.57
247.00 44.48
248.00 42.80
249.00 41.35
250.00 40.20
251.00 39.61
252.00 39.86
253.00 41.29
254.00 44.48
255.00 50.72
256.00 53.85
257.00 47.34
258.00 43.07
259.00 39.59
260.00 36.71
261.00 34.60
262.00 33.20
263.00 32.38
264.00 31.97
265.00 31.80
266.00 31.76
267.00 31.82
268.00 32.01
269.00 32.34
270.00 32.68
271.00 32.74
272.00 32.24
273.00 31.19
274.00 29.84
275.00 28.53
276.00 27.38
277.00 26.46
278.00 25.81
279.00 25.46
280.00 25.40
281.00 25.61
282.00 26.01
283.00 26.60
284.00 27.46
285.00 28.72
286.00 30.56
287.00 33.30
288.00 37.59
289.00 44.28
290.00 42.90
291.00 37.33
292.00 33.28
293.00 29.75
294.00 26.65
295.00 24.14
296.00 22.30
297.00 21.14
298.00 20.68
299.00 20.89
300.00 21.74
301.00 23.21
302.00 25.35
303.00 28.60
304.00 34.62
305.00 41.59
306.00 31.19
307.00 26.47
308.00 24.08
309.00 23.06
310.00 23.11
311.00 24.19
312.00 26.67
313.00 32.08
314.00 41.68
315.00 28.88
316.00 23.54
317.00 20.71
318.00 19.32
319.00 19.02
320.00 19.79
321.00 21.83
322.00 26.05
323.00 37.19
324.00 29.42
325.00 22.51
326.00 19.14
327.00 17.44
328.00 16.92
329.00 17.48
330.00 19.16
331.00 22.05
332.00 25.74
333.00 27.26
334.00 26.28
335.00 26.35
336.00 28.73
337.00 32.13
338.00 27.41
339.00 22.62
340.00 19.98
341.00 18.92
342.00 19.26
343.00 21.09
344.00 24.74
345.00 29.88
346.00 30.11
347.00 28.28
348.00 28.95
349.00 29.04
350.00 24.18
351.00 19.86
352.00 17.22
353.00 15.96
354.00 15.94
355.00 17.18
356.00 19.93
357.00 24.79
358.00 32.92
359.00 32.86
