NAME ATR4518R7_1950_X_CO_M45_04T_yyR
FREQUENCY 1950
GAIN 15.38 dBd
TILT	ELECTRICAL
COMMENT DATE 05.08.2013 -45 degrees polarized system Lever position 04T deg
HORIZONTAL 360
0.00 0.13
1.00 0.10
2.00 0.07
3.00 0.04
4.00 0.02
5.00 0.01
6.00 0.00
7.00 0.00
8.00 0.01
9.00 0.02
10.00 0.05
11.00 0.08
12.00 0.11
13.00 0.16
14.00 0.21
15.00 0.28
16.00 0.35
17.00 0.43
18.00 0.53
19.00 0.63
20.00 0.74
21.00 0.87
22.00 1.00
23.00 1.15
24.00 1.30
25.00 1.47
26.00 1.65
27.00 1.84
28.00 2.05
29.00 2.27
30.00 2.49
31.00 2.73
32.00 2.98
33.00 3.25
34.00 3.52
35.00 3.81
36.00 4.11
37.00 4.42
38.00 4.74
39.00 5.07
40.00 5.41
41.00 5.77
42.00 6.14
43.00 6.51
44.00 6.90
45.00 7.30
46.00 7.70
47.00 8.12
48.00 8.55
49.00 8.99
50.00 9.44
51.00 9.89
52.00 10.36
53.00 10.83
54.00 11.31
55.00 11.80
56.00 12.29
57.00 12.79
58.00 13.29
59.00 13.79
60.00 14.28
61.00 14.78
62.00 15.27
63.00 15.74
64.00 16.21
65.00 16.66
66.00 17.10
67.00 17.52
68.00 17.92
69.00 18.30
70.00 18.66
71.00 19.01
72.00 19.33
73.00 19.65
74.00 19.95
75.00 20.25
76.00 20.55
77.00 20.85
78.00 21.15
79.00 21.46
80.00 21.79
81.00 22.13
82.00 22.50
83.00 22.88
84.00 23.30
85.00 23.74
86.00 24.21
87.00 24.73
88.00 25.28
89.00 25.87
90.00 26.51
91.00 27.21
92.00 27.96
93.00 28.78
94.00 29.67
95.00 30.64
96.00 31.73
97.00 32.94
98.00 34.30
99.00 35.87
100.00 37.72
101.00 39.97
102.00 42.85
103.00 46.76
104.00 51.84
105.00 51.77
106.00 47.00
107.00 43.46
108.00 40.92
109.00 38.99
110.00 37.46
111.00 36.18
112.00 35.11
113.00 34.20
114.00 33.39
115.00 32.70
116.00 32.08
117.00 31.54
118.00 31.07
119.00 30.65
120.00 30.29
121.00 29.98
122.00 29.72
123.00 29.51
124.00 29.35
125.00 29.23
126.00 29.16
127.00 29.13
128.00 29.14
129.00 29.20
130.00 29.31
131.00 29.46
132.00 29.65
133.00 29.89
134.00 30.17
135.00 30.50
136.00 30.88
137.00 31.30
138.00 31.76
139.00 32.27
140.00 32.83
141.00 33.42
142.00 34.06
143.00 34.73
144.00 35.44
145.00 36.17
146.00 36.92
147.00 37.69
148.00 38.45
149.00 39.21
150.00 39.96
151.00 40.65
152.00 41.29
153.00 41.82
154.00 42.22
155.00 42.44
156.00 42.46
157.00 42.27
158.00 41.88
159.00 41.34
160.00 40.68
161.00 39.98
162.00 39.25
163.00 38.54
164.00 37.86
165.00 37.24
166.00 36.67
167.00 36.17
168.00 35.74
169.00 35.38
170.00 35.10
171.00 34.89
172.00 34.76
173.00 34.72
174.00 34.76
175.00 34.89
176.00 35.12
177.00 35.45
178.00 35.90
179.00 36.47
180.00 37.17
181.00 38.04
182.00 39.08
183.00 40.30
184.00 41.70
185.00 43.14
186.00 44.31
187.00 44.65
188.00 43.90
189.00 42.48
190.00 40.92
191.00 39.45
192.00 38.17
193.00 37.07
194.00 36.14
195.00 35.37
196.00 34.73
197.00 34.21
198.00 33.82
199.00 33.52
200.00 33.32
201.00 33.22
202.00 33.20
203.00 33.27
204.00 33.42
205.00 33.65
206.00 33.95
207.00 34.32
208.00 34.72
209.00 35.15
210.00 35.56
211.00 35.91
212.00 36.15
213.00 36.24
214.00 36.14
215.00 35.85
216.00 35.42
217.00 34.89
218.00 34.32
219.00 33.75
220.00 33.20
221.00 32.70
222.00 32.25
223.00 31.86
224.00 31.53
225.00 31.28
226.00 31.09
227.00 30.96
228.00 30.90
229.00 30.90
230.00 30.97
231.00 31.09
232.00 31.27
233.00 31.49
234.00 31.77
235.00 32.08
236.00 32.41
237.00 32.74
238.00 33.05
239.00 33.31
240.00 33.49
241.00 33.55
242.00 33.49
243.00 33.29
244.00 32.97
245.00 32.56
246.00 32.07
247.00 31.54
248.00 31.00
249.00 30.46
250.00 29.92
251.00 29.41
252.00 28.92
253.00 28.45
254.00 28.01
255.00 27.58
256.00 27.18
257.00 26.79
258.00 26.42
259.00 26.05
260.00 25.69
261.00 25.34
262.00 24.98
263.00 24.63
264.00 24.26
265.00 23.90
266.00 23.53
267.00 23.15
268.00 22.77
269.00 22.38
270.00 21.98
271.00 21.58
272.00 21.18
273.00 20.77
274.00 20.37
275.00 19.96
276.00 19.56
277.00 19.17
278.00 18.78
279.00 18.39
280.00 18.02
281.00 17.65
282.00 17.28
283.00 16.93
284.00 16.58
285.00 16.24
286.00 15.92
287.00 15.59
288.00 15.28
289.00 14.97
290.00 14.67
291.00 14.37
292.00 14.08
293.00 13.80
294.00 13.52
295.00 13.24
296.00 12.96
297.00 12.69
298.00 12.42
299.00 12.15
300.00 11.88
301.00 11.61
302.00 11.34
303.00 11.07
304.00 10.80
305.00 10.53
306.00 10.26
307.00 9.99
308.00 9.72
309.00 9.44
310.00 9.16
311.00 8.89
312.00 8.61
313.00 8.33
314.00 8.06
315.00 7.78
316.00 7.51
317.00 7.23
318.00 6.96
319.00 6.69
320.00 6.42
321.00 6.15
322.00 5.89
323.00 5.63
324.00 5.37
325.00 5.12
326.00 4.87
327.00 4.63
328.00 4.39
329.00 4.16
330.00 3.93
331.00 3.71
332.00 3.50
333.00 3.29
334.00 3.09
335.00 2.90
336.00 2.71
337.00 2.53
338.00 2.36
339.00 2.19
340.00 2.03
341.00 1.87
342.00 1.73
343.00 1.59
344.00 1.45
345.00 1.33
346.00 1.21
347.00 1.09
348.00 0.98
349.00 0.88
350.00 0.79
351.00 0.70
352.00 0.61
353.00 0.53
354.00 0.46
355.00 0.39
356.00 0.33
357.00 0.27
358.00 0.22
359.00 0.17
VERTICAL 360
0.00 6.29
1.00 3.48
2.00 1.55
3.00 0.40
4.00 0.00
5.00 0.37
6.00 1.60
7.00 3.88
8.00 7.64
9.00 14.51
10.00 27.85
11.00 16.96
12.00 12.94
13.00 12.49
14.00 14.59
15.00 20.14
16.00 24.48
17.00 18.19
18.00 15.23
19.00 14.81
20.00 16.20
21.00 19.51
22.00 26.72
23.00 33.56
24.00 22.61
25.00 18.67
26.00 17.53
27.00 18.55
28.00 22.27
29.00 34.60
30.00 31.37
31.00 23.16
32.00 20.62
33.00 20.07
34.00 20.83
35.00 22.91
36.00 26.88
37.00 32.69
38.00 30.86
39.00 26.37
40.00 24.29
41.00 23.64
42.00 23.74
43.00 24.00
44.00 24.04
45.00 23.80
46.00 23.48
47.00 23.43
48.00 23.93
49.00 25.28
50.00 27.78
51.00 31.69
52.00 35.12
53.00 33.79
54.00 31.59
55.00 30.79
56.00 31.30
57.00 33.23
58.00 37.35
59.00 46.27
60.00 44.42
61.00 37.74
62.00 35.04
63.00 33.94
64.00 33.66
65.00 33.92
66.00 34.67
67.00 35.82
68.00 36.88
69.00 36.87
70.00 35.68
71.00 34.29
72.00 33.32
73.00 32.86
74.00 32.64
75.00 32.24
76.00 31.49
77.00 30.61
78.00 29.81
79.00 29.14
80.00 28.55
81.00 27.93
82.00 27.21
83.00 26.51
84.00 26.06
85.00 26.02
86.00 26.48
87.00 27.45
88.00 28.85
89.00 30.47
90.00 31.85
91.00 32.28
92.00 31.26
93.00 29.51
94.00 28.12
95.00 27.59
96.00 28.09
97.00 29.57
98.00 31.85
99.00 34.50
100.00 36.83
101.00 38.47
102.00 40.12
103.00 43.26
104.00 51.32
105.00 58.13
106.00 46.77
107.00 43.90
108.00 43.09
109.00 42.77
110.00 42.08
111.00 40.92
112.00 39.93
113.00 39.77
114.00 40.68
115.00 42.54
116.00 44.75
117.00 45.93
118.00 45.35
119.00 44.50
120.00 44.81
121.00 46.94
122.00 50.70
123.00 51.09
124.00 47.25
125.00 44.32
126.00 42.53
127.00 41.73
128.00 42.12
129.00 44.07
130.00 47.16
131.00 47.55
132.00 45.50
133.00 45.31
134.00 47.90
135.00 50.15
136.00 46.20
137.00 42.89
138.00 41.34
139.00 40.28
140.00 38.83
141.00 37.47
142.00 37.14
143.00 38.61
144.00 43.40
145.00 55.04
146.00 45.52
147.00 40.82
148.00 39.97
149.00 40.86
150.00 42.10
151.00 42.22
152.00 40.84
153.00 39.48
154.00 39.70
155.00 42.59
156.00 46.39
157.00 42.89
158.00 39.90
159.00 39.50
160.00 40.15
161.00 40.09
162.00 39.43
163.00 39.15
164.00 39.37
165.00 39.84
166.00 39.71
167.00 38.41
168.00 37.24
169.00 37.46
170.00 39.74
171.00 45.32
172.00 58.58
173.00 50.27
174.00 45.77
175.00 44.83
176.00 44.62
177.00 44.42
178.00 46.50
179.00 56.93
180.00 45.48
181.00 38.51
182.00 36.15
183.00 36.52
184.00 39.40
185.00 44.96
186.00 52.30
187.00 50.32
188.00 43.48
189.00 40.14
190.00 39.72
191.00 41.43
192.00 42.87
193.00 42.83
194.00 43.95
195.00 44.71
196.00 42.27
197.00 40.44
198.00 39.35
199.00 37.52
200.00 35.81
201.00 34.95
202.00 34.26
203.00 33.31
204.00 33.02
205.00 34.37
206.00 38.01
207.00 43.30
208.00 45.02
209.00 46.27
210.00 54.34
211.00 53.99
212.00 49.22
213.00 55.61
214.00 54.15
215.00 43.50
216.00 40.08
217.00 39.38
218.00 40.42
219.00 42.52
220.00 44.63
221.00 46.34
222.00 48.96
223.00 51.51
224.00 47.91
225.00 44.51
226.00 44.13
227.00 47.23
228.00 50.70
229.00 45.34
230.00 41.86
231.00 41.24
232.00 42.87
233.00 46.97
234.00 51.23
235.00 46.44
236.00 41.68
237.00 38.87
238.00 37.18
239.00 36.22
240.00 35.88
241.00 36.33
242.00 37.94
243.00 41.62
244.00 51.35
245.00 51.37
246.00 43.20
247.00 41.22
248.00 42.02
249.00 44.91
250.00 47.46
251.00 45.57
252.00 42.47
253.00 39.84
254.00 37.62
255.00 36.00
256.00 35.33
257.00 35.97
258.00 38.42
259.00 44.01
260.00 57.67
261.00 49.62
262.00 44.69
263.00 42.47
264.00 40.57
265.00 39.03
266.00 37.87
267.00 36.87
268.00 35.90
269.00 34.94
270.00 33.78
271.00 32.37
272.00 30.98
273.00 29.95
274.00 29.46
275.00 29.54
276.00 30.12
277.00 31.03
278.00 31.98
279.00 32.65
280.00 32.84
281.00 32.70
282.00 32.62
283.00 32.96
284.00 34.01
285.00 36.04
286.00 39.49
287.00 43.60
288.00 41.39
289.00 36.43
290.00 32.93
291.00 30.48
292.00 28.64
293.00 27.11
294.00 25.77
295.00 24.65
296.00 23.91
297.00 23.68
298.00 24.04
299.00 24.98
300.00 26.37
301.00 27.86
302.00 28.86
303.00 29.03
304.00 28.81
305.00 28.86
306.00 29.65
307.00 31.59
308.00 35.38
309.00 41.32
310.00 37.81
311.00 31.22
312.00 26.85
313.00 23.67
314.00 21.38
315.00 19.89
316.00 19.11
317.00 18.87
318.00 18.98
319.00 19.19
320.00 19.29
321.00 19.14
322.00 18.71
323.00 18.03
324.00 17.30
325.00 16.79
326.00 16.67
327.00 16.93
328.00 17.23
329.00 17.17
330.00 16.79
331.00 16.59
332.00 17.07
333.00 18.72
334.00 22.35
335.00 31.74
336.00 35.02
337.00 24.71
338.00 22.07
339.00 22.26
340.00 25.19
341.00 32.31
342.00 30.40
343.00 24.03
344.00 21.58
345.00 21.45
346.00 23.58
347.00 29.36
348.00 32.81
349.00 24.80
350.00 21.03
351.00 19.86
352.00 20.83
353.00 24.48
354.00 32.98
355.00 33.76
356.00 28.41
357.00 22.60
358.00 15.58
359.00 10.19
