NAME ATR4518R7_1880_X_CO_M45_00T_yL
FREQUENCY 1880
GAIN 14.89 dBd
TILT	ELECTRICAL
COMMENT DATE 05.08.2013 -45 degrees polarized system Lever position 00T deg
HORIZONTAL 360
0.00 0.02
1.00 0.01
2.00 0.00
3.00 0.00
4.00 0.01
5.00 0.02
6.00 0.03
7.00 0.06
8.00 0.09
9.00 0.12
10.00 0.16
11.00 0.21
12.00 0.26
13.00 0.32
14.00 0.38
15.00 0.44
16.00 0.51
17.00 0.59
18.00 0.68
19.00 0.76
20.00 0.86
21.00 0.95
22.00 1.06
23.00 1.17
24.00 1.29
25.00 1.41
26.00 1.54
27.00 1.67
28.00 1.82
29.00 1.97
30.00 2.12
31.00 2.29
32.00 2.46
33.00 2.64
34.00 2.82
35.00 3.02
36.00 3.22
37.00 3.43
38.00 3.65
39.00 3.88
40.00 4.11
41.00 4.35
42.00 4.60
43.00 4.86
44.00 5.13
45.00 5.40
46.00 5.68
47.00 5.97
48.00 6.26
49.00 6.56
50.00 6.87
51.00 7.19
52.00 7.50
53.00 7.83
54.00 8.16
55.00 8.49
56.00 8.83
57.00 9.17
58.00 9.52
59.00 9.87
60.00 10.23
61.00 10.59
62.00 10.96
63.00 11.33
64.00 11.71
65.00 12.10
66.00 12.49
67.00 12.88
68.00 13.28
69.00 13.70
70.00 14.11
71.00 14.53
72.00 14.96
73.00 15.40
74.00 15.84
75.00 16.29
76.00 16.74
77.00 17.21
78.00 17.67
79.00 18.15
80.00 18.62
81.00 19.11
82.00 19.60
83.00 20.09
84.00 20.60
85.00 21.11
86.00 21.64
87.00 22.18
88.00 22.73
89.00 23.31
90.00 23.91
91.00 24.54
92.00 25.21
93.00 25.92
94.00 26.68
95.00 27.50
96.00 28.38
97.00 29.35
98.00 30.39
99.00 31.53
100.00 32.75
101.00 34.05
102.00 35.36
103.00 36.57
104.00 37.48
105.00 37.88
106.00 37.73
107.00 37.16
108.00 36.40
109.00 35.62
110.00 34.90
111.00 34.27
112.00 33.75
113.00 33.33
114.00 33.00
115.00 32.74
116.00 32.55
117.00 32.38
118.00 32.23
119.00 32.07
120.00 31.88
121.00 31.63
122.00 31.31
123.00 30.93
124.00 30.49
125.00 30.01
126.00 29.50
127.00 28.99
128.00 28.50
129.00 28.02
130.00 27.59
131.00 27.20
132.00 26.85
133.00 26.57
134.00 26.34
135.00 26.16
136.00 26.05
137.00 25.99
138.00 26.00
139.00 26.07
140.00 26.20
141.00 26.39
142.00 26.64
143.00 26.97
144.00 27.36
145.00 27.82
146.00 28.35
147.00 28.96
148.00 29.63
149.00 30.37
150.00 31.14
151.00 31.92
152.00 32.65
153.00 33.24
154.00 33.59
155.00 33.62
156.00 33.33
157.00 32.80
158.00 32.14
159.00 31.42
160.00 30.73
161.00 30.09
162.00 29.53
163.00 29.06
164.00 28.69
165.00 28.41
166.00 28.24
167.00 28.17
168.00 28.21
169.00 28.36
170.00 28.62
171.00 29.00
172.00 29.51
173.00 30.15
174.00 30.92
175.00 31.81
176.00 32.77
177.00 33.70
178.00 34.43
179.00 34.71
180.00 34.41
181.00 33.65
182.00 32.66
183.00 31.62
184.00 30.66
185.00 29.82
186.00 29.12
187.00 28.56
188.00 28.14
189.00 27.86
190.00 27.72
191.00 27.71
192.00 27.84
193.00 28.12
194.00 28.56
195.00 29.17
196.00 29.98
197.00 31.02
198.00 32.35
199.00 34.03
200.00 36.16
201.00 38.74
202.00 41.13
203.00 41.16
204.00 38.82
205.00 36.25
206.00 34.14
207.00 32.46
208.00 31.15
209.00 30.12
210.00 29.33
211.00 28.73
212.00 28.31
213.00 28.04
214.00 27.92
215.00 27.94
216.00 28.11
217.00 28.41
218.00 28.86
219.00 29.47
220.00 30.24
221.00 31.20
222.00 32.33
223.00 33.62
224.00 34.95
225.00 36.01
226.00 36.31
227.00 35.64
228.00 34.33
229.00 32.84
230.00 31.40
231.00 30.13
232.00 29.01
233.00 28.04
234.00 27.21
235.00 26.50
236.00 25.89
237.00 25.38
238.00 24.94
239.00 24.57
240.00 24.26
241.00 24.00
242.00 23.79
243.00 23.62
244.00 23.48
245.00 23.36
246.00 23.26
247.00 23.16
248.00 23.08
249.00 22.99
250.00 22.89
251.00 22.79
252.00 22.67
253.00 22.53
254.00 22.37
255.00 22.20
256.00 22.01
257.00 21.80
258.00 21.58
259.00 21.35
260.00 21.10
261.00 20.84
262.00 20.57
263.00 20.29
264.00 20.01
265.00 19.71
266.00 19.41
267.00 19.11
268.00 18.79
269.00 18.47
270.00 18.14
271.00 17.81
272.00 17.48
273.00 17.14
274.00 16.80
275.00 16.46
276.00 16.12
277.00 15.78
278.00 15.45
279.00 15.12
280.00 14.79
281.00 14.46
282.00 14.14
283.00 13.83
284.00 13.52
285.00 13.21
286.00 12.91
287.00 12.60
288.00 12.31
289.00 12.02
290.00 11.73
291.00 11.44
292.00 11.16
293.00 10.88
294.00 10.60
295.00 10.33
296.00 10.06
297.00 9.80
298.00 9.53
299.00 9.28
300.00 9.02
301.00 8.78
302.00 8.54
303.00 8.30
304.00 8.07
305.00 7.84
306.00 7.62
307.00 7.40
308.00 7.19
309.00 6.98
310.00 6.77
311.00 6.56
312.00 6.36
313.00 6.16
314.00 5.95
315.00 5.75
316.00 5.55
317.00 5.35
318.00 5.14
319.00 4.94
320.00 4.74
321.00 4.54
322.00 4.34
323.00 4.14
324.00 3.95
325.00 3.76
326.00 3.57
327.00 3.39
328.00 3.21
329.00 3.04
330.00 2.87
331.00 2.71
332.00 2.56
333.00 2.41
334.00 2.27
335.00 2.13
336.00 1.99
337.00 1.87
338.00 1.74
339.00 1.62
340.00 1.51
341.00 1.39
342.00 1.28
343.00 1.18
344.00 1.07
345.00 0.97
346.00 0.88
347.00 0.78
348.00 0.69
349.00 0.61
350.00 0.52
351.00 0.45
352.00 0.38
353.00 0.31
354.00 0.25
355.00 0.20
356.00 0.15
357.00 0.11
358.00 0.07
359.00 0.04
VERTICAL 360
0.00 0.00
1.00 0.17
2.00 1.05
3.00 2.76
4.00 5.60
5.00 10.33
6.00 20.45
7.00 22.10
8.00 14.41
9.00 12.60
10.00 13.25
11.00 15.87
12.00 19.43
13.00 18.89
14.00 16.08
15.00 14.57
16.00 14.43
17.00 15.42
18.00 16.98
19.00 17.75
20.00 17.00
21.00 16.10
22.00 16.00
23.00 16.94
24.00 19.02
25.00 22.53
26.00 27.76
27.00 28.31
28.00 23.67
29.00 20.85
30.00 19.57
31.00 19.36
32.00 19.87
33.00 20.76
34.00 21.67
35.00 22.12
36.00 21.72
37.00 20.60
38.00 19.32
39.00 18.24
40.00 17.46
41.00 16.96
42.00 16.69
43.00 16.71
44.00 17.11
45.00 18.00
46.00 19.49
47.00 21.73
48.00 25.04
49.00 30.30
50.00 41.47
51.00 37.45
52.00 30.86
53.00 27.79
54.00 25.98
55.00 24.89
56.00 24.45
57.00 24.67
58.00 25.53
59.00 26.93
60.00 28.64
61.00 30.40
62.00 32.08
63.00 33.73
64.00 35.40
65.00 36.59
66.00 36.70
67.00 36.40
68.00 36.57
69.00 37.33
70.00 38.12
71.00 38.13
72.00 37.19
73.00 35.94
74.00 35.02
75.00 34.73
76.00 35.06
77.00 35.88
78.00 37.04
79.00 38.39
80.00 39.54
81.00 39.91
82.00 39.60
83.00 39.70
84.00 41.68
85.00 48.78
86.00 50.65
87.00 41.12
88.00 38.19
89.00 37.92
90.00 38.96
91.00 39.50
92.00 39.27
93.00 39.99
94.00 42.79
95.00 48.66
96.00 52.64
97.00 47.69
98.00 44.87
99.00 43.59
100.00 43.53
101.00 44.67
102.00 46.69
103.00 48.66
104.00 49.62
105.00 49.91
106.00 50.43
107.00 51.57
108.00 51.97
109.00 49.63
110.00 46.51
111.00 44.03
112.00 42.42
113.00 41.77
114.00 42.25
115.00 44.09
116.00 47.40
117.00 49.42
118.00 46.29
119.00 43.22
120.00 41.47
121.00 40.47
122.00 39.52
123.00 38.48
124.00 37.99
125.00 38.79
126.00 41.69
127.00 48.62
128.00 54.92
129.00 47.14
130.00 45.36
131.00 45.90
132.00 46.46
133.00 45.18
134.00 42.86
135.00 40.92
136.00 39.92
137.00 39.83
138.00 40.16
139.00 39.98
140.00 38.61
141.00 36.50
142.00 34.68
143.00 33.69
144.00 33.58
145.00 33.98
146.00 34.43
147.00 35.09
148.00 36.76
149.00 40.52
150.00 49.01
151.00 52.83
152.00 44.31
153.00 40.56
154.00 38.30
155.00 37.42
156.00 37.94
157.00 39.07
158.00 38.84
159.00 37.39
160.00 36.31
161.00 35.73
162.00 35.24
163.00 34.76
164.00 34.60
165.00 34.98
166.00 35.95
167.00 37.41
168.00 39.11
169.00 40.38
170.00 40.49
171.00 39.45
172.00 38.00
173.00 36.74
174.00 35.73
175.00 34.83
176.00 33.87
177.00 32.84
178.00 32.00
179.00 31.71
180.00 32.13
181.00 33.68
182.00 36.16
183.00 39.21
184.00 42.38
185.00 42.78
186.00 39.55
187.00 37.69
188.00 38.32
189.00 40.29
190.00 37.91
191.00 34.42
192.00 32.95
193.00 33.39
194.00 35.36
195.00 38.34
196.00 41.59
197.00 45.62
198.00 52.89
199.00 49.35
200.00 43.49
201.00 40.97
202.00 40.92
203.00 44.17
204.00 54.20
205.00 43.38
206.00 38.04
207.00 36.03
208.00 35.88
209.00 36.75
210.00 37.66
211.00 38.02
212.00 38.03
213.00 37.40
214.00 35.61
215.00 33.44
216.00 31.77
217.00 30.87
218.00 30.75
219.00 31.33
220.00 32.32
221.00 33.10
222.00 33.28
223.00 33.37
224.00 34.17
225.00 36.09
226.00 38.86
227.00 39.63
228.00 37.31
229.00 35.28
230.00 34.39
231.00 34.53
232.00 35.57
233.00 37.45
234.00 40.15
235.00 43.35
236.00 45.46
237.00 45.34
238.00 44.44
239.00 43.68
240.00 43.51
241.00 44.41
242.00 46.34
243.00 47.92
244.00 47.51
245.00 46.22
246.00 44.65
247.00 42.89
248.00 41.42
249.00 40.63
250.00 40.61
251.00 41.23
252.00 42.24
253.00 43.43
254.00 44.94
255.00 46.91
256.00 48.41
257.00 47.86
258.00 46.19
259.00 44.79
260.00 44.26
261.00 44.70
262.00 44.80
263.00 42.63
264.00 39.74
265.00 37.52
266.00 36.02
267.00 35.05
268.00 34.35
269.00 33.59
270.00 32.66
271.00 31.84
272.00 31.38
273.00 31.34
274.00 31.48
275.00 31.44
276.00 31.02
277.00 30.32
278.00 29.65
279.00 29.26
280.00 29.24
281.00 29.60
282.00 30.31
283.00 31.35
284.00 32.71
285.00 34.19
286.00 34.70
287.00 32.97
288.00 30.21
289.00 27.74
290.00 25.84
291.00 24.48
292.00 23.58
293.00 23.05
294.00 22.82
295.00 22.76
296.00 22.76
297.00 22.75
298.00 22.87
299.00 23.38
300.00 24.55
301.00 26.52
302.00 28.80
303.00 29.37
304.00 27.75
305.00 25.90
306.00 24.44
307.00 23.20
308.00 22.14
309.00 21.39
310.00 21.07
311.00 21.20
312.00 21.60
313.00 21.95
314.00 22.03
315.00 21.87
316.00 21.60
317.00 21.25
318.00 20.74
319.00 20.04
320.00 19.27
321.00 18.62
322.00 18.24
323.00 18.25
324.00 18.74
325.00 19.87
326.00 21.84
327.00 24.69
328.00 26.48
329.00 24.30
330.00 21.59
331.00 20.07
332.00 19.85
333.00 21.07
334.00 24.46
335.00 32.51
336.00 28.01
337.00 21.41
338.00 18.35
339.00 17.25
340.00 17.76
341.00 20.13
342.00 25.68
343.00 32.44
344.00 23.74
345.00 19.88
346.00 18.65
347.00 19.37
348.00 22.35
349.00 29.77
350.00 36.24
351.00 28.33
352.00 30.06
353.00 28.19
354.00 17.10
355.00 10.80
356.00 6.61
357.00 3.69
358.00 1.71
359.00 0.50
