NAME ATR4518R7_1950_X_CO_M45_00T_yL
FREQUENCY 1950
GAIN 15.22 dBd
TILT	ELECTRICAL
COMMENT DATE 05.08.2013 -45 degrees polarized system Lever position 00T deg
HORIZONTAL 360
0.00 0.03
1.00 0.05
2.00 0.07
3.00 0.10
4.00 0.14
5.00 0.18
6.00 0.22
7.00 0.27
8.00 0.32
9.00 0.38
10.00 0.44
11.00 0.50
12.00 0.56
13.00 0.63
14.00 0.70
15.00 0.78
16.00 0.85
17.00 0.94
18.00 1.02
19.00 1.12
20.00 1.21
21.00 1.31
22.00 1.42
23.00 1.54
24.00 1.66
25.00 1.79
26.00 1.93
27.00 2.07
28.00 2.23
29.00 2.39
30.00 2.56
31.00 2.74
32.00 2.93
33.00 3.13
34.00 3.34
35.00 3.56
36.00 3.79
37.00 4.03
38.00 4.28
39.00 4.54
40.00 4.81
41.00 5.08
42.00 5.37
43.00 5.66
44.00 5.96
45.00 6.26
46.00 6.58
47.00 6.89
48.00 7.22
49.00 7.54
50.00 7.88
51.00 8.21
52.00 8.55
53.00 8.89
54.00 9.23
55.00 9.58
56.00 9.92
57.00 10.27
58.00 10.62
59.00 10.97
60.00 11.32
61.00 11.67
62.00 12.03
63.00 12.38
64.00 12.74
65.00 13.11
66.00 13.47
67.00 13.84
68.00 14.21
69.00 14.58
70.00 14.96
71.00 15.34
72.00 15.73
73.00 16.11
74.00 16.50
75.00 16.89
76.00 17.28
77.00 17.67
78.00 18.06
79.00 18.45
80.00 18.84
81.00 19.24
82.00 19.63
83.00 20.03
84.00 20.42
85.00 20.83
86.00 21.25
87.00 21.67
88.00 22.12
89.00 22.58
90.00 23.06
91.00 23.57
92.00 24.12
93.00 24.70
94.00 25.33
95.00 26.00
96.00 26.73
97.00 27.53
98.00 28.38
99.00 29.30
100.00 30.28
101.00 31.31
102.00 32.36
103.00 33.36
104.00 34.25
105.00 34.93
106.00 35.30
107.00 35.38
108.00 35.22
109.00 34.93
110.00 34.59
111.00 34.29
112.00 34.06
113.00 33.93
114.00 33.90
115.00 34.00
116.00 34.19
117.00 34.50
118.00 34.89
119.00 35.31
120.00 35.72
121.00 36.01
122.00 36.12
123.00 35.93
124.00 35.48
125.00 34.81
126.00 34.03
127.00 33.20
128.00 32.41
129.00 31.68
130.00 31.02
131.00 30.45
132.00 29.96
133.00 29.56
134.00 29.24
135.00 28.99
136.00 28.82
137.00 28.70
138.00 28.64
139.00 28.64
140.00 28.68
141.00 28.76
142.00 28.88
143.00 29.03
144.00 29.21
145.00 29.42
146.00 29.65
147.00 29.92
148.00 30.21
149.00 30.54
150.00 30.90
151.00 31.30
152.00 31.73
153.00 32.17
154.00 32.61
155.00 33.00
156.00 33.28
157.00 33.42
158.00 33.37
159.00 33.12
160.00 32.71
161.00 32.19
162.00 31.62
163.00 31.04
164.00 30.52
165.00 30.06
166.00 29.68
167.00 29.41
168.00 29.24
169.00 29.18
170.00 29.25
171.00 29.43
172.00 29.76
173.00 30.22
174.00 30.82
175.00 31.57
176.00 32.45
177.00 33.41
178.00 34.33
179.00 34.98
180.00 35.13
181.00 34.68
182.00 33.80
183.00 32.73
184.00 31.68
185.00 30.73
186.00 29.92
187.00 29.28
188.00 28.78
189.00 28.45
190.00 28.28
191.00 28.26
192.00 28.41
193.00 28.74
194.00 29.26
195.00 30.01
196.00 31.04
197.00 32.42
198.00 34.30
199.00 36.94
200.00 40.94
201.00 46.95
202.00 45.16
203.00 39.37
204.00 35.61
205.00 33.00
206.00 31.06
207.00 29.56
208.00 28.38
209.00 27.45
210.00 26.73
211.00 26.18
212.00 25.79
213.00 25.54
214.00 25.43
215.00 25.45
216.00 25.60
217.00 25.89
218.00 26.33
219.00 26.92
220.00 27.70
221.00 28.69
222.00 29.96
223.00 31.58
224.00 33.74
225.00 36.76
226.00 41.51
227.00 49.90
228.00 44.72
229.00 38.51
230.00 34.86
231.00 32.33
232.00 30.45
233.00 28.97
234.00 27.78
235.00 26.81
236.00 26.01
237.00 25.35
238.00 24.80
239.00 24.35
240.00 23.99
241.00 23.69
242.00 23.45
243.00 23.25
244.00 23.10
245.00 22.97
246.00 22.86
247.00 22.77
248.00 22.67
249.00 22.56
250.00 22.43
251.00 22.29
252.00 22.12
253.00 21.92
254.00 21.71
255.00 21.47
256.00 21.21
257.00 20.95
258.00 20.67
259.00 20.40
260.00 20.13
261.00 19.86
262.00 19.60
263.00 19.35
264.00 19.11
265.00 18.88
266.00 18.65
267.00 18.43
268.00 18.21
269.00 17.99
270.00 17.77
271.00 17.54
272.00 17.30
273.00 17.05
274.00 16.79
275.00 16.52
276.00 16.24
277.00 15.94
278.00 15.63
279.00 15.31
280.00 14.99
281.00 14.66
282.00 14.33
283.00 13.99
284.00 13.66
285.00 13.33
286.00 13.01
287.00 12.69
288.00 12.38
289.00 12.07
290.00 11.78
291.00 11.49
292.00 11.21
293.00 10.94
294.00 10.67
295.00 10.41
296.00 10.16
297.00 9.92
298.00 9.68
299.00 9.45
300.00 9.22
301.00 8.99
302.00 8.77
303.00 8.55
304.00 8.33
305.00 8.11
306.00 7.89
307.00 7.67
308.00 7.46
309.00 7.24
310.00 7.02
311.00 6.79
312.00 6.57
313.00 6.35
314.00 6.12
315.00 5.90
316.00 5.67
317.00 5.44
318.00 5.21
319.00 4.99
320.00 4.76
321.00 4.54
322.00 4.31
323.00 4.10
324.00 3.88
325.00 3.66
326.00 3.45
327.00 3.25
328.00 3.05
329.00 2.85
330.00 2.66
331.00 2.48
332.00 2.30
333.00 2.12
334.00 1.96
335.00 1.80
336.00 1.64
337.00 1.49
338.00 1.35
339.00 1.22
340.00 1.09
341.00 0.97
342.00 0.85
343.00 0.74
344.00 0.64
345.00 0.55
346.00 0.46
347.00 0.38
348.00 0.31
349.00 0.25
350.00 0.19
351.00 0.14
352.00 0.10
353.00 0.06
354.00 0.04
355.00 0.02
356.00 0.01
357.00 0.00
358.00 0.00
359.00 0.01
VERTICAL 360
0.00 0.00
1.00 0.27
2.00 1.33
3.00 3.31
4.00 6.55
5.00 11.92
6.00 23.71
7.00 22.41
8.00 16.43
9.00 15.52
10.00 16.87
11.00 18.76
12.00 17.81
13.00 15.35
14.00 13.90
15.00 13.83
16.00 15.17
17.00 17.96
18.00 21.40
19.00 21.56
20.00 19.34
21.00 18.03
22.00 18.10
23.00 19.76
24.00 23.46
25.00 26.60
26.00 22.63
27.00 19.44
28.00 18.10
29.00 17.94
30.00 18.50
31.00 19.49
32.00 20.82
33.00 22.13
34.00 22.41
35.00 21.35
36.00 19.99
37.00 18.84
38.00 17.89
39.00 17.15
40.00 16.72
41.00 16.74
42.00 17.27
43.00 18.33
44.00 20.03
45.00 22.71
46.00 27.23
47.00 34.80
48.00 31.16
49.00 26.18
50.00 23.77
51.00 22.61
52.00 22.11
53.00 22.10
54.00 22.68
55.00 24.11
56.00 26.77
57.00 31.22
58.00 36.61
59.00 34.70
60.00 31.44
61.00 29.80
62.00 29.13
63.00 29.05
64.00 29.43
65.00 30.32
66.00 31.81
67.00 33.92
68.00 36.42
69.00 38.63
70.00 39.79
71.00 39.80
72.00 39.44
73.00 39.48
74.00 40.12
75.00 40.86
76.00 40.64
77.00 39.50
78.00 38.61
79.00 38.41
80.00 38.68
81.00 39.10
82.00 39.30
83.00 38.56
84.00 37.03
85.00 35.96
86.00 36.12
87.00 37.77
88.00 41.09
89.00 46.57
90.00 58.46
91.00 52.39
92.00 44.23
93.00 40.34
94.00 38.64
95.00 38.75
96.00 40.67
97.00 44.37
98.00 48.00
99.00 47.40
100.00 44.99
101.00 42.86
102.00 41.84
103.00 42.18
104.00 43.32
105.00 43.97
106.00 44.28
107.00 45.65
108.00 48.91
109.00 54.78
110.00 65.92
111.00 60.80
112.00 55.04
113.00 51.85
114.00 48.90
115.00 46.13
116.00 44.07
117.00 42.77
118.00 42.04
119.00 41.72
120.00 41.56
121.00 41.02
122.00 39.48
123.00 37.40
124.00 35.83
125.00 35.48
126.00 36.83
127.00 40.80
128.00 50.76
129.00 47.67
130.00 42.27
131.00 40.74
132.00 40.19
133.00 39.36
134.00 38.61
135.00 38.82
136.00 40.53
137.00 43.75
138.00 44.32
139.00 40.49
140.00 37.37
141.00 35.46
142.00 34.53
143.00 34.54
144.00 35.39
145.00 36.82
146.00 38.29
147.00 39.21
148.00 39.52
149.00 39.63
150.00 39.33
151.00 37.75
152.00 35.47
153.00 33.81
154.00 33.19
155.00 33.46
156.00 33.96
157.00 34.03
158.00 33.95
159.00 34.56
160.00 36.45
161.00 39.14
162.00 38.96
163.00 36.39
164.00 34.89
165.00 34.87
166.00 36.18
167.00 38.62
168.00 41.73
169.00 43.62
170.00 42.69
171.00 41.36
172.00 41.40
173.00 43.90
174.00 51.31
175.00 44.56
176.00 37.74
177.00 34.39
178.00 33.02
179.00 33.08
180.00 33.88
181.00 35.25
182.00 36.46
183.00 37.80
184.00 37.98
185.00 36.00
186.00 34.12
187.00 33.46
188.00 33.96
189.00 35.13
190.00 36.23
191.00 36.89
192.00 37.54
193.00 38.77
194.00 40.80
195.00 42.35
196.00 40.97
197.00 38.77
198.00 37.65
199.00 37.70
200.00 38.38
201.00 38.59
202.00 38.12
203.00 38.21
204.00 39.76
205.00 42.25
206.00 41.74
207.00 39.54
208.00 39.19
209.00 41.72
210.00 50.79
211.00 48.75
212.00 40.61
213.00 37.64
214.00 36.66
215.00 36.84
216.00 37.70
217.00 38.96
218.00 40.61
219.00 42.95
220.00 45.96
221.00 46.49
222.00 43.14
223.00 40.30
224.00 38.66
225.00 37.62
226.00 36.38
227.00 34.75
228.00 33.30
229.00 32.56
230.00 32.73
231.00 33.78
232.00 35.36
233.00 36.42
234.00 36.20
235.00 35.46
236.00 34.93
237.00 34.67
238.00 34.53
239.00 34.49
240.00 34.67
241.00 35.20
242.00 36.14
243.00 37.47
244.00 39.00
245.00 40.27
246.00 40.74
247.00 40.61
248.00 40.53
249.00 40.94
250.00 41.84
251.00 42.92
252.00 43.76
253.00 44.20
254.00 44.45
255.00 44.69
256.00 44.47
257.00 42.88
258.00 40.39
259.00 38.15
260.00 36.61
261.00 35.74
262.00 35.31
263.00 35.08
264.00 34.80
265.00 34.36
266.00 33.83
267.00 33.35
268.00 32.99
269.00 32.71
270.00 32.37
271.00 31.83
272.00 31.05
273.00 30.13
274.00 29.20
275.00 28.39
276.00 27.72
277.00 27.19
278.00 26.77
279.00 26.45
280.00 26.24
281.00 26.19
282.00 26.31
283.00 26.59
284.00 26.95
285.00 27.31
286.00 27.56
287.00 27.64
288.00 27.54
289.00 27.31
290.00 27.11
291.00 27.16
292.00 27.63
293.00 28.38
294.00 28.62
295.00 27.39
296.00 25.32
297.00 23.51
298.00 22.38
299.00 21.97
300.00 22.22
301.00 22.98
302.00 24.06
303.00 25.42
304.00 27.26
305.00 30.03
306.00 33.57
307.00 33.24
308.00 29.31
309.00 26.21
310.00 24.11
311.00 22.73
312.00 21.96
313.00 21.84
314.00 22.49
315.00 23.95
316.00 26.17
317.00 28.65
318.00 30.21
319.00 29.73
320.00 27.64
321.00 25.23
322.00 23.18
323.00 21.65
324.00 20.60
325.00 20.06
326.00 20.21
327.00 21.38
328.00 24.21
329.00 29.17
330.00 27.15
331.00 21.74
332.00 18.71
333.00 17.39
334.00 17.50
335.00 19.24
336.00 23.63
337.00 34.26
338.00 25.55
339.00 20.34
340.00 18.51
341.00 18.79
342.00 21.36
343.00 28.70
344.00 33.27
345.00 22.21
346.00 18.54
347.00 17.47
348.00 18.32
349.00 21.15
350.00 25.96
351.00 30.01
352.00 35.30
353.00 28.29
354.00 17.22
355.00 10.92
356.00 6.67
357.00 3.69
358.00 1.68
359.00 0.47
