NAME ATR4518R7_1950_X_CO_P45_05T_yyR
FREQUENCY 1950
GAIN 15.20 dBd
TILT	ELECTRICAL
COMMENT DATE 05.08.2013 +45 degrees polarized system Lever position 05T deg
HORIZONTAL 360
0.00 0.09
1.00 0.06
2.00 0.04
3.00 0.02
4.00 0.01
5.00 0.00
6.00 0.00
7.00 0.01
8.00 0.02
9.00 0.04
10.00 0.07
11.00 0.11
12.00 0.15
13.00 0.20
14.00 0.27
15.00 0.34
16.00 0.42
17.00 0.51
18.00 0.61
19.00 0.72
20.00 0.84
21.00 0.97
22.00 1.12
23.00 1.27
24.00 1.44
25.00 1.61
26.00 1.80
27.00 2.00
28.00 2.21
29.00 2.43
30.00 2.66
31.00 2.90
32.00 3.15
33.00 3.41
34.00 3.68
35.00 3.96
36.00 4.24
37.00 4.53
38.00 4.83
39.00 5.13
40.00 5.44
41.00 5.75
42.00 6.06
43.00 6.38
44.00 6.70
45.00 7.02
46.00 7.34
47.00 7.66
48.00 7.98
49.00 8.30
50.00 8.62
51.00 8.94
52.00 9.27
53.00 9.59
54.00 9.92
55.00 10.24
56.00 10.57
57.00 10.90
58.00 11.24
59.00 11.58
60.00 11.92
61.00 12.27
62.00 12.62
63.00 12.98
64.00 13.34
65.00 13.70
66.00 14.06
67.00 14.43
68.00 14.79
69.00 15.16
70.00 15.53
71.00 15.89
72.00 16.24
73.00 16.60
74.00 16.94
75.00 17.28
76.00 17.61
77.00 17.94
78.00 18.26
79.00 18.57
80.00 18.88
81.00 19.18
82.00 19.48
83.00 19.78
84.00 20.08
85.00 20.39
86.00 20.70
87.00 21.02
88.00 21.35
89.00 21.69
90.00 22.05
91.00 22.43
92.00 22.82
93.00 23.23
94.00 23.67
95.00 24.12
96.00 24.60
97.00 25.09
98.00 25.62
99.00 26.16
100.00 26.73
101.00 27.33
102.00 27.95
103.00 28.59
104.00 29.26
105.00 29.96
106.00 30.68
107.00 31.42
108.00 32.19
109.00 32.97
110.00 33.78
111.00 34.59
112.00 35.40
113.00 36.17
114.00 36.89
115.00 37.49
116.00 37.93
117.00 38.17
118.00 38.18
119.00 37.97
120.00 37.61
121.00 37.14
122.00 36.62
123.00 36.09
124.00 35.57
125.00 35.10
126.00 34.69
127.00 34.33
128.00 34.04
129.00 33.82
130.00 33.67
131.00 33.60
132.00 33.60
133.00 33.69
134.00 33.87
135.00 34.14
136.00 34.51
137.00 34.99
138.00 35.60
139.00 36.35
140.00 37.27
141.00 38.41
142.00 39.82
143.00 41.61
144.00 43.94
145.00 47.20
146.00 52.24
147.00 58.32
148.00 52.62
149.00 47.59
150.00 44.38
151.00 42.12
152.00 40.42
153.00 39.11
154.00 38.07
155.00 37.26
156.00 36.61
157.00 36.11
158.00 35.75
159.00 35.49
160.00 35.34
161.00 35.29
162.00 35.33
163.00 35.45
164.00 35.66
165.00 35.95
166.00 36.31
167.00 36.75
168.00 37.25
169.00 37.81
170.00 38.41
171.00 39.01
172.00 39.56
173.00 40.00
174.00 40.28
175.00 40.32
176.00 40.12
177.00 39.70
178.00 39.13
179.00 38.48
180.00 37.79
181.00 37.12
182.00 36.48
183.00 35.89
184.00 35.36
185.00 34.89
186.00 34.49
187.00 34.15
188.00 33.88
189.00 33.67
190.00 33.52
191.00 33.43
192.00 33.40
193.00 33.43
194.00 33.51
195.00 33.64
196.00 33.81
197.00 34.01
198.00 34.24
199.00 34.45
200.00 34.65
201.00 34.81
202.00 34.89
203.00 34.89
204.00 34.79
205.00 34.60
206.00 34.34
207.00 34.01
208.00 33.65
209.00 33.28
210.00 32.93
211.00 32.59
212.00 32.28
213.00 32.02
214.00 31.81
215.00 31.64
216.00 31.52
217.00 31.44
218.00 31.41
219.00 31.42
220.00 31.45
221.00 31.52
222.00 31.59
223.00 31.66
224.00 31.73
225.00 31.76
226.00 31.76
227.00 31.70
228.00 31.60
229.00 31.44
230.00 31.24
231.00 30.99
232.00 30.71
233.00 30.42
234.00 30.12
235.00 29.83
236.00 29.55
237.00 29.28
238.00 29.05
239.00 28.83
240.00 28.65
241.00 28.49
242.00 28.36
243.00 28.25
244.00 28.17
245.00 28.11
246.00 28.06
247.00 28.03
248.00 28.00
249.00 27.98
250.00 27.95
251.00 27.92
252.00 27.86
253.00 27.80
254.00 27.70
255.00 27.57
256.00 27.42
257.00 27.23
258.00 27.01
259.00 26.76
260.00 26.49
261.00 26.19
262.00 25.87
263.00 25.54
264.00 25.19
265.00 24.83
266.00 24.47
267.00 24.10
268.00 23.73
269.00 23.37
270.00 23.00
271.00 22.63
272.00 22.27
273.00 21.91
274.00 21.56
275.00 21.21
276.00 20.87
277.00 20.53
278.00 20.19
279.00 19.85
280.00 19.52
281.00 19.19
282.00 18.86
283.00 18.54
284.00 18.21
285.00 17.88
286.00 17.56
287.00 17.23
288.00 16.90
289.00 16.58
290.00 16.25
291.00 15.92
292.00 15.59
293.00 15.25
294.00 14.92
295.00 14.59
296.00 14.25
297.00 13.92
298.00 13.59
299.00 13.26
300.00 12.92
301.00 12.60
302.00 12.27
303.00 11.94
304.00 11.61
305.00 11.29
306.00 10.97
307.00 10.65
308.00 10.33
309.00 10.01
310.00 9.70
311.00 9.38
312.00 9.07
313.00 8.76
314.00 8.46
315.00 8.15
316.00 7.85
317.00 7.55
318.00 7.25
319.00 6.95
320.00 6.66
321.00 6.37
322.00 6.09
323.00 5.81
324.00 5.54
325.00 5.26
326.00 5.00
327.00 4.74
328.00 4.48
329.00 4.23
330.00 3.99
331.00 3.76
332.00 3.53
333.00 3.31
334.00 3.09
335.00 2.88
336.00 2.69
337.00 2.49
338.00 2.31
339.00 2.13
340.00 1.97
341.00 1.81
342.00 1.66
343.00 1.51
344.00 1.37
345.00 1.24
346.00 1.12
347.00 1.01
348.00 0.90
349.00 0.80
350.00 0.71
351.00 0.62
352.00 0.54
353.00 0.46
354.00 0.39
355.00 0.33
356.00 0.27
357.00 0.22
358.00 0.17
359.00 0.13
VERTICAL 360
0.00 9.50
1.00 5.85
2.00 3.20
3.00 1.39
4.00 0.34
5.00 0.00
6.00 0.40
7.00 1.61
8.00 3.78
9.00 7.32
10.00 13.55
11.00 27.45
12.00 19.26
13.00 14.76
14.00 14.54
15.00 17.27
16.00 25.02
17.00 27.84
18.00 19.22
19.00 16.35
20.00 15.96
21.00 17.55
22.00 21.89
23.00 30.37
24.00 24.91
25.00 19.63
26.00 17.98
27.00 18.52
28.00 21.13
29.00 26.48
30.00 31.08
31.00 26.06
32.00 22.53
33.00 21.06
34.00 20.95
35.00 21.92
36.00 23.80
37.00 26.22
38.00 28.52
39.00 29.84
40.00 29.86
41.00 28.93
42.00 27.73
43.00 26.92
44.00 26.85
45.00 27.49
46.00 28.54
47.00 29.62
48.00 30.82
49.00 32.65
50.00 34.40
51.00 32.88
52.00 29.72
53.00 27.56
54.00 26.48
55.00 26.11
56.00 26.19
57.00 26.66
58.00 27.52
59.00 28.73
60.00 30.17
61.00 31.72
62.00 33.37
63.00 35.00
64.00 35.75
65.00 34.88
66.00 33.39
67.00 32.29
68.00 31.71
69.00 31.39
70.00 31.10
71.00 30.78
72.00 30.50
73.00 30.34
74.00 30.31
75.00 30.37
76.00 30.45
77.00 30.53
78.00 30.55
79.00 30.48
80.00 30.24
81.00 29.78
82.00 29.17
83.00 28.60
84.00 28.20
85.00 28.07
86.00 28.24
87.00 28.68
88.00 29.36
89.00 30.29
90.00 31.70
91.00 33.87
92.00 36.78
93.00 38.29
94.00 36.43
95.00 34.17
96.00 33.02
97.00 33.07
98.00 34.31
99.00 36.71
100.00 40.10
101.00 43.82
102.00 46.30
103.00 46.72
104.00 46.54
105.00 46.72
106.00 47.11
107.00 47.78
108.00 49.24
109.00 51.06
110.00 50.94
111.00 48.67
112.00 46.16
113.00 44.03
114.00 42.47
115.00 41.69
116.00 41.92
117.00 43.48
118.00 46.48
119.00 47.99
120.00 44.62
121.00 41.11
122.00 38.59
123.00 36.55
124.00 34.66
125.00 32.95
126.00 31.64
127.00 30.97
128.00 31.13
129.00 32.19
130.00 33.98
131.00 35.88
132.00 37.40
133.00 39.14
134.00 41.60
135.00 42.81
136.00 41.24
137.00 39.49
138.00 38.68
139.00 38.80
140.00 39.88
141.00 41.84
142.00 43.56
143.00 43.51
144.00 42.70
145.00 41.84
146.00 40.00
147.00 37.84
148.00 36.82
149.00 37.59
150.00 40.40
151.00 44.42
152.00 44.94
153.00 42.28
154.00 39.63
155.00 37.46
156.00 36.26
157.00 36.22
158.00 37.27
159.00 39.21
160.00 41.25
161.00 41.83
162.00 41.39
163.00 41.80
164.00 42.30
165.00 40.56
166.00 38.62
167.00 38.50
168.00 39.91
169.00 40.52
170.00 38.97
171.00 37.31
172.00 35.86
173.00 34.58
174.00 34.03
175.00 34.69
176.00 36.84
177.00 39.64
178.00 39.99
179.00 38.57
180.00 38.92
181.00 42.45
182.00 46.96
183.00 44.61
184.00 44.99
185.00 54.97
186.00 50.11
187.00 44.40
188.00 43.97
189.00 42.41
190.00 40.14
191.00 40.79
192.00 47.15
193.00 53.40
194.00 43.14
195.00 40.93
196.00 40.88
197.00 40.52
198.00 39.05
199.00 37.30
200.00 36.14
201.00 35.98
202.00 36.70
203.00 37.99
204.00 39.89
205.00 41.09
206.00 38.65
207.00 35.73
208.00 34.48
209.00 34.88
210.00 36.59
211.00 38.50
212.00 38.13
213.00 35.81
214.00 33.75
215.00 32.49
216.00 32.02
217.00 32.22
218.00 32.90
219.00 33.74
220.00 34.29
221.00 34.27
222.00 33.83
223.00 33.58
224.00 34.06
225.00 35.57
226.00 38.14
227.00 41.44
228.00 44.86
229.00 49.45
230.00 59.21
231.00 49.97
232.00 43.93
233.00 42.32
234.00 44.11
235.00 47.18
236.00 41.71
237.00 36.61
238.00 34.02
239.00 33.02
240.00 33.15
241.00 34.19
242.00 36.14
243.00 39.06
244.00 43.19
245.00 49.52
246.00 63.56
247.00 57.56
248.00 53.97
249.00 54.27
250.00 52.28
251.00 48.50
252.00 44.60
253.00 41.16
254.00 38.84
255.00 37.67
256.00 37.36
257.00 37.50
258.00 37.57
259.00 37.00
260.00 35.95
261.00 35.06
262.00 34.57
263.00 34.25
264.00 33.73
265.00 32.90
266.00 32.00
267.00 31.35
268.00 31.18
269.00 31.56
270.00 32.33
271.00 32.79
272.00 32.17
273.00 30.88
274.00 29.74
275.00 29.09
276.00 29.00
277.00 29.53
278.00 30.52
279.00 31.46
280.00 31.52
281.00 30.50
282.00 29.28
283.00 28.66
284.00 28.96
285.00 30.21
286.00 32.36
287.00 35.45
288.00 39.41
289.00 43.53
290.00 43.47
291.00 37.07
292.00 31.58
293.00 27.94
294.00 25.72
295.00 24.59
296.00 24.36
297.00 24.85
298.00 25.88
299.00 27.14
300.00 28.19
301.00 28.72
302.00 29.25
303.00 30.84
304.00 34.60
305.00 39.24
306.00 35.69
307.00 31.61
308.00 29.44
309.00 28.20
310.00 27.40
311.00 26.89
312.00 26.67
313.00 26.55
314.00 26.03
315.00 24.82
316.00 23.26
317.00 21.88
318.00 20.92
319.00 20.50
320.00 20.62
321.00 21.16
322.00 21.58
323.00 20.98
324.00 19.40
325.00 17.83
326.00 16.91
327.00 16.82
328.00 17.55
329.00 18.90
330.00 20.33
331.00 21.12
332.00 21.30
333.00 21.76
334.00 23.53
335.00 28.37
336.00 40.06
337.00 29.01
338.00 23.57
339.00 21.89
340.00 22.52
341.00 25.76
342.00 35.81
343.00 36.02
344.00 26.81
345.00 24.20
346.00 24.32
347.00 27.60
348.00 35.25
349.00 27.22
350.00 21.14
351.00 18.73
352.00 18.65
353.00 20.86
354.00 26.13
355.00 31.17
356.00 27.58
357.00 25.16
358.00 20.58
359.00 14.44
