NAME ATR4518R7_1850_X_CO_P45_08T_yyR
FREQUENCY 1850
GAIN 15.23 dBd
TILT	ELECTRICAL
COMMENT DATE 05.08.2013 +45 degrees polarized system Lever position 08T deg
HORIZONTAL 360
0.00 0.01
1.00 0.00
2.00 0.00
3.00 0.00
4.00 0.01
5.00 0.03
6.00 0.06
7.00 0.10
8.00 0.14
9.00 0.20
10.00 0.26
11.00 0.33
12.00 0.41
13.00 0.50
14.00 0.60
15.00 0.71
16.00 0.82
17.00 0.95
18.00 1.09
19.00 1.23
20.00 1.38
21.00 1.55
22.00 1.72
23.00 1.89
24.00 2.08
25.00 2.28
26.00 2.48
27.00 2.68
28.00 2.90
29.00 3.12
30.00 3.34
31.00 3.57
32.00 3.81
33.00 4.04
34.00 4.28
35.00 4.53
36.00 4.77
37.00 5.01
38.00 5.26
39.00 5.50
40.00 5.75
41.00 6.00
42.00 6.24
43.00 6.49
44.00 6.73
45.00 6.98
46.00 7.22
47.00 7.47
48.00 7.71
49.00 7.96
50.00 8.20
51.00 8.45
52.00 8.70
53.00 8.95
54.00 9.21
55.00 9.46
56.00 9.72
57.00 9.99
58.00 10.25
59.00 10.52
60.00 10.80
61.00 11.08
62.00 11.37
63.00 11.66
64.00 11.96
65.00 12.26
66.00 12.57
67.00 12.89
68.00 13.21
69.00 13.54
70.00 13.88
71.00 14.23
72.00 14.58
73.00 14.94
74.00 15.31
75.00 15.68
76.00 16.07
77.00 16.46
78.00 16.87
79.00 17.28
80.00 17.70
81.00 18.13
82.00 18.56
83.00 19.01
84.00 19.46
85.00 19.93
86.00 20.39
87.00 20.87
88.00 21.35
89.00 21.83
90.00 22.32
91.00 22.81
92.00 23.30
93.00 23.80
94.00 24.29
95.00 24.78
96.00 25.27
97.00 25.75
98.00 26.22
99.00 26.69
100.00 27.15
101.00 27.60
102.00 28.03
103.00 28.45
104.00 28.85
105.00 29.22
106.00 29.57
107.00 29.88
108.00 30.16
109.00 30.40
110.00 30.60
111.00 30.76
112.00 30.87
113.00 30.96
114.00 31.01
115.00 31.03
116.00 31.04
117.00 31.05
118.00 31.05
119.00 31.07
120.00 31.10
121.00 31.15
122.00 31.24
123.00 31.36
124.00 31.51
125.00 31.71
126.00 31.96
127.00 32.26
128.00 32.61
129.00 33.01
130.00 33.48
131.00 34.00
132.00 34.60
133.00 35.25
134.00 35.96
135.00 36.74
136.00 37.57
137.00 38.45
138.00 39.35
139.00 40.26
140.00 41.13
141.00 41.94
142.00 42.66
143.00 43.27
144.00 43.77
145.00 44.22
146.00 44.64
147.00 45.08
148.00 45.58
149.00 46.15
150.00 46.79
151.00 47.38
152.00 47.74
153.00 47.60
154.00 46.83
155.00 45.56
156.00 44.06
157.00 42.53
158.00 41.08
159.00 39.76
160.00 38.57
161.00 37.50
162.00 36.56
163.00 35.72
164.00 34.99
165.00 34.35
166.00 33.80
167.00 33.34
168.00 32.96
169.00 32.64
170.00 32.40
171.00 32.23
172.00 32.12
173.00 32.08
174.00 32.09
175.00 32.17
176.00 32.30
177.00 32.48
178.00 32.70
179.00 32.97
180.00 33.26
181.00 33.57
182.00 33.88
183.00 34.17
184.00 34.42
185.00 34.60
186.00 34.69
187.00 34.69
188.00 34.60
189.00 34.41
190.00 34.17
191.00 33.88
192.00 33.57
193.00 33.26
194.00 32.96
195.00 32.69
196.00 32.46
197.00 32.28
198.00 32.14
199.00 32.06
200.00 32.03
201.00 32.06
202.00 32.15
203.00 32.30
204.00 32.51
205.00 32.79
206.00 33.12
207.00 33.52
208.00 33.97
209.00 34.47
210.00 34.99
211.00 35.51
212.00 35.99
213.00 36.35
214.00 36.56
215.00 36.54
216.00 36.30
217.00 35.85
218.00 35.26
219.00 34.58
220.00 33.87
221.00 33.16
222.00 32.49
223.00 31.85
224.00 31.26
225.00 30.73
226.00 30.25
227.00 29.82
228.00 29.43
229.00 29.10
230.00 28.81
231.00 28.56
232.00 28.35
233.00 28.18
234.00 28.04
235.00 27.93
236.00 27.85
237.00 27.80
238.00 27.77
239.00 27.76
240.00 27.76
241.00 27.78
242.00 27.80
243.00 27.84
244.00 27.87
245.00 27.90
246.00 27.93
247.00 27.94
248.00 27.95
249.00 27.94
250.00 27.91
251.00 27.87
252.00 27.80
253.00 27.72
254.00 27.61
255.00 27.49
256.00 27.34
257.00 27.18
258.00 27.00
259.00 26.79
260.00 26.58
261.00 26.34
262.00 26.09
263.00 25.83
264.00 25.55
265.00 25.26
266.00 24.96
267.00 24.66
268.00 24.34
269.00 24.01
270.00 23.69
271.00 23.35
272.00 23.01
273.00 22.67
274.00 22.32
275.00 21.97
276.00 21.62
277.00 21.27
278.00 20.92
279.00 20.57
280.00 20.21
281.00 19.86
282.00 19.50
283.00 19.14
284.00 18.79
285.00 18.43
286.00 18.07
287.00 17.70
288.00 17.34
289.00 16.97
290.00 16.60
291.00 16.23
292.00 15.86
293.00 15.49
294.00 15.12
295.00 14.74
296.00 14.36
297.00 13.98
298.00 13.60
299.00 13.22
300.00 12.85
301.00 12.47
302.00 12.09
303.00 11.71
304.00 11.34
305.00 10.97
306.00 10.60
307.00 10.23
308.00 9.86
309.00 9.50
310.00 9.15
311.00 8.79
312.00 8.45
313.00 8.10
314.00 7.77
315.00 7.44
316.00 7.11
317.00 6.79
318.00 6.48
319.00 6.18
320.00 5.88
321.00 5.59
322.00 5.31
323.00 5.03
324.00 4.76
325.00 4.50
326.00 4.25
327.00 4.01
328.00 3.77
329.00 3.55
330.00 3.33
331.00 3.12
332.00 2.91
333.00 2.72
334.00 2.53
335.00 2.35
336.00 2.17
337.00 2.01
338.00 1.85
339.00 1.70
340.00 1.56
341.00 1.42
342.00 1.29
343.00 1.16
344.00 1.05
345.00 0.94
346.00 0.83
347.00 0.73
348.00 0.64
349.00 0.55
350.00 0.47
351.00 0.40
352.00 0.33
353.00 0.27
354.00 0.21
355.00 0.16
356.00 0.12
357.00 0.08
358.00 0.05
359.00 0.03
VERTICAL 360
0.00 27.35
1.00 20.01
2.00 12.67
3.00 7.89
4.00 4.59
5.00 2.31
6.00 0.85
7.00 0.11
8.00 0.06
9.00 0.71
10.00 2.13
11.00 4.50
12.00 8.24
13.00 14.71
14.00 29.22
15.00 19.41
16.00 15.02
17.00 14.24
18.00 15.53
19.00 18.96
20.00 24.57
21.00 23.39
22.00 18.68
23.00 16.54
24.00 16.34
25.00 17.91
26.00 21.70
27.00 27.79
28.00 26.10
29.00 21.59
30.00 19.56
31.00 19.16
32.00 20.21
33.00 23.30
34.00 32.24
35.00 34.46
36.00 23.80
37.00 20.24
38.00 19.04
39.00 19.40
40.00 21.16
41.00 24.46
42.00 30.06
43.00 36.59
44.00 31.31
45.00 26.64
46.00 23.95
47.00 22.41
48.00 21.79
49.00 22.02
50.00 23.08
51.00 24.88
52.00 26.91
53.00 27.80
54.00 26.93
55.00 25.68
56.00 24.98
57.00 25.01
58.00 25.77
59.00 27.22
60.00 29.30
61.00 31.78
62.00 33.77
63.00 34.22
64.00 33.68
65.00 33.18
66.00 33.00
67.00 32.94
68.00 32.75
69.00 32.33
70.00 31.78
71.00 31.24
72.00 30.80
73.00 30.51
74.00 30.33
75.00 30.11
76.00 29.71
77.00 29.12
78.00 28.49
79.00 28.07
80.00 28.01
81.00 28.32
82.00 28.77
83.00 29.06
84.00 29.09
85.00 29.03
86.00 29.07
87.00 29.29
88.00 29.62
89.00 29.83
90.00 29.58
91.00 28.86
92.00 28.02
93.00 27.52
94.00 27.55
95.00 28.08
96.00 28.90
97.00 29.72
98.00 30.39
99.00 31.04
100.00 32.03
101.00 33.71
102.00 36.36
103.00 40.07
104.00 43.64
105.00 43.25
106.00 40.73
107.00 39.17
108.00 38.72
109.00 38.96
110.00 39.32
111.00 39.50
112.00 39.71
113.00 40.55
114.00 42.60
115.00 46.32
116.00 50.14
117.00 48.73
118.00 45.76
119.00 43.90
120.00 43.01
121.00 42.70
122.00 42.44
123.00 42.14
124.00 42.18
125.00 42.95
126.00 44.81
127.00 48.36
128.00 52.16
129.00 48.79
130.00 44.28
131.00 40.96
132.00 38.48
133.00 36.86
134.00 36.16
135.00 36.27
136.00 36.92
137.00 37.60
138.00 37.64
139.00 36.95
140.00 36.13
141.00 35.70
142.00 35.93
143.00 36.96
144.00 38.93
145.00 42.07
146.00 46.80
147.00 48.95
148.00 42.74
149.00 37.89
150.00 35.03
151.00 33.71
152.00 33.54
153.00 33.99
154.00 34.53
155.00 35.10
156.00 35.48
157.00 34.72
158.00 33.41
159.00 33.09
160.00 34.42
161.00 37.46
162.00 41.65
163.00 45.73
164.00 45.34
165.00 40.09
166.00 36.74
167.00 35.14
168.00 34.09
169.00 32.94
170.00 32.14
171.00 32.21
172.00 33.20
173.00 34.58
174.00 35.44
175.00 35.24
176.00 34.57
177.00 34.48
178.00 35.92
179.00 39.81
180.00 46.25
181.00 44.96
182.00 42.35
183.00 42.90
184.00 44.95
185.00 46.36
186.00 45.34
187.00 42.61
188.00 40.26
189.00 37.90
190.00 34.84
191.00 32.20
192.00 30.87
193.00 30.99
194.00 32.31
195.00 34.13
196.00 35.18
197.00 34.68
198.00 33.34
199.00 32.37
200.00 32.48
201.00 33.79
202.00 35.85
203.00 37.68
204.00 38.96
205.00 40.58
206.00 43.77
207.00 54.06
208.00 46.63
209.00 37.26
210.00 32.63
211.00 30.00
212.00 28.69
213.00 28.35
214.00 28.76
215.00 29.68
216.00 30.89
217.00 32.19
218.00 33.48
219.00 34.63
220.00 35.55
221.00 36.44
222.00 38.01
223.00 41.32
224.00 46.92
225.00 45.94
226.00 41.91
227.00 41.16
228.00 43.91
229.00 51.53
230.00 44.47
231.00 38.32
232.00 35.73
233.00 35.12
234.00 35.98
235.00 37.87
236.00 39.87
237.00 40.60
238.00 40.15
239.00 39.64
240.00 39.68
241.00 40.74
242.00 43.16
243.00 45.08
244.00 42.85
245.00 40.34
246.00 39.41
247.00 39.78
248.00 41.16
249.00 43.34
250.00 45.48
251.00 45.03
252.00 41.77
253.00 38.49
254.00 36.47
255.00 36.08
256.00 37.50
257.00 40.65
258.00 42.93
259.00 40.19
260.00 36.65
261.00 34.19
262.00 32.80
263.00 32.24
264.00 32.16
265.00 32.22
266.00 32.27
267.00 32.12
268.00 31.57
269.00 30.61
270.00 29.43
271.00 28.36
272.00 27.71
273.00 27.65
274.00 28.17
275.00 29.07
276.00 30.09
277.00 30.98
278.00 31.71
279.00 32.36
280.00 33.15
281.00 34.32
282.00 36.01
283.00 37.98
284.00 39.83
285.00 40.86
286.00 38.98
287.00 35.33
288.00 32.27
289.00 29.95
290.00 27.99
291.00 26.14
292.00 24.41
293.00 22.97
294.00 21.94
295.00 21.36
296.00 21.21
297.00 21.44
298.00 22.08
299.00 23.21
300.00 24.97
301.00 27.31
302.00 29.48
303.00 30.32
304.00 30.56
305.00 31.50
306.00 32.19
307.00 30.56
308.00 28.31
309.00 27.04
310.00 26.87
311.00 27.62
312.00 29.24
313.00 31.42
314.00 30.88
315.00 26.42
316.00 22.40
317.00 19.74
318.00 18.28
319.00 17.84
320.00 18.27
321.00 19.43
322.00 21.18
323.00 22.89
324.00 22.80
325.00 20.64
326.00 18.42
327.00 16.99
328.00 16.42
329.00 16.55
330.00 17.15
331.00 18.06
332.00 19.28
333.00 21.11
334.00 24.06
335.00 28.57
336.00 30.78
337.00 26.66
338.00 23.20
339.00 21.04
340.00 19.80
341.00 19.42
342.00 20.11
343.00 22.34
344.00 26.93
345.00 29.81
346.00 24.71
347.00 21.84
348.00 21.59
349.00 24.09
350.00 31.48
351.00 29.35
352.00 21.91
353.00 18.95
354.00 18.44
355.00 20.27
356.00 25.98
357.00 45.49
358.00 27.46
359.00 25.43
