NAME ATR4518R7_1750_X_CO_M45_03T_yL
FREQUENCY 1750
GAIN 14.65 dBd
TILT	ELECTRICAL
COMMENT DATE 05.08.2013 -45 degrees polarized system Lever position 03T deg
HORIZONTAL 360
0.00 0.01
1.00 0.00
2.00 0.00
3.00 0.01
4.00 0.02
5.00 0.04
6.00 0.05
7.00 0.08
8.00 0.10
9.00 0.13
10.00 0.17
11.00 0.21
12.00 0.25
13.00 0.30
14.00 0.36
15.00 0.41
16.00 0.47
17.00 0.54
18.00 0.61
19.00 0.69
20.00 0.77
21.00 0.86
22.00 0.95
23.00 1.04
24.00 1.15
25.00 1.25
26.00 1.36
27.00 1.48
28.00 1.60
29.00 1.73
30.00 1.87
31.00 2.00
32.00 2.15
33.00 2.30
34.00 2.45
35.00 2.61
36.00 2.77
37.00 2.94
38.00 3.12
39.00 3.30
40.00 3.48
41.00 3.67
42.00 3.86
43.00 4.06
44.00 4.26
45.00 4.47
46.00 4.68
47.00 4.89
48.00 5.11
49.00 5.33
50.00 5.55
51.00 5.78
52.00 6.01
53.00 6.25
54.00 6.49
55.00 6.73
56.00 6.98
57.00 7.23
58.00 7.49
59.00 7.75
60.00 8.02
61.00 8.30
62.00 8.58
63.00 8.87
64.00 9.16
65.00 9.47
66.00 9.78
67.00 10.10
68.00 10.43
69.00 10.77
70.00 11.12
71.00 11.48
72.00 11.85
73.00 12.22
74.00 12.61
75.00 13.01
76.00 13.41
77.00 13.83
78.00 14.24
79.00 14.67
80.00 15.10
81.00 15.53
82.00 15.96
83.00 16.39
84.00 16.82
85.00 17.24
86.00 17.65
87.00 18.05
88.00 18.44
89.00 18.82
90.00 19.19
91.00 19.54
92.00 19.89
93.00 20.22
94.00 20.54
95.00 20.86
96.00 21.17
97.00 21.48
98.00 21.79
99.00 22.10
100.00 22.41
101.00 22.72
102.00 23.04
103.00 23.37
104.00 23.70
105.00 24.02
106.00 24.34
107.00 24.65
108.00 24.95
109.00 25.24
110.00 25.50
111.00 25.73
112.00 25.93
113.00 26.11
114.00 26.26
115.00 26.39
116.00 26.51
117.00 26.61
118.00 26.70
119.00 26.78
120.00 26.86
121.00 26.94
122.00 27.01
123.00 27.07
124.00 27.12
125.00 27.15
126.00 27.15
127.00 27.11
128.00 27.04
129.00 26.92
130.00 26.77
131.00 26.59
132.00 26.39
133.00 26.19
134.00 25.98
135.00 25.79
136.00 25.62
137.00 25.48
138.00 25.38
139.00 25.32
140.00 25.31
141.00 25.34
142.00 25.43
143.00 25.57
144.00 25.76
145.00 25.98
146.00 26.24
147.00 26.51
148.00 26.79
149.00 27.05
150.00 27.26
151.00 27.41
152.00 27.47
153.00 27.45
154.00 27.33
155.00 27.15
156.00 26.92
157.00 26.67
158.00 26.42
159.00 26.21
160.00 26.03
161.00 25.92
162.00 25.87
163.00 25.90
164.00 26.01
165.00 26.21
166.00 26.50
167.00 26.89
168.00 27.38
169.00 27.97
170.00 28.64
171.00 29.38
172.00 30.12
173.00 30.79
174.00 31.25
175.00 31.39
176.00 31.16
177.00 30.61
178.00 29.86
179.00 29.06
180.00 28.26
181.00 27.54
182.00 26.91
183.00 26.38
184.00 25.96
185.00 25.64
186.00 25.43
187.00 25.32
188.00 25.33
189.00 25.44
190.00 25.66
191.00 26.00
192.00 26.48
193.00 27.09
194.00 27.87
195.00 28.84
196.00 30.05
197.00 31.57
198.00 33.51
199.00 36.08
200.00 39.67
201.00 44.63
202.00 45.58
203.00 40.68
204.00 36.95
205.00 34.34
206.00 32.42
207.00 30.95
208.00 29.80
209.00 28.91
210.00 28.21
211.00 27.68
212.00 27.30
213.00 27.06
214.00 26.94
215.00 26.95
216.00 27.08
217.00 27.34
218.00 27.73
219.00 28.26
220.00 28.96
221.00 29.87
222.00 31.00
223.00 32.45
224.00 34.30
225.00 36.67
226.00 39.54
227.00 41.60
228.00 40.13
229.00 37.01
230.00 34.24
231.00 32.02
232.00 30.23
233.00 28.76
234.00 27.53
235.00 26.50
236.00 25.63
237.00 24.89
238.00 24.27
239.00 23.75
240.00 23.31
241.00 22.95
242.00 22.67
243.00 22.44
244.00 22.28
245.00 22.16
246.00 22.09
247.00 22.04
248.00 22.03
249.00 22.03
250.00 22.04
251.00 22.03
252.00 22.02
253.00 21.97
254.00 21.89
255.00 21.76
256.00 21.59
257.00 21.37
258.00 21.10
259.00 20.80
260.00 20.47
261.00 20.13
262.00 19.77
263.00 19.40
264.00 19.04
265.00 18.68
266.00 18.32
267.00 17.98
268.00 17.64
269.00 17.32
270.00 17.00
271.00 16.69
272.00 16.38
273.00 16.07
274.00 15.77
275.00 15.47
276.00 15.16
277.00 14.85
278.00 14.54
279.00 14.21
280.00 13.89
281.00 13.56
282.00 13.22
283.00 12.89
284.00 12.54
285.00 12.20
286.00 11.86
287.00 11.52
288.00 11.18
289.00 10.85
290.00 10.52
291.00 10.20
292.00 9.89
293.00 9.58
294.00 9.29
295.00 9.00
296.00 8.72
297.00 8.45
298.00 8.19
299.00 7.94
300.00 7.70
301.00 7.46
302.00 7.24
303.00 7.02
304.00 6.81
305.00 6.60
306.00 6.40
307.00 6.21
308.00 6.02
309.00 5.84
310.00 5.66
311.00 5.48
312.00 5.31
313.00 5.15
314.00 4.98
315.00 4.82
316.00 4.66
317.00 4.50
318.00 4.35
319.00 4.20
320.00 4.05
321.00 3.90
322.00 3.75
323.00 3.61
324.00 3.46
325.00 3.32
326.00 3.17
327.00 3.03
328.00 2.89
329.00 2.74
330.00 2.60
331.00 2.45
332.00 2.31
333.00 2.17
334.00 2.03
335.00 1.89
336.00 1.75
337.00 1.62
338.00 1.48
339.00 1.36
340.00 1.23
341.00 1.11
342.00 1.00
343.00 0.89
344.00 0.79
345.00 0.69
346.00 0.60
347.00 0.52
348.00 0.44
349.00 0.37
350.00 0.31
351.00 0.26
352.00 0.20
353.00 0.16
354.00 0.12
355.00 0.09
356.00 0.06
357.00 0.04
358.00 0.02
359.00 0.01
VERTICAL 360
0.00 3.66
1.00 1.74
2.00 0.54
3.00 0.02
4.00 0.15
5.00 0.95
6.00 2.53
7.00 5.13
8.00 9.38
9.00 17.73
10.00 25.55
11.00 14.65
12.00 11.76
13.00 11.38
14.00 12.85
15.00 16.56
16.00 25.47
17.00 27.89
18.00 18.84
19.00 15.80
20.00 14.86
21.00 15.34
22.00 17.22
23.00 20.61
24.00 23.00
25.00 20.22
26.00 17.65
27.00 16.79
28.00 17.55
29.00 20.04
30.00 24.61
31.00 27.38
32.00 22.78
33.00 19.30
34.00 17.36
35.00 16.48
36.00 16.46
37.00 17.25
38.00 18.91
39.00 21.56
40.00 25.29
41.00 28.39
42.00 26.96
43.00 24.60
44.00 23.29
45.00 22.72
46.00 22.30
47.00 21.57
48.00 20.58
49.00 19.64
50.00 18.99
51.00 18.67
52.00 18.66
53.00 18.89
54.00 19.29
55.00 19.85
56.00 20.62
57.00 21.75
58.00 23.43
59.00 25.92
60.00 29.27
61.00 31.99
62.00 30.92
63.00 28.67
64.00 27.30
65.00 26.86
66.00 27.10
67.00 27.71
68.00 28.35
69.00 28.86
70.00 29.27
71.00 29.76
72.00 30.46
73.00 31.38
74.00 32.33
75.00 33.05
76.00 33.51
77.00 33.87
78.00 34.35
79.00 35.18
80.00 36.57
81.00 38.61
82.00 41.18
83.00 44.03
84.00 46.95
85.00 49.53
86.00 50.10
87.00 47.72
88.00 45.11
89.00 43.98
90.00 44.67
91.00 45.20
92.00 41.87
93.00 38.45
94.00 36.80
95.00 36.85
96.00 38.39
97.00 41.22
98.00 44.55
99.00 43.85
100.00 39.96
101.00 37.49
102.00 36.99
103.00 38.47
104.00 41.84
105.00 45.56
106.00 46.77
107.00 46.61
108.00 44.20
109.00 41.47
110.00 40.25
111.00 40.34
112.00 40.91
113.00 41.44
114.00 42.27
115.00 43.68
116.00 45.16
117.00 46.29
118.00 47.34
119.00 47.56
120.00 45.96
121.00 43.96
122.00 42.62
123.00 42.02
124.00 41.74
125.00 41.23
126.00 40.89
127.00 41.82
128.00 45.17
129.00 50.15
130.00 45.96
131.00 42.06
132.00 39.85
133.00 38.22
134.00 37.23
135.00 37.39
136.00 38.81
137.00 40.51
138.00 40.75
139.00 40.57
140.00 41.82
141.00 45.24
142.00 50.47
143.00 51.66
144.00 49.22
145.00 46.29
146.00 42.85
147.00 40.06
148.00 38.67
149.00 39.03
150.00 41.32
151.00 42.99
152.00 40.20
153.00 38.08
154.00 37.83
155.00 37.82
156.00 36.07
157.00 34.01
158.00 32.90
159.00 32.38
160.00 31.68
161.00 30.77
162.00 30.34
163.00 30.86
164.00 32.46
165.00 35.10
166.00 38.63
167.00 43.05
168.00 49.31
169.00 64.91
170.00 53.52
171.00 44.86
172.00 38.56
173.00 33.88
174.00 30.60
175.00 28.53
176.00 27.44
177.00 27.16
178.00 27.52
179.00 28.32
180.00 29.37
181.00 30.54
182.00 31.92
183.00 33.59
184.00 34.90
185.00 34.79
186.00 34.20
187.00 34.53
188.00 35.73
189.00 35.62
190.00 33.48
191.00 31.68
192.00 31.02
193.00 31.48
194.00 32.98
195.00 35.60
196.00 38.96
197.00 38.44
198.00 34.50
199.00 31.82
200.00 30.85
201.00 31.64
202.00 34.56
203.00 40.06
204.00 39.90
205.00 35.83
206.00 34.35
207.00 34.80
208.00 36.44
209.00 38.05
210.00 38.33
211.00 38.33
212.00 39.34
213.00 39.79
214.00 36.35
215.00 32.47
216.00 29.78
217.00 28.05
218.00 26.90
219.00 26.15
220.00 25.80
221.00 25.90
222.00 26.49
223.00 27.48
224.00 28.73
225.00 30.20
226.00 32.23
227.00 35.41
228.00 40.50
229.00 44.37
230.00 41.17
231.00 39.13
232.00 38.83
233.00 39.49
234.00 40.50
235.00 41.46
236.00 42.24
237.00 42.79
238.00 43.20
239.00 43.90
240.00 45.26
241.00 46.55
242.00 46.36
243.00 46.08
244.00 47.51
245.00 51.64
246.00 61.14
247.00 58.16
248.00 49.92
249.00 45.94
250.00 44.44
251.00 44.66
252.00 45.28
253.00 45.35
254.00 46.08
255.00 48.04
256.00 48.53
257.00 47.82
258.00 49.38
259.00 50.08
260.00 45.78
261.00 43.30
262.00 42.74
263.00 42.02
264.00 40.02
265.00 38.02
266.00 36.46
267.00 35.20
268.00 34.29
269.00 33.93
270.00 34.13
271.00 34.57
272.00 34.69
273.00 34.04
274.00 32.92
275.00 32.00
276.00 31.72
277.00 32.18
278.00 33.25
279.00 34.62
280.00 36.06
281.00 37.54
282.00 38.54
283.00 37.79
284.00 35.61
285.00 33.32
286.00 31.36
287.00 29.73
288.00 28.32
289.00 27.09
290.00 26.05
291.00 25.31
292.00 24.94
293.00 24.90
294.00 25.06
295.00 25.26
296.00 25.45
297.00 25.75
298.00 26.31
299.00 27.17
300.00 28.01
301.00 27.91
302.00 26.37
303.00 24.15
304.00 22.04
305.00 20.38
306.00 19.22
307.00 18.55
308.00 18.31
309.00 18.43
310.00 18.88
311.00 19.69
312.00 20.91
313.00 22.34
314.00 23.07
315.00 22.29
316.00 20.86
317.00 19.73
318.00 19.17
319.00 19.14
320.00 19.60
321.00 20.51
322.00 21.67
323.00 22.47
324.00 22.22
325.00 21.31
326.00 20.60
327.00 20.55
328.00 21.39
329.00 23.41
330.00 27.13
331.00 31.28
332.00 27.88
333.00 24.11
334.00 22.34
335.00 22.17
336.00 23.48
337.00 26.24
338.00 28.28
339.00 25.57
340.00 22.52
341.00 20.96
342.00 20.87
343.00 22.18
344.00 24.21
345.00 23.55
346.00 20.30
347.00 17.75
348.00 16.51
349.00 16.61
350.00 18.25
351.00 22.13
352.00 31.57
353.00 33.68
354.00 26.82
355.00 26.76
356.00 23.56
357.00 15.95
358.00 10.38
359.00 6.46
