NAME ATR4518R7_0894_X_CO_P45_06T
FREQUENCY 0894
GAIN 14.80 dBd
TILT	ELECTRICAL
COMMENT DATE 05.08.2013 +45 degrees polarized system Lever position 06T deg
HORIZONTAL 360
0.00 0.00
1.00 0.00
2.00 0.00
3.00 0.01
4.00 0.02
5.00 0.04
6.00 0.07
7.00 0.10
8.00 0.14
9.00 0.19
10.00 0.24
11.00 0.30
12.00 0.36
13.00 0.43
14.00 0.51
15.00 0.59
16.00 0.68
17.00 0.77
18.00 0.87
19.00 0.98
20.00 1.09
21.00 1.21
22.00 1.34
23.00 1.47
24.00 1.61
25.00 1.75
26.00 1.90
27.00 2.05
28.00 2.22
29.00 2.38
30.00 2.56
31.00 2.74
32.00 2.92
33.00 3.11
34.00 3.31
35.00 3.52
36.00 3.73
37.00 3.94
38.00 4.16
39.00 4.39
40.00 4.62
41.00 4.86
42.00 5.10
43.00 5.35
44.00 5.61
45.00 5.87
46.00 6.14
47.00 6.41
48.00 6.69
49.00 6.97
50.00 7.26
51.00 7.56
52.00 7.85
53.00 8.16
54.00 8.47
55.00 8.79
56.00 9.11
57.00 9.43
58.00 9.76
59.00 10.10
60.00 10.44
61.00 10.79
62.00 11.14
63.00 11.50
64.00 11.86
65.00 12.23
66.00 12.61
67.00 12.99
68.00 13.37
69.00 13.76
70.00 14.15
71.00 14.55
72.00 14.96
73.00 15.37
74.00 15.79
75.00 16.21
76.00 16.64
77.00 17.08
78.00 17.52
79.00 17.97
80.00 18.43
81.00 18.90
82.00 19.37
83.00 19.85
84.00 20.34
85.00 20.84
86.00 21.35
87.00 21.87
88.00 22.40
89.00 22.94
90.00 23.50
91.00 24.07
92.00 24.65
93.00 25.24
94.00 25.86
95.00 26.48
96.00 27.12
97.00 27.78
98.00 28.45
99.00 29.13
100.00 29.82
101.00 30.52
102.00 31.21
103.00 31.90
104.00 32.57
105.00 33.20
106.00 33.78
107.00 34.28
108.00 34.69
109.00 35.00
110.00 35.19
111.00 35.26
112.00 35.23
113.00 35.12
114.00 34.94
115.00 34.71
116.00 34.45
117.00 34.18
118.00 33.91
119.00 33.64
120.00 33.38
121.00 33.14
122.00 32.92
123.00 32.71
124.00 32.53
125.00 32.37
126.00 32.23
127.00 32.12
128.00 32.03
129.00 31.96
130.00 31.91
131.00 31.89
132.00 31.89
133.00 31.91
134.00 31.96
135.00 32.03
136.00 32.12
137.00 32.24
138.00 32.39
139.00 32.56
140.00 32.76
141.00 32.99
142.00 33.25
143.00 33.54
144.00 33.87
145.00 34.23
146.00 34.63
147.00 35.09
148.00 35.58
149.00 36.14
150.00 36.75
151.00 37.44
152.00 38.20
153.00 39.05
154.00 40.01
155.00 41.09
156.00 42.31
157.00 43.66
158.00 45.14
159.00 46.64
160.00 47.85
161.00 48.27
162.00 47.66
163.00 46.37
164.00 44.86
165.00 43.39
166.00 42.07
167.00 40.88
168.00 39.82
169.00 38.88
170.00 38.05
171.00 37.31
172.00 36.64
173.00 36.05
174.00 35.51
175.00 35.03
176.00 34.60
177.00 34.21
178.00 33.87
179.00 33.57
180.00 33.30
181.00 33.06
182.00 32.86
183.00 32.69
184.00 32.55
185.00 32.44
186.00 32.35
187.00 32.29
188.00 32.26
189.00 32.25
190.00 32.27
191.00 32.31
192.00 32.38
193.00 32.47
194.00 32.58
195.00 32.72
196.00 32.88
197.00 33.07
198.00 33.28
199.00 33.51
200.00 33.77
201.00 34.05
202.00 34.35
203.00 34.68
204.00 35.03
205.00 35.40
206.00 35.79
207.00 36.21
208.00 36.64
209.00 37.09
210.00 37.54
211.00 38.01
212.00 38.47
213.00 38.92
214.00 39.36
215.00 39.77
216.00 40.13
217.00 40.43
218.00 40.65
219.00 40.80
220.00 40.85
221.00 40.83
222.00 40.71
223.00 40.53
224.00 40.28
225.00 39.99
226.00 39.66
227.00 39.30
228.00 38.93
229.00 38.54
230.00 38.16
231.00 37.77
232.00 37.37
233.00 36.99
234.00 36.60
235.00 36.21
236.00 35.83
237.00 35.45
238.00 35.07
239.00 34.70
240.00 34.33
241.00 33.95
242.00 33.58
243.00 33.20
244.00 32.83
245.00 32.46
246.00 32.08
247.00 31.71
248.00 31.32
249.00 30.94
250.00 30.56
251.00 30.16
252.00 29.77
253.00 29.38
254.00 28.97
255.00 28.56
256.00 28.15
257.00 27.74
258.00 27.32
259.00 26.89
260.00 26.47
261.00 26.03
262.00 25.60
263.00 25.16
264.00 24.72
265.00 24.28
266.00 23.84
267.00 23.40
268.00 22.96
269.00 22.51
270.00 22.07
271.00 21.63
272.00 21.20
273.00 20.76
274.00 20.33
275.00 19.90
276.00 19.48
277.00 19.06
278.00 18.64
279.00 18.22
280.00 17.82
281.00 17.41
282.00 17.01
283.00 16.62
284.00 16.23
285.00 15.84
286.00 15.46
287.00 15.08
288.00 14.71
289.00 14.35
290.00 13.98
291.00 13.62
292.00 13.27
293.00 12.92
294.00 12.58
295.00 12.23
296.00 11.90
297.00 11.56
298.00 11.23
299.00 10.91
300.00 10.59
301.00 10.27
302.00 9.96
303.00 9.65
304.00 9.34
305.00 9.04
306.00 8.75
307.00 8.45
308.00 8.16
309.00 7.88
310.00 7.60
311.00 7.32
312.00 7.05
313.00 6.78
314.00 6.51
315.00 6.25
316.00 6.00
317.00 5.75
318.00 5.50
319.00 5.26
320.00 5.02
321.00 4.79
322.00 4.56
323.00 4.33
324.00 4.12
325.00 3.91
326.00 3.70
327.00 3.49
328.00 3.30
329.00 3.11
330.00 2.92
331.00 2.74
332.00 2.56
333.00 2.39
334.00 2.23
335.00 2.07
336.00 1.91
337.00 1.76
338.00 1.62
339.00 1.49
340.00 1.36
341.00 1.23
342.00 1.11
343.00 1.00
344.00 0.89
345.00 0.79
346.00 0.70
347.00 0.61
348.00 0.52
349.00 0.45
350.00 0.37
351.00 0.31
352.00 0.25
353.00 0.20
354.00 0.15
355.00 0.11
356.00 0.08
357.00 0.05
358.00 0.02
359.00 0.01
VERTICAL 360
0.00 8.01
1.00 5.37
2.00 3.38
3.00 1.91
4.00 0.88
5.00 0.25
6.00 0.00
7.00 0.13
8.00 0.64
9.00 1.55
10.00 2.87
11.00 4.64
12.00 6.91
13.00 9.85
14.00 13.68
15.00 18.72
16.00 23.87
17.00 24.27
18.00 23.40
19.00 24.36
20.00 27.78
21.00 36.04
22.00 34.41
23.00 27.01
24.00 23.48
25.00 21.67
26.00 21.09
27.00 21.68
28.00 23.56
29.00 27.15
30.00 33.32
31.00 37.55
32.00 32.17
33.00 28.99
34.00 27.53
35.00 27.49
36.00 29.38
37.00 34.94
38.00 35.00
39.00 27.14
40.00 23.16
41.00 21.07
42.00 20.03
43.00 19.46
44.00 19.00
45.00 18.58
46.00 18.42
47.00 18.76
48.00 19.77
49.00 21.47
50.00 23.71
51.00 26.22
52.00 28.92
53.00 32.43
54.00 38.43
55.00 39.94
56.00 33.59
57.00 30.44
58.00 29.13
59.00 28.90
60.00 29.27
61.00 29.92
62.00 30.67
63.00 31.68
64.00 33.19
65.00 34.96
66.00 35.78
67.00 34.68
68.00 32.94
69.00 32.00
70.00 32.24
71.00 33.13
72.00 33.28
73.00 32.49
74.00 31.79
75.00 31.75
76.00 32.64
77.00 33.89
78.00 32.53
79.00 29.36
80.00 26.99
81.00 25.84
82.00 26.02
83.00 27.83
84.00 30.70
85.00 30.14
86.00 28.18
87.00 26.47
88.00 25.65
89.00 25.91
90.00 27.29
91.00 29.91
92.00 33.65
93.00 35.83
94.00 31.90
95.00 28.97
96.00 27.56
97.00 27.44
98.00 28.60
99.00 30.82
100.00 33.17
101.00 33.81
102.00 32.54
103.00 31.19
104.00 30.81
105.00 31.58
106.00 33.21
107.00 34.84
108.00 35.04
109.00 33.85
110.00 32.86
111.00 32.84
112.00 33.77
113.00 35.32
114.00 36.51
115.00 36.11
116.00 34.99
117.00 34.61
118.00 35.28
119.00 36.72
120.00 38.68
121.00 40.84
122.00 41.45
123.00 40.10
124.00 38.82
125.00 38.04
126.00 37.78
127.00 38.36
128.00 39.83
129.00 41.54
130.00 42.21
131.00 41.02
132.00 39.13
133.00 37.84
134.00 37.26
135.00 36.98
136.00 36.96
137.00 37.48
138.00 38.51
139.00 39.38
140.00 39.49
141.00 39.09
142.00 39.05
143.00 40.15
144.00 42.83
145.00 46.00
146.00 46.15
147.00 44.73
148.00 43.49
149.00 42.49
150.00 41.98
151.00 41.79
152.00 41.55
153.00 40.92
154.00 39.84
155.00 38.96
156.00 39.09
157.00 40.46
158.00 42.35
159.00 42.38
160.00 40.20
161.00 37.98
162.00 36.81
163.00 37.06
164.00 39.00
165.00 43.14
166.00 51.65
167.00 53.99
168.00 45.20
169.00 40.66
170.00 37.58
171.00 35.40
172.00 33.98
173.00 33.22
174.00 33.06
175.00 33.07
176.00 33.52
177.00 34.21
178.00 34.96
179.00 35.69
180.00 36.51
181.00 37.73
182.00 39.80
183.00 42.44
184.00 42.78
185.00 40.52
186.00 38.56
187.00 37.39
188.00 36.77
189.00 36.36
190.00 35.86
191.00 35.41
192.00 35.54
193.00 36.70
194.00 39.32
195.00 44.06
196.00 49.37
197.00 45.72
198.00 42.48
199.00 41.00
200.00 40.43
201.00 40.45
202.00 41.12
203.00 42.58
204.00 44.89
205.00 47.57
206.00 48.31
207.00 46.05
208.00 42.94
209.00 40.09
210.00 38.01
211.00 36.81
212.00 36.22
213.00 35.85
214.00 35.66
215.00 36.02
216.00 37.22
217.00 39.14
218.00 40.46
219.00 39.40
220.00 37.19
221.00 35.42
222.00 34.50
223.00 34.40
224.00 34.94
225.00 35.90
226.00 36.98
227.00 37.40
228.00 36.92
229.00 36.70
230.00 37.52
231.00 39.01
232.00 40.33
233.00 42.47
234.00 48.90
235.00 52.14
236.00 44.62
237.00 44.36
238.00 51.44
239.00 50.50
240.00 42.47
241.00 40.36
242.00 40.90
243.00 42.50
244.00 43.14
245.00 44.08
246.00 48.76
247.00 45.53
248.00 38.30
249.00 34.82
250.00 33.38
251.00 32.95
252.00 32.52
253.00 31.57
254.00 30.49
255.00 29.89
256.00 30.07
257.00 30.95
258.00 32.01
259.00 32.32
260.00 31.50
261.00 30.35
262.00 29.77
263.00 30.15
264.00 31.42
265.00 32.97
266.00 33.10
267.00 30.98
268.00 28.74
269.00 27.70
270.00 28.13
271.00 29.95
272.00 32.66
273.00 34.77
274.00 33.99
275.00 31.54
276.00 29.95
277.00 29.90
278.00 31.35
279.00 33.41
280.00 33.48
281.00 31.28
282.00 29.21
283.00 28.19
284.00 28.35
285.00 29.56
286.00 31.20
287.00 31.48
288.00 29.71
289.00 27.73
290.00 26.60
291.00 26.45
292.00 27.14
293.00 28.43
294.00 29.94
295.00 30.87
296.00 30.76
297.00 30.45
298.00 30.85
299.00 32.21
300.00 34.34
301.00 36.40
302.00 37.35
303.00 38.24
304.00 41.81
305.00 59.04
306.00 40.88
307.00 35.05
308.00 32.44
309.00 31.35
310.00 31.23
311.00 31.65
312.00 31.50
313.00 30.11
314.00 28.47
315.00 27.21
316.00 26.01
317.00 24.43
318.00 22.64
319.00 21.12
320.00 20.16
321.00 19.89
322.00 20.34
323.00 21.41
324.00 22.84
325.00 24.23
326.00 25.45
327.00 26.91
328.00 29.43
329.00 34.23
330.00 45.53
331.00 44.78
332.00 39.89
333.00 39.99
334.00 38.60
335.00 34.98
336.00 32.72
337.00 32.48
338.00 34.77
339.00 42.86
340.00 41.88
341.00 31.77
342.00 26.67
343.00 23.18
344.00 20.74
345.00 19.22
346.00 18.62
347.00 19.00
348.00 20.59
349.00 24.04
350.00 31.99
351.00 37.13
352.00 26.37
353.00 22.78
354.00 21.56
355.00 22.09
356.00 23.89
357.00 21.95
358.00 16.21
359.00 11.51
