NAME ATR4518R7_1850_X_CO_M45_08T_yL
FREQUENCY 1850
GAIN 15.20 dBd
TILT	ELECTRICAL
COMMENT DATE 05.08.2013 -45 degrees polarized system Lever position 08T deg
HORIZONTAL 360
0.00 0.00
1.00 0.01
2.00 0.02
3.00 0.03
4.00 0.05
5.00 0.08
6.00 0.11
7.00 0.15
8.00 0.19
9.00 0.23
10.00 0.28
11.00 0.33
12.00 0.39
13.00 0.45
14.00 0.51
15.00 0.57
16.00 0.64
17.00 0.71
18.00 0.78
19.00 0.85
20.00 0.93
21.00 1.01
22.00 1.09
23.00 1.17
24.00 1.26
25.00 1.35
26.00 1.45
27.00 1.55
28.00 1.66
29.00 1.78
30.00 1.90
31.00 2.03
32.00 2.17
33.00 2.32
34.00 2.47
35.00 2.64
36.00 2.82
37.00 3.00
38.00 3.20
39.00 3.40
40.00 3.62
41.00 3.84
42.00 4.07
43.00 4.31
44.00 4.55
45.00 4.81
46.00 5.07
47.00 5.33
48.00 5.60
49.00 5.87
50.00 6.14
51.00 6.42
52.00 6.71
53.00 6.99
54.00 7.27
55.00 7.56
56.00 7.85
57.00 8.14
58.00 8.43
59.00 8.73
60.00 9.03
61.00 9.33
62.00 9.63
63.00 9.94
64.00 10.25
65.00 10.57
66.00 10.89
67.00 11.22
68.00 11.57
69.00 11.91
70.00 12.27
71.00 12.63
72.00 13.01
73.00 13.40
74.00 13.79
75.00 14.19
76.00 14.60
77.00 15.02
78.00 15.45
79.00 15.88
80.00 16.32
81.00 16.75
82.00 17.19
83.00 17.62
84.00 18.04
85.00 18.45
86.00 18.85
87.00 19.23
88.00 19.58
89.00 19.92
90.00 20.23
91.00 20.52
92.00 20.79
93.00 21.03
94.00 21.26
95.00 21.47
96.00 21.67
97.00 21.87
98.00 22.07
99.00 22.27
100.00 22.47
101.00 22.69
102.00 22.92
103.00 23.15
104.00 23.40
105.00 23.66
106.00 23.92
107.00 24.19
108.00 24.45
109.00 24.71
110.00 24.95
111.00 25.17
112.00 25.37
113.00 25.54
114.00 25.69
115.00 25.82
116.00 25.93
117.00 26.03
118.00 26.13
119.00 26.23
120.00 26.34
121.00 26.47
122.00 26.62
123.00 26.79
124.00 26.97
125.00 27.17
126.00 27.38
127.00 27.59
128.00 27.78
129.00 27.93
130.00 28.05
131.00 28.11
132.00 28.12
133.00 28.08
134.00 27.99
135.00 27.87
136.00 27.74
137.00 27.62
138.00 27.51
139.00 27.44
140.00 27.42
141.00 27.46
142.00 27.58
143.00 27.77
144.00 28.04
145.00 28.42
146.00 28.89
147.00 29.47
148.00 30.18
149.00 31.00
150.00 31.96
151.00 33.03
152.00 34.18
153.00 35.32
154.00 36.29
155.00 36.88
156.00 36.95
157.00 36.55
158.00 35.88
159.00 35.16
160.00 34.51
161.00 33.99
162.00 33.63
163.00 33.43
164.00 33.41
165.00 33.57
166.00 33.92
167.00 34.46
168.00 35.21
169.00 36.18
170.00 37.31
171.00 38.48
172.00 39.36
173.00 39.47
174.00 38.63
175.00 37.22
176.00 35.67
177.00 34.23
178.00 32.98
179.00 31.91
180.00 31.03
181.00 30.31
182.00 29.75
183.00 29.32
184.00 29.04
185.00 28.88
186.00 28.86
187.00 28.96
188.00 29.21
189.00 29.60
190.00 30.15
191.00 30.88
192.00 31.84
193.00 33.06
194.00 34.65
195.00 36.72
196.00 39.51
197.00 43.06
198.00 45.14
199.00 42.23
200.00 38.57
201.00 35.74
202.00 33.56
203.00 31.84
204.00 30.45
205.00 29.31
206.00 28.36
207.00 27.58
208.00 26.94
209.00 26.42
210.00 26.01
211.00 25.71
212.00 25.50
213.00 25.39
214.00 25.37
215.00 25.44
216.00 25.62
217.00 25.90
218.00 26.29
219.00 26.81
220.00 27.47
221.00 28.31
222.00 29.35
223.00 30.66
224.00 32.32
225.00 34.47
226.00 37.35
227.00 41.06
228.00 43.26
229.00 40.22
230.00 36.54
231.00 33.71
232.00 31.57
233.00 29.88
234.00 28.53
235.00 27.43
236.00 26.53
237.00 25.79
238.00 25.18
239.00 24.70
240.00 24.31
241.00 24.01
242.00 23.79
243.00 23.64
244.00 23.54
245.00 23.49
246.00 23.47
247.00 23.46
248.00 23.46
249.00 23.44
250.00 23.40
251.00 23.31
252.00 23.16
253.00 22.97
254.00 22.71
255.00 22.42
256.00 22.08
257.00 21.73
258.00 21.36
259.00 20.99
260.00 20.62
261.00 20.27
262.00 19.94
263.00 19.62
264.00 19.33
265.00 19.06
266.00 18.80
267.00 18.56
268.00 18.33
269.00 18.11
270.00 17.90
271.00 17.69
272.00 17.47
273.00 17.25
274.00 17.01
275.00 16.76
276.00 16.50
277.00 16.21
278.00 15.92
279.00 15.61
280.00 15.28
281.00 14.94
282.00 14.60
283.00 14.25
284.00 13.89
285.00 13.54
286.00 13.19
287.00 12.84
288.00 12.50
289.00 12.16
290.00 11.83
291.00 11.51
292.00 11.20
293.00 10.89
294.00 10.60
295.00 10.31
296.00 10.03
297.00 9.75
298.00 9.49
299.00 9.22
300.00 8.97
301.00 8.72
302.00 8.47
303.00 8.22
304.00 7.98
305.00 7.75
306.00 7.52
307.00 7.29
308.00 7.07
309.00 6.85
310.00 6.64
311.00 6.43
312.00 6.23
313.00 6.04
314.00 5.85
315.00 5.67
316.00 5.49
317.00 5.32
318.00 5.15
319.00 4.98
320.00 4.82
321.00 4.65
322.00 4.49
323.00 4.32
324.00 4.15
325.00 3.98
326.00 3.81
327.00 3.63
328.00 3.45
329.00 3.26
330.00 3.08
331.00 2.89
332.00 2.70
333.00 2.51
334.00 2.32
335.00 2.14
336.00 1.96
337.00 1.78
338.00 1.61
339.00 1.45
340.00 1.30
341.00 1.15
342.00 1.02
343.00 0.89
344.00 0.78
345.00 0.67
346.00 0.57
347.00 0.48
348.00 0.40
349.00 0.33
350.00 0.27
351.00 0.21
352.00 0.17
353.00 0.13
354.00 0.09
355.00 0.06
356.00 0.04
357.00 0.02
358.00 0.01
359.00 0.01
VERTICAL 360
0.00 25.12
1.00 17.00
2.00 11.47
3.00 7.48
4.00 4.53
5.00 2.40
6.00 0.96
7.00 0.16
8.00 0.01
9.00 0.51
10.00 1.76
11.00 3.88
12.00 7.22
13.00 12.46
14.00 19.29
15.00 16.56
16.00 13.46
17.00 12.79
18.00 13.97
19.00 16.92
20.00 20.83
21.00 19.92
22.00 16.67
23.00 14.92
24.00 14.62
25.00 15.64
26.00 18.04
27.00 22.24
28.00 28.15
29.00 26.72
30.00 22.73
31.00 20.86
32.00 20.73
33.00 22.44
34.00 27.11
35.00 39.33
36.00 27.89
37.00 22.78
38.00 20.60
39.00 19.77
40.00 19.67
41.00 20.01
42.00 20.71
43.00 21.64
44.00 22.16
45.00 21.63
46.00 20.44
47.00 19.32
48.00 18.47
49.00 17.83
50.00 17.29
51.00 16.88
52.00 16.69
53.00 16.83
54.00 17.34
55.00 18.21
56.00 19.42
57.00 20.98
58.00 22.98
59.00 25.52
60.00 28.79
61.00 33.02
62.00 38.50
63.00 44.27
64.00 43.58
65.00 40.72
66.00 39.00
67.00 38.05
68.00 37.31
69.00 36.32
70.00 35.03
71.00 33.70
72.00 32.56
73.00 31.73
74.00 31.30
75.00 31.39
76.00 32.03
77.00 33.17
78.00 34.60
79.00 35.94
80.00 36.76
81.00 36.98
82.00 37.00
83.00 37.18
84.00 37.74
85.00 39.02
86.00 41.82
87.00 47.82
88.00 49.63
89.00 43.90
90.00 42.31
91.00 43.84
92.00 48.85
93.00 57.96
94.00 52.20
95.00 47.75
96.00 44.98
97.00 43.08
98.00 41.71
99.00 40.74
100.00 40.52
101.00 41.50
102.00 43.80
103.00 46.53
104.00 47.31
105.00 45.49
106.00 43.12
107.00 41.71
108.00 41.78
109.00 43.20
110.00 45.00
111.00 45.55
112.00 44.84
113.00 43.98
114.00 43.87
115.00 45.14
116.00 48.18
117.00 52.45
118.00 55.29
119.00 55.45
120.00 52.16
121.00 47.48
122.00 43.55
123.00 40.84
124.00 39.43
125.00 39.30
126.00 40.28
127.00 42.18
128.00 44.93
129.00 46.65
130.00 43.86
131.00 40.71
132.00 38.76
133.00 37.56
134.00 37.00
135.00 37.42
136.00 39.39
137.00 43.58
138.00 51.16
139.00 61.91
140.00 56.32
141.00 49.29
142.00 45.96
143.00 45.78
144.00 47.19
145.00 45.03
146.00 41.49
147.00 39.58
148.00 39.11
149.00 39.78
150.00 41.41
151.00 42.77
152.00 41.09
153.00 38.39
154.00 36.77
155.00 36.22
156.00 36.32
157.00 36.81
158.00 37.44
159.00 36.88
160.00 34.54
161.00 32.34
162.00 31.30
163.00 31.47
164.00 32.53
165.00 33.94
166.00 35.44
167.00 37.38
168.00 38.82
169.00 36.85
170.00 33.98
171.00 32.11
172.00 31.21
173.00 31.07
174.00 31.64
175.00 33.05
176.00 35.76
177.00 40.43
178.00 43.79
179.00 40.30
180.00 38.43
181.00 39.14
182.00 42.55
183.00 49.90
184.00 53.99
185.00 45.50
186.00 39.87
187.00 36.37
188.00 34.89
189.00 35.38
190.00 37.70
191.00 40.04
192.00 39.10
193.00 38.04
194.00 38.91
195.00 41.83
196.00 45.77
197.00 47.49
198.00 48.08
199.00 45.54
200.00 39.75
201.00 35.60
202.00 33.36
203.00 32.87
204.00 34.29
205.00 38.29
206.00 42.75
207.00 36.90
208.00 32.62
209.00 30.34
210.00 29.23
211.00 28.89
212.00 29.09
213.00 29.71
214.00 30.76
215.00 32.44
216.00 35.07
217.00 39.11
218.00 44.50
219.00 46.30
220.00 44.64
221.00 44.10
222.00 43.52
223.00 41.62
224.00 39.53
225.00 38.23
226.00 37.96
227.00 38.73
228.00 40.54
229.00 43.09
230.00 45.06
231.00 44.99
232.00 43.90
233.00 42.90
234.00 42.11
235.00 41.37
236.00 40.57
237.00 39.59
238.00 38.48
239.00 37.38
240.00 36.50
241.00 36.00
242.00 36.03
243.00 36.70
244.00 38.01
245.00 39.66
246.00 40.98
247.00 41.49
248.00 41.25
249.00 40.35
250.00 38.93
251.00 37.44
252.00 36.46
253.00 36.50
254.00 38.08
255.00 42.24
256.00 54.76
257.00 48.03
258.00 41.42
259.00 38.64
260.00 36.99
261.00 35.62
262.00 34.23
263.00 32.84
264.00 31.63
265.00 30.70
266.00 30.02
267.00 29.46
268.00 28.91
269.00 28.30
270.00 27.70
271.00 27.19
272.00 26.88
273.00 26.79
274.00 26.89
275.00 27.09
276.00 27.31
277.00 27.53
278.00 27.83
279.00 28.30
280.00 29.01
281.00 30.05
282.00 31.53
283.00 33.75
284.00 37.28
285.00 42.67
286.00 41.61
287.00 36.32
288.00 32.93
289.00 30.62
290.00 28.76
291.00 27.02
292.00 25.34
293.00 23.76
294.00 22.39
295.00 21.34
296.00 20.68
297.00 20.44
298.00 20.66
299.00 21.39
300.00 22.69
301.00 24.72
302.00 27.66
303.00 31.24
304.00 31.86
305.00 28.61
306.00 25.64
307.00 23.57
308.00 22.27
309.00 21.67
310.00 21.84
311.00 22.91
312.00 25.18
313.00 29.12
314.00 32.63
315.00 28.31
316.00 23.94
317.00 21.09
318.00 19.32
319.00 18.44
320.00 18.48
321.00 19.59
322.00 22.17
323.00 27.43
324.00 45.64
325.00 30.34
326.00 24.77
327.00 22.44
328.00 21.68
329.00 22.19
330.00 24.14
331.00 28.39
332.00 39.42
333.00 35.76
334.00 29.34
335.00 27.74
336.00 28.85
337.00 33.15
338.00 37.60
339.00 29.66
340.00 25.00
341.00 22.62
342.00 21.83
343.00 22.50
344.00 24.76
345.00 28.05
346.00 28.26
347.00 26.14
348.00 25.55
349.00 26.97
350.00 28.96
351.00 26.69
352.00 22.99
353.00 20.65
354.00 19.71
355.00 20.13
356.00 21.93
357.00 25.11
358.00 29.45
359.00 34.26
