NAME ATR4518R7_2350_X_CO_M45_07T_yL
FREQUENCY 2350
GAIN 15.83 dBd
TILT	ELECTRICAL
COMMENT DATE 05.08.2013 -45 degrees polarized system Lever position 07T deg
HORIZONTAL 360
0.00 0.01
1.00 0.04
2.00 0.08
3.00 0.13
4.00 0.20
5.00 0.29
6.00 0.39
7.00 0.51
8.00 0.64
9.00 0.78
10.00 0.92
11.00 1.08
12.00 1.24
13.00 1.41
14.00 1.57
15.00 1.73
16.00 1.89
17.00 2.05
18.00 2.20
19.00 2.34
20.00 2.48
21.00 2.61
22.00 2.74
23.00 2.87
24.00 3.00
25.00 3.13
26.00 3.26
27.00 3.41
28.00 3.56
29.00 3.72
30.00 3.89
31.00 4.08
32.00 4.27
33.00 4.48
34.00 4.71
35.00 4.95
36.00 5.20
37.00 5.46
38.00 5.73
39.00 6.02
40.00 6.31
41.00 6.60
42.00 6.90
43.00 7.20
44.00 7.50
45.00 7.79
46.00 8.08
47.00 8.35
48.00 8.63
49.00 8.88
50.00 9.13
51.00 9.37
52.00 9.59
53.00 9.80
54.00 10.00
55.00 10.19
56.00 10.37
57.00 10.55
58.00 10.72
59.00 10.89
60.00 11.06
61.00 11.23
62.00 11.40
63.00 11.58
64.00 11.77
65.00 11.96
66.00 12.17
67.00 12.38
68.00 12.60
69.00 12.84
70.00 13.08
71.00 13.33
72.00 13.60
73.00 13.87
74.00 14.15
75.00 14.44
76.00 14.73
77.00 15.03
78.00 15.33
79.00 15.63
80.00 15.94
81.00 16.25
82.00 16.56
83.00 16.88
84.00 17.20
85.00 17.52
86.00 17.87
87.00 18.22
88.00 18.59
89.00 18.98
90.00 19.39
91.00 19.83
92.00 20.31
93.00 20.81
94.00 21.36
95.00 21.94
96.00 22.56
97.00 23.23
98.00 23.95
99.00 24.70
100.00 25.50
101.00 26.34
102.00 27.21
103.00 28.11
104.00 29.01
105.00 29.92
106.00 30.81
107.00 31.67
108.00 32.50
109.00 33.30
110.00 34.08
111.00 34.85
112.00 35.66
113.00 36.53
114.00 37.49
115.00 38.57
116.00 39.79
117.00 41.13
118.00 42.51
119.00 43.65
120.00 44.17
121.00 43.81
122.00 42.84
123.00 41.63
124.00 40.49
125.00 39.50
126.00 38.70
127.00 38.07
128.00 37.62
129.00 37.32
130.00 37.17
131.00 37.15
132.00 37.25
133.00 37.47
134.00 37.78
135.00 38.18
136.00 38.66
137.00 39.19
138.00 39.74
139.00 40.29
140.00 40.81
141.00 41.24
142.00 41.56
143.00 41.71
144.00 41.65
145.00 41.38
146.00 40.92
147.00 40.30
148.00 39.59
149.00 38.84
150.00 38.09
151.00 37.38
152.00 36.73
153.00 36.18
154.00 35.72
155.00 35.37
156.00 35.14
157.00 35.03
158.00 35.05
159.00 35.20
160.00 35.45
161.00 35.81
162.00 36.22
163.00 36.63
164.00 36.90
165.00 36.94
166.00 36.66
167.00 36.06
168.00 35.27
169.00 34.40
170.00 33.54
171.00 32.77
172.00 32.12
173.00 31.61
174.00 31.24
175.00 31.04
176.00 31.00
177.00 31.14
178.00 31.48
179.00 32.04
180.00 32.86
181.00 34.00
182.00 35.55
183.00 37.66
184.00 40.50
185.00 43.76
186.00 44.19
187.00 40.92
188.00 37.70
189.00 35.24
190.00 33.38
191.00 31.95
192.00 30.87
193.00 30.07
194.00 29.51
195.00 29.16
196.00 29.02
197.00 29.08
198.00 29.34
199.00 29.83
200.00 30.57
201.00 31.62
202.00 33.06
203.00 35.04
204.00 37.92
205.00 42.61
206.00 53.89
207.00 48.15
208.00 40.52
209.00 36.60
210.00 34.03
211.00 32.20
212.00 30.84
213.00 29.82
214.00 29.08
215.00 28.56
216.00 28.24
217.00 28.10
218.00 28.14
219.00 28.34
220.00 28.72
221.00 29.28
222.00 30.03
223.00 31.00
224.00 32.20
225.00 33.68
226.00 35.43
227.00 37.31
228.00 38.80
229.00 38.97
230.00 37.73
231.00 35.98
232.00 34.30
233.00 32.86
234.00 31.68
235.00 30.72
236.00 29.94
237.00 29.32
238.00 28.82
239.00 28.44
240.00 28.14
241.00 27.92
242.00 27.76
243.00 27.63
244.00 27.53
245.00 27.44
246.00 27.34
247.00 27.22
248.00 27.06
249.00 26.87
250.00 26.64
251.00 26.36
252.00 26.05
253.00 25.71
254.00 25.35
255.00 24.99
256.00 24.62
257.00 24.25
258.00 23.89
259.00 23.55
260.00 23.21
261.00 22.89
262.00 22.58
263.00 22.28
264.00 21.98
265.00 21.69
266.00 21.40
267.00 21.10
268.00 20.80
269.00 20.50
270.00 20.18
271.00 19.87
272.00 19.54
273.00 19.22
274.00 18.89
275.00 18.56
276.00 18.24
277.00 17.91
278.00 17.60
279.00 17.28
280.00 16.98
281.00 16.68
282.00 16.38
283.00 16.09
284.00 15.80
285.00 15.51
286.00 15.22
287.00 14.94
288.00 14.64
289.00 14.35
290.00 14.05
291.00 13.74
292.00 13.43
293.00 13.11
294.00 12.79
295.00 12.46
296.00 12.13
297.00 11.79
298.00 11.46
299.00 11.12
300.00 10.78
301.00 10.44
302.00 10.11
303.00 9.77
304.00 9.44
305.00 9.11
306.00 8.79
307.00 8.46
308.00 8.14
309.00 7.83
310.00 7.51
311.00 7.20
312.00 6.89
313.00 6.58
314.00 6.28
315.00 5.97
316.00 5.67
317.00 5.38
318.00 5.08
319.00 4.80
320.00 4.51
321.00 4.23
322.00 3.96
323.00 3.70
324.00 3.45
325.00 3.21
326.00 2.97
327.00 2.75
328.00 2.54
329.00 2.34
330.00 2.15
331.00 1.98
332.00 1.82
333.00 1.67
334.00 1.53
335.00 1.41
336.00 1.29
337.00 1.19
338.00 1.09
339.00 1.01
340.00 0.93
341.00 0.85
342.00 0.79
343.00 0.73
344.00 0.67
345.00 0.61
346.00 0.55
347.00 0.49
348.00 0.44
349.00 0.38
350.00 0.32
351.00 0.27
352.00 0.21
353.00 0.16
354.00 0.11
355.00 0.07
356.00 0.04
357.00 0.01
358.00 0.00
359.00 0.00
VERTICAL 360
0.00 28.29
1.00 27.67
2.00 14.77
3.00 8.44
4.00 4.45
5.00 1.90
6.00 0.46
7.00 0.00
8.00 0.56
9.00 2.32
10.00 5.75
11.00 12.35
12.00 48.05
13.00 15.56
14.00 12.31
15.00 12.50
16.00 14.97
17.00 18.88
18.00 18.35
19.00 15.68
20.00 15.35
21.00 17.78
22.00 22.22
23.00 20.16
24.00 16.90
25.00 16.17
26.00 17.64
27.00 21.91
28.00 35.92
29.00 26.43
30.00 20.37
31.00 18.69
32.00 19.48
33.00 22.53
34.00 25.96
35.00 23.29
36.00 19.90
37.00 18.08
38.00 17.55
39.00 18.10
40.00 19.57
41.00 21.75
42.00 24.21
43.00 26.49
44.00 28.45
45.00 30.19
46.00 31.96
47.00 33.48
48.00 32.36
49.00 29.17
50.00 26.69
51.00 25.47
52.00 25.43
53.00 26.38
54.00 28.15
55.00 30.58
56.00 33.86
57.00 39.24
58.00 42.79
59.00 35.14
60.00 30.77
61.00 28.55
62.00 27.68
63.00 27.74
64.00 28.34
65.00 29.12
66.00 29.77
67.00 30.25
68.00 30.81
69.00 31.70
70.00 32.98
71.00 34.44
72.00 35.76
73.00 36.71
74.00 37.44
75.00 38.50
76.00 40.34
77.00 43.20
78.00 47.28
79.00 52.57
80.00 53.95
81.00 51.99
82.00 51.05
83.00 48.56
84.00 45.78
85.00 44.51
86.00 44.35
87.00 44.30
88.00 44.35
89.00 45.15
90.00 45.57
91.00 43.68
92.00 41.38
93.00 40.11
94.00 39.93
95.00 40.69
96.00 42.00
97.00 42.61
98.00 41.65
99.00 40.47
100.00 40.25
101.00 41.37
102.00 43.86
103.00 47.28
104.00 49.89
105.00 49.56
106.00 47.51
107.00 46.13
108.00 46.56
109.00 49.46
110.00 56.23
111.00 60.63
112.00 55.48
113.00 54.45
114.00 56.91
115.00 65.03
116.00 53.22
117.00 47.02
118.00 44.37
119.00 44.36
120.00 47.36
121.00 49.25
122.00 42.72
123.00 38.55
124.00 36.58
125.00 36.13
126.00 36.88
127.00 38.76
128.00 42.09
129.00 48.20
130.00 55.39
131.00 46.85
132.00 42.71
133.00 40.74
134.00 39.88
135.00 39.54
136.00 39.08
137.00 38.17
138.00 37.21
139.00 36.84
140.00 37.35
141.00 38.24
142.00 38.40
143.00 38.13
144.00 38.71
145.00 40.64
146.00 43.51
147.00 46.00
148.00 46.48
149.00 45.22
150.00 44.31
151.00 43.75
152.00 41.54
153.00 38.74
154.00 37.06
155.00 36.70
156.00 37.41
157.00 38.80
158.00 40.62
159.00 43.11
160.00 46.65
161.00 50.31
162.00 52.24
163.00 53.15
164.00 49.41
165.00 46.04
166.00 45.63
167.00 46.78
168.00 42.56
169.00 37.28
170.00 33.88
171.00 32.03
172.00 31.46
173.00 32.04
174.00 33.46
175.00 35.52
176.00 37.80
177.00 40.00
178.00 41.53
179.00 41.90
180.00 41.55
181.00 40.84
182.00 39.99
183.00 38.99
184.00 37.83
185.00 36.76
186.00 36.03
187.00 35.67
188.00 35.62
189.00 35.99
190.00 36.95
191.00 38.50
192.00 40.43
193.00 42.20
194.00 42.82
195.00 41.81
196.00 40.34
197.00 39.60
198.00 40.08
199.00 41.54
200.00 42.66
201.00 42.63
202.00 42.68
203.00 43.21
204.00 43.24
205.00 41.65
206.00 38.82
207.00 36.21
208.00 34.72
209.00 34.60
210.00 35.82
211.00 37.95
212.00 40.06
213.00 42.35
214.00 47.39
215.00 48.33
216.00 41.50
217.00 39.01
218.00 39.63
219.00 43.20
220.00 48.28
221.00 47.28
222.00 45.21
223.00 42.34
224.00 39.52
225.00 38.39
226.00 38.87
227.00 39.34
228.00 38.17
229.00 36.97
230.00 37.10
231.00 38.86
232.00 42.52
233.00 48.00
234.00 49.74
235.00 47.24
236.00 44.96
237.00 42.37
238.00 40.01
239.00 38.27
240.00 37.00
241.00 36.11
242.00 35.67
243.00 35.64
244.00 35.78
245.00 35.76
246.00 35.57
247.00 35.62
248.00 36.35
249.00 37.99
250.00 40.23
251.00 41.89
252.00 41.70
253.00 39.95
254.00 38.11
255.00 37.11
256.00 37.13
257.00 38.02
258.00 39.54
259.00 40.64
260.00 39.78
261.00 38.55
262.00 38.78
263.00 40.92
264.00 43.73
265.00 42.11
266.00 38.26
267.00 35.15
268.00 32.98
269.00 31.62
270.00 30.82
271.00 30.36
272.00 30.08
273.00 29.82
274.00 29.39
275.00 28.76
276.00 28.06
277.00 27.48
278.00 27.15
279.00 27.05
280.00 27.05
281.00 26.95
282.00 26.58
283.00 25.97
284.00 25.20
285.00 24.40
286.00 23.59
287.00 22.82
288.00 22.11
289.00 21.52
290.00 21.03
291.00 20.51
292.00 19.82
293.00 18.96
294.00 18.12
295.00 17.45
296.00 16.99
297.00 16.67
298.00 16.47
299.00 16.46
300.00 16.80
301.00 17.68
302.00 19.30
303.00 21.99
304.00 26.32
305.00 31.39
306.00 28.06
307.00 24.04
308.00 21.91
309.00 21.08
310.00 21.24
311.00 22.32
312.00 24.38
313.00 27.14
314.00 27.84
315.00 25.39
316.00 23.34
317.00 22.66
318.00 23.36
319.00 25.29
320.00 26.61
321.00 24.00
322.00 20.78
323.00 19.02
324.00 18.96
325.00 20.96
326.00 26.70
327.00 42.31
328.00 24.78
329.00 20.54
330.00 19.36
331.00 20.45
332.00 24.73
333.00 42.44
334.00 26.69
335.00 21.63
336.00 20.43
337.00 21.58
338.00 24.91
339.00 29.27
340.00 27.79
341.00 25.44
342.00 25.81
343.00 27.97
344.00 25.14
345.00 20.89
346.00 18.99
347.00 19.50
348.00 23.22
349.00 37.98
350.00 25.88
351.00 20.20
352.00 18.54
353.00 19.14
354.00 21.63
355.00 25.74
356.00 28.94
357.00 27.52
358.00 24.97
359.00 24.06
