NAME ATR4518R7_0880_X_CO_P45_06T
FREQUENCY 0880
GAIN 14.69 dBd
TILT	ELECTRICAL
COMMENT DATE 05.08.2013 +45 degrees polarized system Lever position 06T deg
HORIZONTAL 360
0.00 0.00
1.00 0.00
2.00 0.00
3.00 0.01
4.00 0.03
5.00 0.05
6.00 0.07
7.00 0.11
8.00 0.15
9.00 0.19
10.00 0.24
11.00 0.30
12.00 0.37
13.00 0.44
14.00 0.52
15.00 0.60
16.00 0.69
17.00 0.79
18.00 0.89
19.00 1.00
20.00 1.11
21.00 1.23
22.00 1.36
23.00 1.49
24.00 1.63
25.00 1.78
26.00 1.93
27.00 2.09
28.00 2.25
29.00 2.43
30.00 2.60
31.00 2.78
32.00 2.97
33.00 3.17
34.00 3.37
35.00 3.57
36.00 3.78
37.00 4.00
38.00 4.22
39.00 4.45
40.00 4.69
41.00 4.93
42.00 5.18
43.00 5.43
44.00 5.68
45.00 5.94
46.00 6.21
47.00 6.48
48.00 6.76
49.00 7.04
50.00 7.33
51.00 7.62
52.00 7.92
53.00 8.22
54.00 8.53
55.00 8.84
56.00 9.15
57.00 9.47
58.00 9.80
59.00 10.13
60.00 10.46
61.00 10.80
62.00 11.14
63.00 11.49
64.00 11.85
65.00 12.20
66.00 12.56
67.00 12.93
68.00 13.31
69.00 13.68
70.00 14.06
71.00 14.45
72.00 14.85
73.00 15.24
74.00 15.65
75.00 16.06
76.00 16.47
77.00 16.89
78.00 17.32
79.00 17.75
80.00 18.18
81.00 18.62
82.00 19.07
83.00 19.52
84.00 19.97
85.00 20.43
86.00 20.89
87.00 21.34
88.00 21.80
89.00 22.25
90.00 22.70
91.00 23.14
92.00 23.57
93.00 23.99
94.00 24.39
95.00 24.78
96.00 25.14
97.00 25.47
98.00 25.77
99.00 26.05
100.00 26.29
101.00 26.50
102.00 26.68
103.00 26.83
104.00 26.95
105.00 27.04
106.00 27.12
107.00 27.17
108.00 27.20
109.00 27.22
110.00 27.23
111.00 27.24
112.00 27.24
113.00 27.24
114.00 27.24
115.00 27.25
116.00 27.26
117.00 27.27
118.00 27.29
119.00 27.33
120.00 27.36
121.00 27.41
122.00 27.47
123.00 27.54
124.00 27.62
125.00 27.71
126.00 27.82
127.00 27.94
128.00 28.07
129.00 28.21
130.00 28.37
131.00 28.54
132.00 28.73
133.00 28.93
134.00 29.15
135.00 29.39
136.00 29.64
137.00 29.91
138.00 30.20
139.00 30.52
140.00 30.86
141.00 31.22
142.00 31.61
143.00 32.02
144.00 32.47
145.00 32.95
146.00 33.47
147.00 34.03
148.00 34.64
149.00 35.30
150.00 36.02
151.00 36.82
152.00 37.69
153.00 38.66
154.00 39.74
155.00 40.95
156.00 42.33
157.00 43.85
158.00 45.53
159.00 47.16
160.00 48.39
161.00 48.54
162.00 47.57
163.00 46.03
164.00 44.43
165.00 42.94
166.00 41.63
167.00 40.47
168.00 39.45
169.00 38.55
170.00 37.74
171.00 37.03
172.00 36.39
173.00 35.82
174.00 35.30
175.00 34.84
176.00 34.42
177.00 34.04
178.00 33.71
179.00 33.40
180.00 33.14
181.00 32.90
182.00 32.69
183.00 32.51
184.00 32.36
185.00 32.23
186.00 32.13
187.00 32.05
188.00 31.99
189.00 31.95
190.00 31.93
191.00 31.93
192.00 31.95
193.00 31.99
194.00 32.04
195.00 32.11
196.00 32.19
197.00 32.29
198.00 32.40
199.00 32.52
200.00 32.65
201.00 32.79
202.00 32.94
203.00 33.08
204.00 33.23
205.00 33.38
206.00 33.52
207.00 33.66
208.00 33.79
209.00 33.90
210.00 34.00
211.00 34.09
212.00 34.15
213.00 34.20
214.00 34.22
215.00 34.22
216.00 34.20
217.00 34.16
218.00 34.10
219.00 34.02
220.00 33.93
221.00 33.82
222.00 33.70
223.00 33.58
224.00 33.44
225.00 33.30
226.00 33.15
227.00 32.99
228.00 32.84
229.00 32.69
230.00 32.53
231.00 32.37
232.00 32.21
233.00 32.04
234.00 31.88
235.00 31.72
236.00 31.55
237.00 31.39
238.00 31.21
239.00 31.05
240.00 30.87
241.00 30.70
242.00 30.51
243.00 30.33
244.00 30.14
245.00 29.94
246.00 29.74
247.00 29.53
248.00 29.31
249.00 29.08
250.00 28.84
251.00 28.60
252.00 28.34
253.00 28.07
254.00 27.79
255.00 27.50
256.00 27.20
257.00 26.88
258.00 26.55
259.00 26.21
260.00 25.86
261.00 25.50
262.00 25.12
263.00 24.74
264.00 24.35
265.00 23.95
266.00 23.54
267.00 23.13
268.00 22.71
269.00 22.29
270.00 21.87
271.00 21.45
272.00 21.02
273.00 20.60
274.00 20.17
275.00 19.75
276.00 19.33
277.00 18.91
278.00 18.50
279.00 18.09
280.00 17.68
281.00 17.28
282.00 16.88
283.00 16.48
284.00 16.09
285.00 15.71
286.00 15.33
287.00 14.95
288.00 14.58
289.00 14.22
290.00 13.86
291.00 13.50
292.00 13.15
293.00 12.80
294.00 12.46
295.00 12.12
296.00 11.79
297.00 11.46
298.00 11.13
299.00 10.81
300.00 10.49
301.00 10.18
302.00 9.87
303.00 9.57
304.00 9.26
305.00 8.97
306.00 8.67
307.00 8.39
308.00 8.10
309.00 7.82
310.00 7.54
311.00 7.27
312.00 7.00
313.00 6.73
314.00 6.47
315.00 6.22
316.00 5.97
317.00 5.72
318.00 5.48
319.00 5.24
320.00 5.00
321.00 4.77
322.00 4.55
323.00 4.33
324.00 4.11
325.00 3.90
326.00 3.69
327.00 3.49
328.00 3.30
329.00 3.11
330.00 2.92
331.00 2.74
332.00 2.57
333.00 2.40
334.00 2.23
335.00 2.08
336.00 1.92
337.00 1.77
338.00 1.63
339.00 1.50
340.00 1.37
341.00 1.24
342.00 1.12
343.00 1.01
344.00 0.90
345.00 0.80
346.00 0.71
347.00 0.62
348.00 0.53
349.00 0.46
350.00 0.38
351.00 0.32
352.00 0.26
353.00 0.20
354.00 0.16
355.00 0.12
356.00 0.08
357.00 0.05
358.00 0.03
359.00 0.01
VERTICAL 360
0.00 6.14
1.00 4.09
2.00 2.51
3.00 1.34
4.00 0.54
5.00 0.10
6.00 0.00
7.00 0.24
8.00 0.84
9.00 1.80
10.00 3.17
11.00 4.98
12.00 7.35
13.00 10.41
14.00 14.46
15.00 19.96
16.00 26.11
17.00 25.70
18.00 23.82
19.00 23.96
20.00 26.21
21.00 31.94
22.00 51.59
23.00 30.54
24.00 25.60
25.00 23.33
26.00 22.47
27.00 22.63
28.00 23.73
29.00 25.86
30.00 29.39
31.00 35.02
32.00 39.27
33.00 35.42
34.00 33.58
35.00 34.56
36.00 39.06
37.00 37.97
38.00 30.34
39.00 25.78
40.00 22.91
41.00 21.09
42.00 19.96
43.00 19.32
44.00 18.99
45.00 18.88
46.00 18.97
47.00 19.30
48.00 19.93
49.00 20.93
50.00 22.32
51.00 24.09
52.00 26.22
53.00 28.74
54.00 31.89
55.00 36.45
56.00 43.62
57.00 40.19
58.00 34.91
59.00 32.39
60.00 31.51
61.00 31.72
62.00 32.58
63.00 33.72
64.00 35.02
65.00 36.41
66.00 36.98
67.00 35.95
68.00 34.63
69.00 34.07
70.00 34.45
71.00 35.55
72.00 36.98
73.00 38.18
74.00 38.20
75.00 36.55
76.00 34.29
77.00 32.32
78.00 30.87
79.00 29.89
80.00 29.31
81.00 29.07
82.00 29.00
83.00 28.89
84.00 28.60
85.00 28.18
86.00 27.71
87.00 27.22
88.00 26.73
89.00 26.32
90.00 26.08
91.00 26.12
92.00 26.43
93.00 26.92
94.00 27.45
95.00 27.98
96.00 28.59
97.00 29.30
98.00 29.94
99.00 30.30
100.00 30.35
101.00 30.24
102.00 30.23
103.00 30.68
104.00 31.79
105.00 33.49
106.00 35.11
107.00 35.47
108.00 34.54
109.00 33.41
110.00 32.88
111.00 33.28
112.00 34.75
113.00 37.23
114.00 40.20
115.00 41.98
116.00 41.36
117.00 40.09
118.00 39.52
119.00 39.87
120.00 40.94
121.00 42.40
122.00 44.01
123.00 45.21
124.00 45.46
125.00 45.31
126.00 44.81
127.00 43.56
128.00 42.41
129.00 42.36
130.00 43.73
131.00 46.41
132.00 49.75
133.00 52.13
134.00 51.64
135.00 48.39
136.00 44.49
137.00 41.36
138.00 39.48
139.00 38.92
140.00 39.62
141.00 41.23
142.00 42.90
143.00 43.96
144.00 44.94
145.00 46.24
146.00 46.98
147.00 46.44
148.00 45.46
149.00 44.78
150.00 44.36
151.00 43.79
152.00 42.63
153.00 40.89
154.00 39.06
155.00 37.66
156.00 37.01
157.00 37.23
158.00 38.34
159.00 40.32
160.00 42.84
161.00 43.70
162.00 41.59
163.00 39.54
164.00 38.67
165.00 38.67
166.00 38.55
167.00 37.48
168.00 35.95
169.00 34.69
170.00 33.88
171.00 33.43
172.00 33.17
173.00 32.99
174.00 32.90
175.00 32.89
176.00 33.00
177.00 33.21
178.00 33.56
179.00 34.06
180.00 34.71
181.00 35.59
182.00 36.84
183.00 38.73
184.00 41.53
185.00 44.78
186.00 44.65
187.00 41.43
188.00 38.72
189.00 36.89
190.00 35.70
191.00 35.06
192.00 34.93
193.00 35.27
194.00 35.97
195.00 36.83
196.00 37.67
197.00 38.60
198.00 40.09
199.00 42.68
200.00 46.11
201.00 46.66
202.00 44.20
203.00 42.34
204.00 41.36
205.00 40.89
206.00 40.75
207.00 40.99
208.00 42.03
209.00 44.64
210.00 49.19
211.00 49.30
212.00 46.29
213.00 46.24
214.00 50.08
215.00 67.12
216.00 53.38
217.00 48.07
218.00 45.61
219.00 43.31
220.00 40.54
221.00 37.81
222.00 35.69
223.00 34.43
224.00 34.01
225.00 34.20
226.00 34.55
227.00 34.52
228.00 33.90
229.00 32.97
230.00 32.30
231.00 32.38
232.00 33.56
233.00 36.26
234.00 41.18
235.00 49.80
236.00 52.42
237.00 51.23
238.00 57.24
239.00 58.04
240.00 52.35
241.00 52.57
242.00 50.11
243.00 45.04
244.00 42.54
245.00 42.45
246.00 44.23
247.00 45.89
248.00 44.73
249.00 43.14
250.00 42.30
251.00 41.24
252.00 39.13
253.00 36.78
254.00 35.07
255.00 34.26
256.00 34.26
257.00 34.70
258.00 34.98
259.00 34.75
260.00 34.22
261.00 33.81
262.00 33.70
263.00 33.83
264.00 33.88
265.00 33.56
266.00 32.93
267.00 32.41
268.00 32.37
269.00 32.99
270.00 34.28
271.00 35.86
272.00 36.56
273.00 35.46
274.00 33.72
275.00 32.48
276.00 32.07
277.00 32.41
278.00 33.17
279.00 33.80
280.00 33.87
281.00 33.52
282.00 33.28
283.00 33.47
284.00 33.97
285.00 34.05
286.00 33.30
287.00 32.26
288.00 31.52
289.00 31.33
290.00 31.89
291.00 33.35
292.00 35.47
293.00 36.95
294.00 36.45
295.00 35.27
296.00 34.53
297.00 34.54
298.00 35.49
299.00 37.58
300.00 40.95
301.00 45.49
302.00 49.75
303.00 48.70
304.00 45.17
305.00 42.63
306.00 41.30
307.00 41.11
308.00 41.05
309.00 38.46
310.00 34.52
311.00 31.38
312.00 29.13
313.00 27.34
314.00 25.58
315.00 23.77
316.00 22.09
317.00 20.78
318.00 19.95
319.00 19.63
320.00 19.77
321.00 20.23
322.00 20.82
323.00 21.47
324.00 22.30
325.00 23.61
326.00 25.91
327.00 30.01
328.00 38.29
329.00 39.42
330.00 32.99
331.00 30.88
332.00 30.64
333.00 31.18
334.00 31.73
335.00 32.30
336.00 33.69
337.00 37.14
338.00 47.03
339.00 42.71
340.00 34.42
341.00 29.94
342.00 26.67
343.00 24.17
344.00 22.47
345.00 21.61
346.00 21.69
347.00 22.85
348.00 25.46
349.00 30.51
350.00 35.64
351.00 29.38
352.00 25.54
353.00 23.99
354.00 23.95
355.00 24.00
356.00 20.96
357.00 16.20
358.00 12.05
359.00 8.75
