NAME ATR4518R7_1880_X_CO_P45_06T_yL
FREQUENCY 1880
GAIN 14.79 dBd
TILT	ELECTRICAL
COMMENT DATE 05.08.2013 +45 degrees polarized system Lever position 06T deg
HORIZONTAL 360
0.00 0.13
1.00 0.10
2.00 0.07
3.00 0.05
4.00 0.03
5.00 0.01
6.00 0.01
7.00 0.00
8.00 0.00
9.00 0.01
10.00 0.03
11.00 0.05
12.00 0.08
13.00 0.12
14.00 0.16
15.00 0.22
16.00 0.28
17.00 0.35
18.00 0.43
19.00 0.51
20.00 0.61
21.00 0.71
22.00 0.82
23.00 0.94
24.00 1.06
25.00 1.20
26.00 1.34
27.00 1.48
28.00 1.63
29.00 1.79
30.00 1.96
31.00 2.13
32.00 2.31
33.00 2.49
34.00 2.68
35.00 2.87
36.00 3.07
37.00 3.28
38.00 3.49
39.00 3.70
40.00 3.92
41.00 4.15
42.00 4.37
43.00 4.61
44.00 4.84
45.00 5.08
46.00 5.32
47.00 5.57
48.00 5.81
49.00 6.07
50.00 6.32
51.00 6.57
52.00 6.83
53.00 7.09
54.00 7.35
55.00 7.61
56.00 7.88
57.00 8.14
58.00 8.41
59.00 8.68
60.00 8.95
61.00 9.23
62.00 9.50
63.00 9.78
64.00 10.06
65.00 10.35
66.00 10.63
67.00 10.92
68.00 11.21
69.00 11.51
70.00 11.80
71.00 12.10
72.00 12.40
73.00 12.71
74.00 13.01
75.00 13.32
76.00 13.62
77.00 13.93
78.00 14.24
79.00 14.55
80.00 14.87
81.00 15.18
82.00 15.50
83.00 15.82
84.00 16.14
85.00 16.48
86.00 16.82
87.00 17.16
88.00 17.52
89.00 17.89
90.00 18.28
91.00 18.68
92.00 19.10
93.00 19.55
94.00 20.01
95.00 20.51
96.00 21.03
97.00 21.59
98.00 22.18
99.00 22.81
100.00 23.48
101.00 24.19
102.00 24.94
103.00 25.72
104.00 26.55
105.00 27.40
106.00 28.28
107.00 29.15
108.00 30.01
109.00 30.81
110.00 31.54
111.00 32.15
112.00 32.64
113.00 33.00
114.00 33.26
115.00 33.44
116.00 33.58
117.00 33.72
118.00 33.87
119.00 34.06
120.00 34.31
121.00 34.61
122.00 34.97
123.00 35.37
124.00 35.81
125.00 36.24
126.00 36.63
127.00 36.92
128.00 37.06
129.00 37.02
130.00 36.80
131.00 36.41
132.00 35.92
133.00 35.37
134.00 34.80
135.00 34.25
136.00 33.74
137.00 33.28
138.00 32.87
139.00 32.53
140.00 32.25
141.00 32.03
142.00 31.88
143.00 31.80
144.00 31.78
145.00 31.84
146.00 31.96
147.00 32.17
148.00 32.44
149.00 32.80
150.00 33.25
151.00 33.79
152.00 34.43
153.00 35.18
154.00 36.02
155.00 36.96
156.00 37.98
157.00 39.03
158.00 40.00
159.00 40.75
160.00 41.11
161.00 41.06
162.00 40.66
163.00 40.09
164.00 39.49
165.00 38.96
166.00 38.56
167.00 38.29
168.00 38.20
169.00 38.27
170.00 38.55
171.00 39.04
172.00 39.77
173.00 40.80
174.00 42.21
175.00 44.14
176.00 46.83
177.00 50.64
178.00 54.19
179.00 51.47
180.00 47.27
181.00 44.19
182.00 41.96
183.00 40.28
184.00 39.02
185.00 38.06
186.00 37.37
187.00 36.90
188.00 36.64
189.00 36.57
190.00 36.71
191.00 37.05
192.00 37.63
193.00 38.44
194.00 39.56
195.00 41.03
196.00 42.89
197.00 45.01
198.00 46.49
199.00 45.81
200.00 43.54
201.00 41.15
202.00 39.10
203.00 37.43
204.00 36.07
205.00 34.97
206.00 34.09
207.00 33.40
208.00 32.87
209.00 32.49
210.00 32.26
211.00 32.16
212.00 32.20
213.00 32.38
214.00 32.70
215.00 33.18
216.00 33.84
217.00 34.69
218.00 35.78
219.00 37.18
220.00 38.93
221.00 41.11
222.00 43.52
223.00 44.94
224.00 43.71
225.00 41.14
226.00 38.68
227.00 36.64
228.00 34.97
229.00 33.59
230.00 32.43
231.00 31.46
232.00 30.65
233.00 29.97
234.00 29.39
235.00 28.91
236.00 28.52
237.00 28.20
238.00 27.96
239.00 27.78
240.00 27.66
241.00 27.59
242.00 27.56
243.00 27.58
244.00 27.62
245.00 27.70
246.00 27.78
247.00 27.87
248.00 27.95
249.00 28.00
250.00 28.01
251.00 27.96
252.00 27.84
253.00 27.64
254.00 27.37
255.00 27.02
256.00 26.62
257.00 26.17
258.00 25.69
259.00 25.19
260.00 24.68
261.00 24.17
262.00 23.66
263.00 23.17
264.00 22.69
265.00 22.23
266.00 21.78
267.00 21.35
268.00 20.94
269.00 20.54
270.00 20.16
271.00 19.79
272.00 19.44
273.00 19.09
274.00 18.76
275.00 18.43
276.00 18.11
277.00 17.80
278.00 17.49
279.00 17.19
280.00 16.89
281.00 16.59
282.00 16.30
283.00 16.00
284.00 15.71
285.00 15.43
286.00 15.14
287.00 14.86
288.00 14.58
289.00 14.31
290.00 14.03
291.00 13.77
292.00 13.50
293.00 13.24
294.00 12.99
295.00 12.73
296.00 12.48
297.00 12.23
298.00 11.99
299.00 11.75
300.00 11.52
301.00 11.29
302.00 11.06
303.00 10.83
304.00 10.60
305.00 10.37
306.00 10.14
307.00 9.91
308.00 9.68
309.00 9.44
310.00 9.20
311.00 8.96
312.00 8.71
313.00 8.46
314.00 8.21
315.00 7.95
316.00 7.69
317.00 7.42
318.00 7.15
319.00 6.88
320.00 6.60
321.00 6.32
322.00 6.05
323.00 5.77
324.00 5.49
325.00 5.21
326.00 4.94
327.00 4.67
328.00 4.40
329.00 4.14
330.00 3.88
331.00 3.63
332.00 3.39
333.00 3.15
334.00 2.93
335.00 2.71
336.00 2.50
337.00 2.30
338.00 2.11
339.00 1.94
340.00 1.77
341.00 1.61
342.00 1.47
343.00 1.33
344.00 1.20
345.00 1.09
346.00 0.98
347.00 0.88
348.00 0.79
349.00 0.71
350.00 0.63
351.00 0.56
352.00 0.50
353.00 0.44
354.00 0.38
355.00 0.33
356.00 0.28
357.00 0.24
358.00 0.20
359.00 0.16
VERTICAL 360
0.00 14.61
1.00 8.92
2.00 5.18
3.00 2.64
4.00 1.02
5.00 0.16
6.00 0.02
7.00 0.62
8.00 2.06
9.00 4.59
10.00 8.84
11.00 17.15
12.00 24.10
13.00 14.44
14.00 11.87
15.00 11.81
16.00 13.63
17.00 17.88
18.00 27.57
19.00 23.75
20.00 17.83
21.00 15.72
22.00 15.61
23.00 17.16
24.00 20.45
25.00 24.15
26.00 22.24
27.00 19.06
28.00 17.36
29.00 16.90
30.00 17.48
31.00 19.16
32.00 22.45
33.00 28.88
34.00 30.86
35.00 23.79
36.00 20.34
37.00 18.76
38.00 18.32
39.00 18.61
40.00 19.27
41.00 20.03
42.00 20.81
43.00 21.78
44.00 23.26
45.00 25.59
46.00 28.48
47.00 29.16
48.00 27.07
49.00 25.36
50.00 24.73
51.00 25.07
52.00 26.25
53.00 28.01
54.00 29.32
55.00 29.15
56.00 28.69
57.00 29.32
58.00 31.71
59.00 36.59
60.00 41.46
61.00 36.93
62.00 33.68
63.00 32.10
64.00 31.18
65.00 30.29
66.00 29.35
67.00 28.60
68.00 28.16
69.00 28.01
70.00 28.08
71.00 28.36
72.00 28.82
73.00 29.39
74.00 29.96
75.00 30.42
76.00 30.77
77.00 31.15
78.00 31.76
79.00 32.64
80.00 33.62
81.00 34.43
82.00 34.95
83.00 35.27
84.00 35.57
85.00 35.91
86.00 36.11
87.00 35.98
88.00 35.58
89.00 35.04
90.00 34.54
91.00 34.34
92.00 34.75
93.00 35.90
94.00 37.55
95.00 39.00
96.00 39.28
97.00 38.23
98.00 36.70
99.00 35.48
100.00 34.91
101.00 34.99
102.00 35.51
103.00 36.20
104.00 36.76
105.00 37.09
106.00 37.31
107.00 37.63
108.00 38.24
109.00 39.22
110.00 40.45
111.00 41.53
112.00 41.86
113.00 41.22
114.00 40.10
115.00 39.12
116.00 38.64
117.00 38.78
118.00 39.42
119.00 40.11
120.00 40.28
121.00 39.80
122.00 39.13
123.00 38.65
124.00 38.27
125.00 37.53
126.00 36.19
127.00 34.73
128.00 33.72
129.00 33.39
130.00 33.69
131.00 34.30
132.00 34.87
133.00 35.49
134.00 36.74
135.00 39.18
136.00 41.98
137.00 41.10
138.00 38.71
139.00 37.71
140.00 38.24
141.00 40.01
142.00 42.34
143.00 44.14
144.00 45.01
145.00 44.87
146.00 44.26
147.00 45.25
148.00 51.60
149.00 53.42
150.00 43.23
151.00 40.16
152.00 39.62
153.00 38.89
154.00 36.68
155.00 35.13
156.00 35.33
157.00 37.05
158.00 38.00
159.00 36.73
160.00 35.99
161.00 36.22
162.00 35.48
163.00 33.50
164.00 31.99
165.00 31.31
166.00 31.05
167.00 31.01
168.00 31.63
169.00 33.58
170.00 37.12
171.00 39.18
172.00 37.17
173.00 35.99
174.00 36.31
175.00 37.26
176.00 38.74
177.00 42.70
178.00 57.32
179.00 42.53
180.00 37.79
181.00 37.03
182.00 38.92
183.00 42.06
184.00 42.56
185.00 42.50
186.00 45.54
187.00 52.60
188.00 49.04
189.00 46.67
190.00 49.40
191.00 63.46
192.00 49.29
193.00 43.83
194.00 41.78
195.00 41.31
196.00 41.35
197.00 41.55
198.00 43.02
199.00 47.61
200.00 48.09
201.00 42.01
202.00 39.67
203.00 40.09
204.00 42.43
205.00 44.36
206.00 44.42
207.00 46.31
208.00 55.77
209.00 46.41
210.00 38.98
211.00 35.27
212.00 33.45
213.00 32.97
214.00 33.52
215.00 34.57
216.00 35.40
217.00 35.58
218.00 35.26
219.00 34.79
220.00 34.49
221.00 34.67
222.00 35.47
223.00 36.87
224.00 38.68
225.00 40.30
226.00 40.60
227.00 39.46
228.00 38.30
229.00 38.11
230.00 39.40
231.00 42.86
232.00 50.55
233.00 49.73
234.00 43.01
235.00 39.82
236.00 38.14
237.00 37.38
238.00 37.32
239.00 37.94
240.00 39.37
241.00 41.91
242.00 46.22
243.00 51.00
244.00 47.83
245.00 44.93
246.00 44.57
247.00 46.23
248.00 47.99
249.00 46.73
250.00 45.03
251.00 44.60
252.00 45.17
253.00 46.32
254.00 47.98
255.00 50.63
256.00 57.29
257.00 57.81
258.00 45.82
259.00 40.34
260.00 37.15
261.00 35.30
262.00 34.26
263.00 33.64
264.00 33.11
265.00 32.48
266.00 31.76
267.00 31.11
268.00 30.68
269.00 30.52
270.00 30.50
271.00 30.39
272.00 29.92
273.00 29.06
274.00 28.06
275.00 27.25
276.00 26.75
277.00 26.50
278.00 26.37
279.00 26.32
280.00 26.45
281.00 26.97
282.00 28.13
283.00 30.24
284.00 33.78
285.00 39.77
286.00 46.90
287.00 41.94
288.00 38.74
289.00 37.40
290.00 36.61
291.00 34.63
292.00 31.19
293.00 27.95
294.00 25.66
295.00 24.36
296.00 23.96
297.00 24.33
298.00 25.38
299.00 27.06
300.00 29.25
301.00 31.43
302.00 31.82
303.00 29.57
304.00 26.69
305.00 24.38
306.00 22.90
307.00 22.26
308.00 22.49
309.00 23.59
310.00 25.69
311.00 29.19
312.00 35.09
313.00 36.03
314.00 29.53
315.00 25.66
316.00 23.50
317.00 22.60
318.00 22.81
319.00 24.20
320.00 27.17
321.00 33.40
322.00 40.79
323.00 29.38
324.00 24.35
325.00 21.44
326.00 19.71
327.00 18.84
328.00 18.66
329.00 19.00
330.00 19.70
331.00 20.64
332.00 21.93
333.00 24.09
334.00 28.61
335.00 40.33
336.00 28.06
337.00 22.44
338.00 20.12
339.00 19.95
340.00 22.03
341.00 27.75
342.00 29.53
343.00 22.02
344.00 18.48
345.00 17.15
346.00 17.54
347.00 19.88
348.00 25.55
349.00 31.25
350.00 23.10
351.00 19.73
352.00 19.05
353.00 20.54
354.00 24.82
355.00 32.90
356.00 28.05
357.00 25.80
358.00 32.56
359.00 25.15
