NAME ATR4518R7_0806_X_CO_P45_08T
FREQUENCY 0806
GAIN 14.26 dBd
TILT	ELECTRICAL
COMMENT DATE 05.08.2013 +45 degrees polarized system Lever position 08T deg
HORIZONTAL 360
0.00 0.00
1.00 0.00
2.00 0.01
3.00 0.02
4.00 0.04
5.00 0.07
6.00 0.10
7.00 0.13
8.00 0.17
9.00 0.21
10.00 0.26
11.00 0.32
12.00 0.38
13.00 0.45
14.00 0.52
15.00 0.60
16.00 0.68
17.00 0.77
18.00 0.86
19.00 0.96
20.00 1.06
21.00 1.17
22.00 1.28
23.00 1.40
24.00 1.53
25.00 1.66
26.00 1.79
27.00 1.93
28.00 2.07
29.00 2.22
30.00 2.38
31.00 2.54
32.00 2.70
33.00 2.87
34.00 3.04
35.00 3.22
36.00 3.41
37.00 3.60
38.00 3.79
39.00 3.99
40.00 4.19
41.00 4.40
42.00 4.61
43.00 4.82
44.00 5.04
45.00 5.27
46.00 5.50
47.00 5.73
48.00 5.97
49.00 6.21
50.00 6.46
51.00 6.71
52.00 6.96
53.00 7.22
54.00 7.48
55.00 7.75
56.00 8.02
57.00 8.29
58.00 8.57
59.00 8.85
60.00 9.14
61.00 9.42
62.00 9.71
63.00 10.01
64.00 10.31
65.00 10.61
66.00 10.92
67.00 11.23
68.00 11.54
69.00 11.86
70.00 12.18
71.00 12.51
72.00 12.83
73.00 13.17
74.00 13.51
75.00 13.85
76.00 14.19
77.00 14.54
78.00 14.90
79.00 15.26
80.00 15.63
81.00 16.00
82.00 16.38
83.00 16.76
84.00 17.15
85.00 17.54
86.00 17.95
87.00 18.35
88.00 18.77
89.00 19.19
90.00 19.62
91.00 20.06
92.00 20.51
93.00 20.96
94.00 21.41
95.00 21.87
96.00 22.34
97.00 22.81
98.00 23.28
99.00 23.75
100.00 24.21
101.00 24.67
102.00 25.11
103.00 25.54
104.00 25.95
105.00 26.32
106.00 26.67
107.00 26.97
108.00 27.23
109.00 27.44
110.00 27.61
111.00 27.72
112.00 27.79
113.00 27.81
114.00 27.80
115.00 27.76
116.00 27.68
117.00 27.59
118.00 27.49
119.00 27.37
120.00 27.25
121.00 27.13
122.00 27.01
123.00 26.90
124.00 26.79
125.00 26.69
126.00 26.61
127.00 26.53
128.00 26.46
129.00 26.41
130.00 26.37
131.00 26.35
132.00 26.33
133.00 26.33
134.00 26.35
135.00 26.38
136.00 26.42
137.00 26.48
138.00 26.55
139.00 26.63
140.00 26.73
141.00 26.85
142.00 26.98
143.00 27.12
144.00 27.28
145.00 27.45
146.00 27.64
147.00 27.85
148.00 28.07
149.00 28.31
150.00 28.56
151.00 28.84
152.00 29.13
153.00 29.44
154.00 29.77
155.00 30.11
156.00 30.48
157.00 30.88
158.00 31.30
159.00 31.74
160.00 32.21
161.00 32.71
162.00 33.24
163.00 33.81
164.00 34.42
165.00 35.07
166.00 35.76
167.00 36.50
168.00 37.29
169.00 38.16
170.00 39.07
171.00 40.06
172.00 41.10
173.00 42.18
174.00 43.25
175.00 44.21
176.00 44.94
177.00 45.29
178.00 45.18
179.00 44.66
180.00 43.88
181.00 42.99
182.00 42.07
183.00 41.18
184.00 40.35
185.00 39.58
186.00 38.88
187.00 38.23
188.00 37.65
189.00 37.11
190.00 36.62
191.00 36.18
192.00 35.78
193.00 35.41
194.00 35.08
195.00 34.78
196.00 34.51
197.00 34.27
198.00 34.05
199.00 33.86
200.00 33.69
201.00 33.54
202.00 33.42
203.00 33.31
204.00 33.23
205.00 33.17
206.00 33.13
207.00 33.10
208.00 33.09
209.00 33.11
210.00 33.14
211.00 33.18
212.00 33.25
213.00 33.33
214.00 33.43
215.00 33.54
216.00 33.67
217.00 33.82
218.00 33.98
219.00 34.15
220.00 34.34
221.00 34.53
222.00 34.74
223.00 34.94
224.00 35.15
225.00 35.36
226.00 35.55
227.00 35.73
228.00 35.87
229.00 35.98
230.00 36.04
231.00 36.05
232.00 35.99
233.00 35.86
234.00 35.64
235.00 35.37
236.00 35.02
237.00 34.62
238.00 34.16
239.00 33.66
240.00 33.14
241.00 32.59
242.00 32.02
243.00 31.46
244.00 30.88
245.00 30.31
246.00 29.74
247.00 29.18
248.00 28.62
249.00 28.08
250.00 27.54
251.00 27.01
252.00 26.50
253.00 25.99
254.00 25.50
255.00 25.01
256.00 24.54
257.00 24.07
258.00 23.62
259.00 23.18
260.00 22.74
261.00 22.31
262.00 21.90
263.00 21.49
264.00 21.09
265.00 20.69
266.00 20.31
267.00 19.93
268.00 19.56
269.00 19.19
270.00 18.83
271.00 18.48
272.00 18.13
273.00 17.79
274.00 17.45
275.00 17.12
276.00 16.79
277.00 16.46
278.00 16.14
279.00 15.82
280.00 15.51
281.00 15.19
282.00 14.88
283.00 14.57
284.00 14.27
285.00 13.96
286.00 13.66
287.00 13.35
288.00 13.05
289.00 12.75
290.00 12.46
291.00 12.16
292.00 11.86
293.00 11.57
294.00 11.27
295.00 10.98
296.00 10.69
297.00 10.40
298.00 10.11
299.00 9.83
300.00 9.54
301.00 9.26
302.00 8.98
303.00 8.70
304.00 8.42
305.00 8.15
306.00 7.87
307.00 7.61
308.00 7.34
309.00 7.08
310.00 6.81
311.00 6.56
312.00 6.31
313.00 6.06
314.00 5.81
315.00 5.57
316.00 5.34
317.00 5.10
318.00 4.88
319.00 4.65
320.00 4.43
321.00 4.22
322.00 4.01
323.00 3.80
324.00 3.60
325.00 3.41
326.00 3.22
327.00 3.03
328.00 2.86
329.00 2.68
330.00 2.51
331.00 2.35
332.00 2.19
333.00 2.04
334.00 1.89
335.00 1.75
336.00 1.61
337.00 1.48
338.00 1.36
339.00 1.24
340.00 1.12
341.00 1.02
342.00 0.91
343.00 0.81
344.00 0.72
345.00 0.64
346.00 0.56
347.00 0.48
348.00 0.41
349.00 0.35
350.00 0.29
351.00 0.23
352.00 0.19
353.00 0.14
354.00 0.11
355.00 0.08
356.00 0.05
357.00 0.03
358.00 0.02
359.00 0.01
VERTICAL 360
0.00 12.73
1.00 9.17
2.00 6.46
3.00 4.37
4.00 2.77
5.00 1.57
6.00 0.72
7.00 0.21
8.00 0.00
9.00 0.10
10.00 0.51
11.00 1.24
12.00 2.31
13.00 3.77
14.00 5.66
15.00 8.12
16.00 11.32
17.00 15.71
18.00 22.56
19.00 38.38
20.00 27.07
21.00 23.06
22.00 22.14
23.00 22.97
24.00 25.48
25.00 30.18
26.00 33.32
27.00 28.12
28.00 24.42
29.00 22.42
30.00 21.53
31.00 21.51
32.00 22.25
33.00 23.76
34.00 26.14
35.00 29.58
36.00 34.11
37.00 36.52
38.00 33.99
39.00 31.58
40.00 30.22
41.00 29.68
42.00 29.81
43.00 30.59
44.00 31.92
45.00 33.13
46.00 32.53
47.00 30.19
48.00 27.78
49.00 25.92
50.00 24.65
51.00 23.90
52.00 23.59
53.00 23.67
54.00 24.11
55.00 24.92
56.00 26.11
57.00 27.69
58.00 29.71
59.00 32.18
60.00 35.06
61.00 38.04
62.00 40.06
63.00 39.99
64.00 38.46
65.00 36.50
66.00 34.52
67.00 32.78
68.00 31.50
69.00 30.76
70.00 30.59
71.00 30.95
72.00 31.75
73.00 32.93
74.00 34.39
75.00 35.91
76.00 37.09
77.00 37.64
78.00 37.77
79.00 37.93
80.00 38.17
81.00 38.03
82.00 36.98
83.00 35.17
84.00 33.15
85.00 31.26
86.00 29.62
87.00 28.30
88.00 27.31
89.00 26.70
90.00 26.47
91.00 26.63
92.00 27.16
93.00 28.02
94.00 29.14
95.00 30.42
96.00 31.79
97.00 33.17
98.00 34.56
99.00 36.03
100.00 37.68
101.00 39.64
102.00 42.08
103.00 45.31
104.00 49.65
105.00 52.65
106.00 50.74
107.00 49.46
108.00 50.17
109.00 50.46
110.00 47.28
111.00 44.14
112.00 42.53
113.00 42.36
114.00 43.50
115.00 45.90
116.00 49.57
117.00 54.44
118.00 56.96
119.00 53.37
120.00 49.79
121.00 47.02
122.00 44.52
123.00 42.12
124.00 40.02
125.00 38.41
126.00 37.38
127.00 36.90
128.00 36.95
129.00 37.52
130.00 38.61
131.00 40.24
132.00 42.37
133.00 44.29
134.00 43.81
135.00 41.11
136.00 38.36
137.00 36.24
138.00 34.73
139.00 33.77
140.00 33.27
141.00 33.19
142.00 33.50
143.00 34.20
144.00 35.25
145.00 36.56
146.00 37.64
147.00 37.61
148.00 36.30
149.00 34.57
150.00 33.08
151.00 32.07
152.00 31.57
153.00 31.59
154.00 32.13
155.00 33.16
156.00 34.58
157.00 36.12
158.00 37.26
159.00 37.66
160.00 37.65
161.00 37.85
162.00 38.73
163.00 40.69
164.00 44.37
165.00 49.90
166.00 48.29
167.00 44.42
168.00 42.58
169.00 41.92
170.00 41.95
171.00 42.45
172.00 43.44
173.00 42.72
174.00 43.06
175.00 45.38
176.00 52.69
177.00 46.66
178.00 40.06
179.00 36.68
180.00 34.81
181.00 33.92
182.00 33.80
183.00 34.35
184.00 35.59
185.00 37.64
186.00 40.88
187.00 46.74
188.00 68.39
189.00 47.12
190.00 41.27
191.00 38.01
192.00 35.88
193.00 34.42
194.00 33.46
195.00 32.92
196.00 32.75
197.00 32.90
198.00 33.29
199.00 33.73
200.00 33.99
201.00 33.91
202.00 33.59
203.00 33.26
204.00 33.13
205.00 33.31
206.00 33.85
207.00 34.74
208.00 35.99
209.00 37.68
210.00 39.93
211.00 42.63
212.00 44.54
213.00 44.48
214.00 44.01
215.00 44.43
216.00 45.82
217.00 47.58
218.00 48.87
219.00 49.59
220.00 49.94
221.00 49.63
222.00 49.32
223.00 50.35
224.00 54.45
225.00 58.28
226.00 48.93
227.00 43.48
228.00 40.06
229.00 37.78
230.00 36.29
231.00 35.41
232.00 35.01
233.00 34.94
234.00 35.07
235.00 35.26
236.00 35.35
237.00 35.24
238.00 34.98
239.00 34.74
240.00 34.73
241.00 35.07
242.00 35.84
243.00 36.98
244.00 38.28
245.00 39.53
246.00 40.86
247.00 42.93
248.00 46.77
249.00 52.05
250.00 48.68
251.00 44.82
252.00 43.22
253.00 43.07
254.00 43.89
255.00 45.51
256.00 47.29
257.00 45.92
258.00 41.99
259.00 38.74
260.00 36.54
261.00 35.16
262.00 34.39
263.00 34.17
264.00 34.58
265.00 35.84
266.00 38.23
267.00 41.08
268.00 39.66
269.00 35.82
270.00 33.12
271.00 31.68
272.00 31.27
273.00 31.78
274.00 33.07
275.00 34.99
276.00 37.09
277.00 38.37
278.00 37.80
279.00 36.20
280.00 34.79
281.00 34.04
282.00 34.04
283.00 34.71
284.00 35.87
285.00 37.26
286.00 38.46
287.00 39.08
288.00 39.11
289.00 39.02
290.00 39.31
291.00 40.21
292.00 41.73
293.00 43.56
294.00 45.20
295.00 46.14
296.00 46.12
297.00 44.90
298.00 42.56
299.00 39.79
300.00 37.28
301.00 35.41
302.00 34.37
303.00 34.31
304.00 35.53
305.00 38.78
306.00 46.30
307.00 42.36
308.00 35.38
309.00 31.60
310.00 29.24
311.00 27.60
312.00 26.29
313.00 25.06
314.00 23.86
315.00 22.77
316.00 21.95
317.00 21.52
318.00 21.59
319.00 22.26
320.00 23.67
321.00 25.95
322.00 28.86
323.00 29.91
324.00 27.50
325.00 24.90
326.00 23.15
327.00 22.21
328.00 21.93
329.00 22.24
330.00 23.09
331.00 24.45
332.00 26.39
333.00 29.09
334.00 33.04
335.00 38.77
336.00 38.66
337.00 33.86
338.00 31.24
339.00 30.42
340.00 31.26
341.00 33.87
342.00 35.05
343.00 30.29
344.00 26.08
345.00 23.41
346.00 21.94
347.00 21.52
348.00 22.15
349.00 24.11
350.00 28.29
351.00 38.75
352.00 32.28
353.00 25.85
354.00 23.12
355.00 22.40
356.00 23.60
357.00 26.77
358.00 24.31
359.00 17.61
