NAME ATR4518R7_1750_X_CO_M45_08T_yyR
FREQUENCY 1750
GAIN 14.22 dBd
TILT	ELECTRICAL
COMMENT DATE 05.08.2013 -45 degrees polarized system Lever position 08T deg
HORIZONTAL 360
0.00 0.01
1.00 0.01
2.00 0.00
3.00 0.00
4.00 0.01
5.00 0.01
6.00 0.03
7.00 0.05
8.00 0.07
9.00 0.10
10.00 0.14
11.00 0.19
12.00 0.24
13.00 0.30
14.00 0.37
15.00 0.45
16.00 0.53
17.00 0.63
18.00 0.73
19.00 0.84
20.00 0.97
21.00 1.10
22.00 1.24
23.00 1.40
24.00 1.56
25.00 1.74
26.00 1.93
27.00 2.13
28.00 2.33
29.00 2.56
30.00 2.79
31.00 3.03
32.00 3.28
33.00 3.54
34.00 3.82
35.00 4.10
36.00 4.39
37.00 4.69
38.00 5.00
39.00 5.32
40.00 5.65
41.00 5.99
42.00 6.33
43.00 6.68
44.00 7.03
45.00 7.39
46.00 7.75
47.00 8.12
48.00 8.49
49.00 8.86
50.00 9.23
51.00 9.60
52.00 9.97
53.00 10.33
54.00 10.70
55.00 11.06
56.00 11.41
57.00 11.77
58.00 12.11
59.00 12.44
60.00 12.77
61.00 13.09
62.00 13.41
63.00 13.71
64.00 14.00
65.00 14.28
66.00 14.55
67.00 14.82
68.00 15.07
69.00 15.32
70.00 15.56
71.00 15.80
72.00 16.03
73.00 16.25
74.00 16.48
75.00 16.70
76.00 16.93
77.00 17.15
78.00 17.39
79.00 17.62
80.00 17.86
81.00 18.11
82.00 18.37
83.00 18.63
84.00 18.90
85.00 19.19
86.00 19.48
87.00 19.78
88.00 20.08
89.00 20.40
90.00 20.72
91.00 21.04
92.00 21.37
93.00 21.70
94.00 22.03
95.00 22.36
96.00 22.68
97.00 22.99
98.00 23.29
99.00 23.57
100.00 23.84
101.00 24.09
102.00 24.33
103.00 24.55
104.00 24.76
105.00 24.95
106.00 25.14
107.00 25.32
108.00 25.49
109.00 25.67
110.00 25.84
111.00 26.03
112.00 26.22
113.00 26.43
114.00 26.64
115.00 26.88
116.00 27.12
117.00 27.38
118.00 27.65
119.00 27.94
120.00 28.23
121.00 28.53
122.00 28.83
123.00 29.13
124.00 29.42
125.00 29.70
126.00 29.96
127.00 30.21
128.00 30.45
129.00 30.67
130.00 30.88
131.00 31.09
132.00 31.30
133.00 31.52
134.00 31.77
135.00 32.05
136.00 32.38
137.00 32.76
138.00 33.22
139.00 33.77
140.00 34.42
141.00 35.22
142.00 36.17
143.00 37.34
144.00 38.80
145.00 40.66
146.00 43.11
147.00 46.42
148.00 50.40
149.00 50.36
150.00 46.23
151.00 42.75
152.00 40.14
153.00 38.13
154.00 36.52
155.00 35.21
156.00 34.12
157.00 33.21
158.00 32.45
159.00 31.82
160.00 31.30
161.00 30.88
162.00 30.55
163.00 30.31
164.00 30.15
165.00 30.07
166.00 30.06
167.00 30.13
168.00 30.28
169.00 30.50
170.00 30.81
171.00 31.20
172.00 31.67
173.00 32.24
174.00 32.91
175.00 33.68
176.00 34.58
177.00 35.58
178.00 36.70
179.00 37.87
180.00 39.02
181.00 39.92
182.00 40.33
183.00 40.10
184.00 39.33
185.00 38.30
186.00 37.21
187.00 36.17
188.00 35.23
189.00 34.40
190.00 33.68
191.00 33.07
192.00 32.55
193.00 32.12
194.00 31.77
195.00 31.49
196.00 31.28
197.00 31.14
198.00 31.06
199.00 31.03
200.00 31.07
201.00 31.15
202.00 31.29
203.00 31.48
204.00 31.71
205.00 31.98
206.00 32.28
207.00 32.61
208.00 32.96
209.00 33.30
210.00 33.64
211.00 33.93
212.00 34.16
213.00 34.32
214.00 34.38
215.00 34.34
216.00 34.21
217.00 34.00
218.00 33.72
219.00 33.42
220.00 33.10
221.00 32.78
222.00 32.49
223.00 32.22
224.00 32.00
225.00 31.82
226.00 31.69
227.00 31.61
228.00 31.60
229.00 31.65
230.00 31.76
231.00 31.94
232.00 32.19
233.00 32.52
234.00 32.93
235.00 33.42
236.00 33.99
237.00 34.64
238.00 35.37
239.00 36.12
240.00 36.86
241.00 37.49
242.00 37.85
243.00 37.83
244.00 37.40
245.00 36.65
246.00 35.71
247.00 34.70
248.00 33.70
249.00 32.76
250.00 31.88
251.00 31.07
252.00 30.34
253.00 29.67
254.00 29.07
255.00 28.53
256.00 28.03
257.00 27.59
258.00 27.18
259.00 26.81
260.00 26.48
261.00 26.16
262.00 25.87
263.00 25.59
264.00 25.32
265.00 25.06
266.00 24.80
267.00 24.53
268.00 24.26
269.00 23.98
270.00 23.68
271.00 23.37
272.00 23.03
273.00 22.69
274.00 22.32
275.00 21.94
276.00 21.54
277.00 21.13
278.00 20.71
279.00 20.27
280.00 19.83
281.00 19.39
282.00 18.94
283.00 18.48
284.00 18.03
285.00 17.57
286.00 17.12
287.00 16.66
288.00 16.21
289.00 15.76
290.00 15.31
291.00 14.86
292.00 14.42
293.00 13.98
294.00 13.54
295.00 13.11
296.00 12.68
297.00 12.26
298.00 11.84
299.00 11.42
300.00 11.01
301.00 10.60
302.00 10.20
303.00 9.81
304.00 9.42
305.00 9.04
306.00 8.66
307.00 8.29
308.00 7.93
309.00 7.58
310.00 7.23
311.00 6.89
312.00 6.56
313.00 6.24
314.00 5.92
315.00 5.61
316.00 5.32
317.00 5.03
318.00 4.75
319.00 4.48
320.00 4.22
321.00 3.97
322.00 3.73
323.00 3.49
324.00 3.27
325.00 3.06
326.00 2.85
327.00 2.66
328.00 2.47
329.00 2.29
330.00 2.13
331.00 1.97
332.00 1.82
333.00 1.67
334.00 1.54
335.00 1.41
336.00 1.29
337.00 1.18
338.00 1.08
339.00 0.98
340.00 0.89
341.00 0.81
342.00 0.73
343.00 0.65
344.00 0.59
345.00 0.52
346.00 0.46
347.00 0.41
348.00 0.36
349.00 0.31
350.00 0.27
351.00 0.23
352.00 0.19
353.00 0.16
354.00 0.13
355.00 0.10
356.00 0.08
357.00 0.06
358.00 0.04
359.00 0.02
VERTICAL 360
0.00 32.68
1.00 24.39
2.00 13.84
3.00 8.42
4.00 4.92
5.00 2.57
6.00 1.06
7.00 0.23
8.00 0.00
9.00 0.35
10.00 1.31
11.00 3.00
12.00 5.59
13.00 9.51
14.00 15.45
15.00 20.45
16.00 17.36
17.00 15.50
18.00 15.96
19.00 18.58
20.00 23.98
21.00 26.77
22.00 20.98
23.00 17.63
24.00 16.18
25.00 16.07
26.00 17.24
27.00 20.08
28.00 25.99
29.00 31.99
30.00 24.08
31.00 20.25
32.00 18.86
33.00 19.05
34.00 20.79
35.00 24.85
36.00 36.50
37.00 31.15
38.00 23.31
39.00 20.12
40.00 18.82
41.00 18.77
42.00 19.77
43.00 21.78
44.00 24.97
45.00 30.27
46.00 39.62
47.00 33.05
48.00 26.77
49.00 23.47
50.00 21.55
51.00 20.46
52.00 19.82
53.00 19.35
54.00 18.95
55.00 18.69
56.00 18.69
57.00 19.05
58.00 19.78
59.00 20.82
60.00 22.00
61.00 23.14
62.00 24.12
63.00 24.98
64.00 25.84
65.00 26.66
66.00 27.33
67.00 27.82
68.00 28.19
69.00 28.30
70.00 28.25
71.00 28.19
72.00 28.15
73.00 28.13
74.00 28.11
75.00 28.03
76.00 27.81
77.00 27.51
78.00 27.27
79.00 27.14
80.00 27.03
81.00 26.84
82.00 26.48
83.00 25.94
84.00 25.43
85.00 25.22
86.00 25.31
87.00 25.58
88.00 26.18
89.00 27.29
90.00 28.74
91.00 29.91
92.00 30.18
93.00 29.26
94.00 28.55
95.00 28.51
96.00 29.22
97.00 30.76
98.00 33.01
99.00 35.38
100.00 36.89
101.00 37.11
102.00 36.97
103.00 37.64
104.00 39.49
105.00 40.99
106.00 39.50
107.00 37.37
108.00 36.45
109.00 36.83
110.00 38.22
111.00 39.35
112.00 38.08
113.00 35.54
114.00 33.67
115.00 32.81
116.00 32.75
117.00 33.11
118.00 33.46
119.00 33.62
120.00 33.76
121.00 34.22
122.00 35.06
123.00 35.92
124.00 35.96
125.00 34.61
126.00 32.68
127.00 31.30
128.00 31.00
129.00 31.93
130.00 33.95
131.00 36.49
132.00 38.80
133.00 41.28
134.00 45.51
135.00 50.47
136.00 45.30
137.00 40.99
138.00 39.24
139.00 39.37
140.00 41.69
141.00 50.32
142.00 49.37
143.00 38.73
144.00 34.49
145.00 32.61
146.00 32.29
147.00 33.14
148.00 34.68
149.00 35.79
150.00 35.26
151.00 33.97
152.00 33.05
153.00 32.62
154.00 32.38
155.00 32.23
156.00 32.50
157.00 33.54
158.00 35.49
159.00 38.10
160.00 40.05
161.00 39.20
162.00 36.68
163.00 34.62
164.00 33.66
165.00 33.83
166.00 34.82
167.00 35.73
168.00 35.71
169.00 35.56
170.00 36.50
171.00 38.65
172.00 40.30
173.00 38.80
174.00 36.73
175.00 35.86
176.00 36.46
177.00 38.49
178.00 42.12
179.00 47.12
180.00 48.27
181.00 43.14
182.00 38.59
183.00 35.57
184.00 33.92
185.00 33.41
186.00 33.80
187.00 34.71
188.00 35.49
189.00 35.23
190.00 33.83
191.00 32.34
192.00 31.61
193.00 31.93
194.00 33.25
195.00 35.07
196.00 36.42
197.00 36.95
198.00 37.40
199.00 38.36
200.00 40.35
201.00 44.05
202.00 46.74
203.00 44.26
204.00 44.39
205.00 48.83
206.00 40.54
207.00 33.71
208.00 30.17
209.00 28.59
210.00 28.49
211.00 29.70
212.00 32.11
213.00 35.44
214.00 38.96
215.00 41.55
216.00 42.48
217.00 41.92
218.00 41.63
219.00 43.14
220.00 46.61
221.00 44.97
222.00 39.61
223.00 36.32
224.00 34.69
225.00 34.33
226.00 34.91
227.00 35.64
228.00 35.14
229.00 33.48
230.00 31.94
231.00 31.10
232.00 31.01
233.00 31.65
234.00 33.08
235.00 35.47
236.00 39.08
237.00 42.85
238.00 42.98
239.00 41.87
240.00 42.53
241.00 44.60
242.00 45.42
243.00 44.64
244.00 44.84
245.00 44.89
246.00 42.62
247.00 40.53
248.00 40.08
249.00 41.11
250.00 42.04
251.00 40.35
252.00 37.48
253.00 35.46
254.00 34.68
255.00 35.13
256.00 36.53
257.00 37.98
258.00 38.17
259.00 37.29
260.00 36.42
261.00 35.84
262.00 35.41
263.00 35.13
264.00 35.19
265.00 35.79
266.00 37.09
267.00 39.46
268.00 43.02
269.00 43.61
270.00 40.73
271.00 39.85
272.00 41.72
273.00 46.75
274.00 56.82
275.00 58.24
276.00 44.77
277.00 38.36
278.00 34.59
279.00 32.27
280.00 30.67
281.00 29.35
282.00 28.09
283.00 26.92
284.00 25.95
285.00 25.18
286.00 24.55
287.00 24.02
288.00 23.61
289.00 23.34
290.00 23.18
291.00 23.12
292.00 23.26
293.00 23.77
294.00 24.87
295.00 26.67
296.00 28.84
297.00 29.76
298.00 28.31
299.00 26.16
300.00 24.23
301.00 22.52
302.00 20.98
303.00 19.70
304.00 18.85
305.00 18.59
306.00 19.05
307.00 20.37
308.00 22.80
309.00 26.90
310.00 32.45
311.00 29.22
312.00 23.83
313.00 20.58
314.00 18.64
315.00 17.62
316.00 17.36
317.00 17.85
318.00 19.24
319.00 21.99
320.00 27.66
321.00 39.23
322.00 27.23
323.00 22.00
324.00 19.54
325.00 18.50
326.00 18.45
327.00 19.32
328.00 21.16
329.00 24.12
330.00 28.07
331.00 31.60
332.00 33.48
333.00 34.43
334.00 30.29
335.00 24.82
336.00 20.99
337.00 18.47
338.00 16.89
339.00 16.05
340.00 15.86
341.00 16.34
342.00 17.52
343.00 19.30
344.00 21.03
345.00 21.51
346.00 21.06
347.00 21.36
348.00 23.87
349.00 34.39
350.00 30.47
351.00 21.24
352.00 17.75
353.00 16.65
354.00 17.47
355.00 20.61
356.00 28.31
357.00 30.80
358.00 23.64
359.00 22.97
