NAME ATR4518R7_2535_X_CO_M45_05T_yL
FREQUENCY 2535
GAIN 15.71 dBd
TILT	ELECTRICAL
COMMENT DATE 05.08.2013 -45 degrees polarized system Lever position 05T deg
HORIZONTAL 360
0.00 0.05
1.00 0.09
2.00 0.14
3.00 0.20
4.00 0.27
5.00 0.35
6.00 0.44
7.00 0.54
8.00 0.64
9.00 0.76
10.00 0.87
11.00 1.00
12.00 1.12
13.00 1.25
14.00 1.38
15.00 1.51
16.00 1.64
17.00 1.77
18.00 1.90
19.00 2.03
20.00 2.16
21.00 2.30
22.00 2.43
23.00 2.57
24.00 2.72
25.00 2.87
26.00 3.02
27.00 3.18
28.00 3.35
29.00 3.52
30.00 3.70
31.00 3.89
32.00 4.09
33.00 4.30
34.00 4.51
35.00 4.74
36.00 4.97
37.00 5.21
38.00 5.46
39.00 5.71
40.00 5.98
41.00 6.25
42.00 6.53
43.00 6.81
44.00 7.09
45.00 7.39
46.00 7.68
47.00 7.98
48.00 8.28
49.00 8.58
50.00 8.89
51.00 9.19
52.00 9.49
53.00 9.80
54.00 10.10
55.00 10.40
56.00 10.70
57.00 11.00
58.00 11.30
59.00 11.60
60.00 11.90
61.00 12.21
62.00 12.51
63.00 12.82
64.00 13.14
65.00 13.46
66.00 13.78
67.00 14.12
68.00 14.46
69.00 14.81
70.00 15.17
71.00 15.54
72.00 15.91
73.00 16.29
74.00 16.67
75.00 17.05
76.00 17.43
77.00 17.80
78.00 18.17
79.00 18.52
80.00 18.86
81.00 19.19
82.00 19.50
83.00 19.80
84.00 20.10
85.00 20.39
86.00 20.68
87.00 20.97
88.00 21.28
89.00 21.60
90.00 21.95
91.00 22.32
92.00 22.72
93.00 23.15
94.00 23.61
95.00 24.11
96.00 24.64
97.00 25.21
98.00 25.80
99.00 26.42
100.00 27.07
101.00 27.73
102.00 28.40
103.00 29.09
104.00 29.78
105.00 30.50
106.00 31.22
107.00 31.98
108.00 32.77
109.00 33.62
110.00 34.54
111.00 35.55
112.00 36.65
113.00 37.84
114.00 39.06
115.00 40.18
116.00 40.96
117.00 41.13
118.00 40.66
119.00 39.78
120.00 38.75
121.00 37.75
122.00 36.86
123.00 36.12
124.00 35.53
125.00 35.09
126.00 34.80
127.00 34.65
128.00 34.64
129.00 34.77
130.00 35.05
131.00 35.48
132.00 36.07
133.00 36.82
134.00 37.75
135.00 38.85
136.00 40.10
137.00 41.39
138.00 42.46
139.00 42.90
140.00 42.54
141.00 41.54
142.00 40.33
143.00 39.16
144.00 38.12
145.00 37.25
146.00 36.54
147.00 36.00
148.00 35.59
149.00 35.33
150.00 35.18
151.00 35.16
152.00 35.24
153.00 35.44
154.00 35.74
155.00 36.15
156.00 36.67
157.00 37.30
158.00 38.03
159.00 38.89
160.00 39.86
161.00 40.95
162.00 42.16
163.00 43.50
164.00 44.97
165.00 46.53
166.00 48.15
167.00 49.75
168.00 51.22
169.00 52.33
170.00 52.96
171.00 52.98
172.00 52.46
173.00 51.56
174.00 50.42
175.00 49.20
176.00 48.01
177.00 46.90
178.00 45.93
179.00 45.12
180.00 44.48
181.00 44.03
182.00 43.79
183.00 43.78
184.00 44.02
185.00 44.56
186.00 45.48
187.00 46.87
188.00 48.93
189.00 51.95
190.00 55.40
191.00 54.36
192.00 50.09
193.00 46.62
194.00 44.03
195.00 42.07
196.00 40.56
197.00 39.42
198.00 38.57
199.00 37.99
200.00 37.66
201.00 37.57
202.00 37.74
203.00 38.19
204.00 38.97
205.00 40.16
206.00 41.93
207.00 44.60
208.00 48.94
209.00 56.01
210.00 51.37
211.00 45.38
212.00 41.70
213.00 39.15
214.00 37.29
215.00 35.88
216.00 34.82
217.00 34.04
218.00 33.51
219.00 33.20
220.00 33.11
221.00 33.22
222.00 33.55
223.00 34.12
224.00 34.95
225.00 36.09
226.00 37.58
227.00 39.50
228.00 41.75
229.00 43.61
230.00 43.39
231.00 41.29
232.00 38.94
233.00 36.95
234.00 35.37
235.00 34.13
236.00 33.18
237.00 32.45
238.00 31.93
239.00 31.58
240.00 31.38
241.00 31.32
242.00 31.38
243.00 31.54
244.00 31.76
245.00 32.00
246.00 32.22
247.00 32.34
248.00 32.30
249.00 32.05
250.00 31.60
251.00 30.98
252.00 30.26
253.00 29.48
254.00 28.71
255.00 27.97
256.00 27.27
257.00 26.63
258.00 26.06
259.00 25.55
260.00 25.11
261.00 24.72
262.00 24.40
263.00 24.13
264.00 23.92
265.00 23.74
266.00 23.61
267.00 23.51
268.00 23.43
269.00 23.37
270.00 23.30
271.00 23.22
272.00 23.12
273.00 22.99
274.00 22.81
275.00 22.58
276.00 22.31
277.00 22.00
278.00 21.65
279.00 21.28
280.00 20.89
281.00 20.48
282.00 20.08
283.00 19.68
284.00 19.28
285.00 18.89
286.00 18.51
287.00 18.14
288.00 17.77
289.00 17.40
290.00 17.03
291.00 16.67
292.00 16.29
293.00 15.91
294.00 15.53
295.00 15.13
296.00 14.73
297.00 14.32
298.00 13.90
299.00 13.48
300.00 13.05
301.00 12.63
302.00 12.21
303.00 11.79
304.00 11.37
305.00 10.96
306.00 10.55
307.00 10.15
308.00 9.76
309.00 9.36
310.00 8.98
311.00 8.59
312.00 8.21
313.00 7.83
314.00 7.45
315.00 7.07
316.00 6.70
317.00 6.32
318.00 5.95
319.00 5.58
320.00 5.21
321.00 4.85
322.00 4.50
323.00 4.15
324.00 3.82
325.00 3.50
326.00 3.19
327.00 2.90
328.00 2.62
329.00 2.35
330.00 2.11
331.00 1.88
332.00 1.67
333.00 1.48
334.00 1.31
335.00 1.15
336.00 1.01
337.00 0.89
338.00 0.78
339.00 0.69
340.00 0.60
341.00 0.53
342.00 0.47
343.00 0.41
344.00 0.36
345.00 0.32
346.00 0.27
347.00 0.24
348.00 0.20
349.00 0.16
350.00 0.13
351.00 0.10
352.00 0.07
353.00 0.05
354.00 0.03
355.00 0.01
356.00 0.00
357.00 0.00
358.00 0.01
359.00 0.03
VERTICAL 360
0.00 14.70
1.00 9.52
2.00 5.37
3.00 2.43
4.00 0.65
5.00 0.00
6.00 0.53
7.00 2.48
8.00 6.51
9.00 15.50
10.00 20.38
11.00 11.87
12.00 10.65
13.00 12.87
14.00 18.36
15.00 17.25
16.00 13.14
17.00 12.23
18.00 14.11
19.00 19.83
20.00 39.97
21.00 20.99
22.00 17.80
23.00 18.69
24.00 24.42
25.00 31.43
26.00 20.47
27.00 17.76
28.00 18.88
29.00 25.25
30.00 30.51
31.00 19.79
32.00 16.35
33.00 15.24
34.00 15.55
35.00 17.33
36.00 21.31
37.00 30.21
38.00 33.74
39.00 27.16
40.00 26.32
41.00 27.72
42.00 30.18
43.00 32.27
44.00 31.42
45.00 29.20
46.00 28.05
47.00 28.47
48.00 30.55
49.00 34.23
50.00 37.63
51.00 37.26
52.00 36.01
53.00 35.57
54.00 35.73
55.00 36.03
56.00 35.58
57.00 33.93
58.00 32.14
59.00 31.18
60.00 31.23
61.00 31.91
62.00 32.32
63.00 31.90
64.00 31.54
65.00 32.48
66.00 35.29
67.00 39.45
68.00 40.48
69.00 37.34
70.00 35.41
71.00 35.97
72.00 38.48
73.00 39.85
74.00 37.79
75.00 34.64
76.00 33.32
77.00 34.99
78.00 40.11
79.00 45.45
80.00 42.02
81.00 36.28
82.00 34.00
83.00 35.61
84.00 42.04
85.00 57.53
86.00 42.70
87.00 35.84
88.00 33.26
89.00 33.95
90.00 36.75
91.00 38.04
92.00 36.59
93.00 34.87
94.00 34.32
95.00 35.55
96.00 37.95
97.00 39.49
98.00 38.83
99.00 37.69
100.00 37.78
101.00 39.44
102.00 42.44
103.00 45.64
104.00 47.69
105.00 52.49
106.00 49.23
107.00 45.21
108.00 46.69
109.00 46.92
110.00 43.69
111.00 43.54
112.00 44.39
113.00 45.32
114.00 46.34
115.00 42.55
116.00 40.38
117.00 41.06
118.00 42.54
119.00 42.20
120.00 40.91
121.00 41.47
122.00 48.14
123.00 42.59
124.00 35.44
125.00 32.82
126.00 32.52
127.00 33.74
128.00 35.98
129.00 38.03
130.00 37.84
131.00 36.54
132.00 35.97
133.00 36.65
134.00 38.68
135.00 41.19
136.00 42.07
137.00 42.20
138.00 42.78
139.00 42.73
140.00 40.55
141.00 36.73
142.00 33.77
143.00 32.43
144.00 32.45
145.00 33.34
146.00 35.13
147.00 38.44
148.00 40.48
149.00 37.57
150.00 36.10
151.00 37.17
152.00 40.21
153.00 40.50
154.00 37.43
155.00 36.77
156.00 40.32
157.00 47.88
158.00 39.64
159.00 37.28
160.00 38.75
161.00 42.33
162.00 45.04
163.00 45.49
164.00 47.68
165.00 47.12
166.00 40.37
167.00 38.65
168.00 42.01
169.00 43.64
170.00 37.22
171.00 34.08
172.00 32.95
173.00 33.85
174.00 38.61
175.00 46.90
176.00 40.65
177.00 38.94
178.00 37.27
179.00 35.84
180.00 36.42
181.00 38.70
182.00 42.34
183.00 46.71
184.00 41.90
185.00 38.02
186.00 36.52
187.00 36.06
188.00 36.13
189.00 36.24
190.00 35.33
191.00 34.15
192.00 34.10
193.00 35.48
194.00 37.20
195.00 37.11
196.00 35.49
197.00 34.18
198.00 34.21
199.00 35.68
200.00 36.73
201.00 35.97
202.00 35.88
203.00 37.89
204.00 43.07
205.00 55.53
206.00 46.54
207.00 42.83
208.00 42.28
209.00 41.27
210.00 38.74
211.00 36.78
212.00 35.80
213.00 35.45
214.00 35.89
215.00 37.68
216.00 41.27
217.00 45.84
218.00 47.28
219.00 46.23
220.00 42.99
221.00 38.45
222.00 35.09
223.00 33.23
224.00 32.38
225.00 31.84
226.00 31.31
227.00 31.22
228.00 31.91
229.00 32.90
230.00 33.57
231.00 34.41
232.00 35.71
233.00 36.17
234.00 35.47
235.00 34.61
236.00 33.37
237.00 31.34
238.00 29.12
239.00 27.51
240.00 26.88
241.00 27.27
242.00 28.54
243.00 30.57
244.00 33.36
245.00 37.14
246.00 42.46
247.00 46.43
248.00 43.43
249.00 42.06
250.00 43.45
251.00 46.49
252.00 48.85
253.00 51.98
254.00 49.74
255.00 44.97
256.00 44.41
257.00 46.55
258.00 42.64
259.00 37.82
260.00 34.91
261.00 32.86
262.00 31.36
263.00 30.68
264.00 31.05
265.00 32.37
266.00 34.59
267.00 38.32
268.00 45.82
269.00 52.86
270.00 40.49
271.00 35.11
272.00 32.51
273.00 31.70
274.00 31.53
275.00 31.70
276.00 33.49
277.00 37.98
278.00 38.92
279.00 36.09
280.00 35.96
281.00 37.57
282.00 39.83
283.00 39.65
284.00 35.57
285.00 32.79
286.00 31.79
287.00 31.81
288.00 32.03
289.00 31.95
290.00 31.51
291.00 30.81
292.00 29.96
293.00 29.12
294.00 28.41
295.00 27.53
296.00 25.61
297.00 22.75
298.00 19.96
299.00 17.71
300.00 16.04
301.00 14.88
302.00 14.22
303.00 14.07
304.00 14.48
305.00 15.59
306.00 17.60
307.00 20.70
308.00 23.93
309.00 23.27
310.00 20.54
311.00 18.75
312.00 18.29
313.00 19.36
314.00 22.43
315.00 26.22
316.00 23.18
317.00 19.65
318.00 18.06
319.00 17.99
320.00 19.45
321.00 23.16
322.00 32.89
323.00 31.86
324.00 24.65
325.00 23.06
326.00 24.88
327.00 33.12
328.00 31.88
329.00 22.75
330.00 19.37
331.00 18.49
332.00 19.87
333.00 24.79
334.00 30.79
335.00 22.46
336.00 19.50
337.00 19.91
338.00 23.42
339.00 28.02
340.00 24.09
341.00 21.27
342.00 21.45
343.00 25.33
344.00 32.91
345.00 23.71
346.00 19.72
347.00 18.98
348.00 20.78
349.00 25.98
350.00 40.07
351.00 30.13
352.00 28.51
353.00 35.14
354.00 30.95
355.00 23.43
356.00 20.66
357.00 20.07
358.00 20.40
359.00 19.27
