NAME ATR4518R7_2350_X_CO_M45_03T_yyR
FREQUENCY 2350
GAIN 15.36 dBd
TILT	ELECTRICAL
COMMENT DATE 05.08.2013 -45 degrees polarized system Lever position 03T deg
HORIZONTAL 360
0.00 0.00
1.00 0.00
2.00 0.00
3.00 0.02
4.00 0.04
5.00 0.07
6.00 0.11
7.00 0.15
8.00 0.21
9.00 0.27
10.00 0.34
11.00 0.41
12.00 0.48
13.00 0.57
14.00 0.66
15.00 0.75
16.00 0.85
17.00 0.95
18.00 1.05
19.00 1.16
20.00 1.27
21.00 1.39
22.00 1.52
23.00 1.65
24.00 1.79
25.00 1.93
26.00 2.09
27.00 2.25
28.00 2.42
29.00 2.61
30.00 2.80
31.00 3.01
32.00 3.23
33.00 3.46
34.00 3.71
35.00 3.97
36.00 4.25
37.00 4.54
38.00 4.84
39.00 5.16
40.00 5.50
41.00 5.84
42.00 6.21
43.00 6.58
44.00 6.97
45.00 7.37
46.00 7.78
47.00 8.20
48.00 8.63
49.00 9.07
50.00 9.51
51.00 9.96
52.00 10.42
53.00 10.88
54.00 11.34
55.00 11.80
56.00 12.27
57.00 12.74
58.00 13.21
59.00 13.69
60.00 14.17
61.00 14.65
62.00 15.15
63.00 15.64
64.00 16.15
65.00 16.67
66.00 17.19
67.00 17.73
68.00 18.28
69.00 18.85
70.00 19.42
71.00 20.01
72.00 20.60
73.00 21.20
74.00 21.80
75.00 22.39
76.00 22.98
77.00 23.54
78.00 24.09
79.00 24.59
80.00 25.06
81.00 25.49
82.00 25.87
83.00 26.21
84.00 26.50
85.00 26.76
86.00 27.00
87.00 27.21
88.00 27.41
89.00 27.61
90.00 27.81
91.00 28.01
92.00 28.22
93.00 28.43
94.00 28.63
95.00 28.83
96.00 29.00
97.00 29.15
98.00 29.26
99.00 29.31
100.00 29.32
101.00 29.28
102.00 29.19
103.00 29.07
104.00 28.92
105.00 28.76
106.00 28.60
107.00 28.46
108.00 28.34
109.00 28.26
110.00 28.22
111.00 28.23
112.00 28.30
113.00 28.42
114.00 28.61
115.00 28.86
116.00 29.18
117.00 29.57
118.00 30.04
119.00 30.58
120.00 31.20
121.00 31.90
122.00 32.69
123.00 33.55
124.00 34.50
125.00 35.50
126.00 36.57
127.00 37.67
128.00 38.77
129.00 39.84
130.00 40.85
131.00 41.78
132.00 42.61
133.00 43.36
134.00 44.03
135.00 44.61
136.00 45.03
137.00 45.16
138.00 44.87
139.00 44.12
140.00 43.03
141.00 41.77
142.00 40.49
143.00 39.27
144.00 38.16
145.00 37.18
146.00 36.32
147.00 35.60
148.00 35.00
149.00 34.52
150.00 34.16
151.00 33.92
152.00 33.80
153.00 33.80
154.00 33.92
155.00 34.17
156.00 34.55
157.00 35.09
158.00 35.79
159.00 36.69
160.00 37.80
161.00 39.19
162.00 40.90
163.00 42.93
164.00 45.02
165.00 46.24
166.00 45.44
167.00 43.42
168.00 41.35
169.00 39.56
170.00 38.10
171.00 36.92
172.00 35.96
173.00 35.20
174.00 34.59
175.00 34.13
176.00 33.80
177.00 33.59
178.00 33.48
179.00 33.47
180.00 33.56
181.00 33.73
182.00 33.99
183.00 34.33
184.00 34.75
185.00 35.23
186.00 35.76
187.00 36.33
188.00 36.92
189.00 37.49
190.00 38.00
191.00 38.41
192.00 38.70
193.00 38.85
194.00 38.86
195.00 38.78
196.00 38.63
197.00 38.45
198.00 38.29
199.00 38.16
200.00 38.09
201.00 38.08
202.00 38.16
203.00 38.31
204.00 38.54
205.00 38.87
206.00 39.28
207.00 39.76
208.00 40.33
209.00 40.96
210.00 41.62
211.00 42.29
212.00 42.92
213.00 43.43
214.00 43.78
215.00 43.94
216.00 43.91
217.00 43.74
218.00 43.49
219.00 43.22
220.00 42.98
221.00 42.81
222.00 42.76
223.00 42.80
224.00 42.99
225.00 43.33
226.00 43.86
227.00 44.61
228.00 45.65
229.00 47.04
230.00 48.92
231.00 51.41
232.00 54.23
233.00 54.68
234.00 51.52
235.00 48.07
236.00 45.25
237.00 42.95
238.00 41.04
239.00 39.42
240.00 38.02
241.00 36.78
242.00 35.70
243.00 34.73
244.00 33.87
245.00 33.10
246.00 32.40
247.00 31.79
248.00 31.24
249.00 30.75
250.00 30.31
251.00 29.93
252.00 29.59
253.00 29.29
254.00 29.03
255.00 28.79
256.00 28.58
257.00 28.38
258.00 28.18
259.00 27.98
260.00 27.76
261.00 27.52
262.00 27.24
263.00 26.92
264.00 26.56
265.00 26.16
266.00 25.71
267.00 25.24
268.00 24.74
269.00 24.21
270.00 23.68
271.00 23.14
272.00 22.60
273.00 22.07
274.00 21.55
275.00 21.04
276.00 20.54
277.00 20.05
278.00 19.59
279.00 19.13
280.00 18.69
281.00 18.26
282.00 17.84
283.00 17.44
284.00 17.04
285.00 16.65
286.00 16.27
287.00 15.89
288.00 15.51
289.00 15.14
290.00 14.77
291.00 14.39
292.00 14.02
293.00 13.64
294.00 13.27
295.00 12.89
296.00 12.51
297.00 12.13
298.00 11.74
299.00 11.36
300.00 10.97
301.00 10.58
302.00 10.20
303.00 9.81
304.00 9.43
305.00 9.05
306.00 8.67
307.00 8.30
308.00 7.93
309.00 7.57
310.00 7.22
311.00 6.87
312.00 6.54
313.00 6.21
314.00 5.89
315.00 5.58
316.00 5.29
317.00 5.00
318.00 4.72
319.00 4.46
320.00 4.21
321.00 3.97
322.00 3.74
323.00 3.52
324.00 3.32
325.00 3.12
326.00 2.94
327.00 2.77
328.00 2.61
329.00 2.45
330.00 2.31
331.00 2.18
332.00 2.05
333.00 1.93
334.00 1.82
335.00 1.72
336.00 1.62
337.00 1.52
338.00 1.43
339.00 1.34
340.00 1.25
341.00 1.16
342.00 1.08
343.00 0.99
344.00 0.91
345.00 0.83
346.00 0.75
347.00 0.67
348.00 0.59
349.00 0.51
350.00 0.44
351.00 0.37
352.00 0.31
353.00 0.25
354.00 0.19
355.00 0.14
356.00 0.10
357.00 0.06
358.00 0.04
359.00 0.01
VERTICAL 360
0.00 4.75
1.00 2.11
2.00 0.55
3.00 0.00
4.00 0.49
5.00 2.18
6.00 5.54
7.00 12.33
8.00 25.55
9.00 13.66
10.00 10.24
11.00 10.58
12.00 14.14
13.00 22.82
14.00 20.44
15.00 14.81
16.00 13.35
17.00 14.10
18.00 16.40
19.00 19.25
20.00 20.77
21.00 21.27
22.00 22.61
23.00 25.86
24.00 28.53
25.00 22.78
26.00 18.10
27.00 16.12
28.00 16.23
29.00 18.11
30.00 21.20
31.00 23.78
32.00 24.20
33.00 23.45
34.00 22.54
35.00 21.73
36.00 20.96
37.00 20.22
38.00 19.95
39.00 20.84
40.00 23.63
41.00 29.42
42.00 35.13
43.00 30.64
44.00 27.89
45.00 27.17
46.00 27.75
47.00 29.76
48.00 33.37
49.00 34.07
50.00 29.78
51.00 26.73
52.00 25.46
53.00 25.71
54.00 27.49
55.00 31.06
56.00 37.44
57.00 42.99
58.00 37.03
59.00 32.87
60.00 30.65
61.00 29.79
62.00 30.06
63.00 31.33
64.00 33.76
65.00 37.57
66.00 41.72
67.00 41.78
68.00 38.84
69.00 36.57
70.00 35.10
71.00 34.07
72.00 33.60
73.00 33.42
74.00 32.82
75.00 31.80
76.00 30.78
77.00 29.94
78.00 29.37
79.00 28.99
80.00 28.74
81.00 28.61
82.00 28.66
83.00 29.08
84.00 29.56
85.00 29.37
86.00 28.84
87.00 28.41
88.00 28.12
89.00 28.68
90.00 30.86
91.00 33.38
92.00 33.42
93.00 32.99
94.00 32.78
95.00 32.20
96.00 32.35
97.00 33.56
98.00 34.80
99.00 35.31
100.00 35.28
101.00 35.30
102.00 36.15
103.00 37.61
104.00 38.53
105.00 39.17
106.00 40.69
107.00 43.44
108.00 47.10
109.00 49.45
110.00 48.15
111.00 46.82
112.00 47.64
113.00 51.09
114.00 54.86
115.00 51.68
116.00 47.34
117.00 45.65
118.00 47.73
119.00 56.17
120.00 49.09
121.00 42.94
122.00 40.66
123.00 39.94
124.00 40.17
125.00 41.79
126.00 46.18
127.00 54.82
128.00 51.40
129.00 46.50
130.00 42.70
131.00 39.64
132.00 38.16
133.00 38.24
134.00 39.45
135.00 40.94
136.00 41.39
137.00 41.13
138.00 42.15
139.00 46.58
140.00 47.05
141.00 39.97
142.00 36.95
143.00 36.71
144.00 38.01
145.00 38.89
146.00 38.88
147.00 40.10
148.00 45.19
149.00 57.77
150.00 43.89
151.00 40.00
152.00 39.98
153.00 42.67
154.00 47.19
155.00 46.86
156.00 43.54
157.00 41.87
158.00 39.94
159.00 37.98
160.00 37.77
161.00 39.88
162.00 43.58
163.00 45.73
164.00 45.44
165.00 45.02
166.00 45.18
167.00 44.73
168.00 43.30
169.00 41.43
170.00 39.04
171.00 37.71
172.00 38.89
173.00 42.51
174.00 40.83
175.00 36.35
176.00 34.26
177.00 33.73
178.00 33.95
179.00 34.37
180.00 34.77
181.00 35.35
182.00 36.77
183.00 39.55
184.00 42.48
185.00 43.67
186.00 45.15
187.00 46.52
188.00 46.23
189.00 44.97
190.00 41.06
191.00 37.54
192.00 36.03
193.00 36.34
194.00 37.86
195.00 39.30
196.00 39.18
197.00 38.07
198.00 38.11
199.00 41.42
200.00 46.24
201.00 39.70
202.00 35.53
203.00 33.80
204.00 32.87
205.00 31.93
206.00 31.11
207.00 31.34
208.00 33.63
209.00 38.15
210.00 38.40
211.00 34.78
212.00 33.01
213.00 32.80
214.00 33.60
215.00 34.46
216.00 34.92
217.00 36.11
218.00 39.04
219.00 43.73
220.00 46.92
221.00 43.97
222.00 41.37
223.00 41.55
224.00 44.93
225.00 51.89
226.00 48.66
227.00 43.12
228.00 40.45
229.00 39.01
230.00 38.05
231.00 37.57
232.00 37.97
233.00 39.70
234.00 42.69
235.00 44.62
236.00 43.53
237.00 42.40
238.00 41.74
239.00 39.96
240.00 37.37
241.00 35.65
242.00 35.56
243.00 37.53
244.00 41.77
245.00 45.14
246.00 43.77
247.00 42.53
248.00 41.75
249.00 40.78
250.00 39.99
251.00 39.95
252.00 39.51
253.00 36.80
254.00 34.28
255.00 33.58
256.00 34.58
257.00 36.32
258.00 36.93
259.00 35.78
260.00 34.32
261.00 33.14
262.00 31.94
263.00 30.72
264.00 29.73
265.00 28.78
266.00 27.60
267.00 26.20
268.00 24.83
269.00 23.72
270.00 23.11
271.00 23.00
272.00 23.12
273.00 23.10
274.00 22.77
275.00 22.28
276.00 21.93
277.00 21.86
278.00 22.06
279.00 22.36
280.00 22.58
281.00 22.63
282.00 22.55
283.00 22.38
284.00 22.17
285.00 21.96
286.00 21.77
287.00 21.60
288.00 21.40
289.00 21.22
290.00 21.26
291.00 21.73
292.00 22.74
293.00 24.33
294.00 26.60
295.00 30.16
296.00 37.41
297.00 46.04
298.00 34.18
299.00 30.12
300.00 27.84
301.00 25.94
302.00 24.48
303.00 23.84
304.00 24.04
305.00 24.76
306.00 25.63
307.00 26.80
308.00 28.43
309.00 28.50
310.00 26.34
311.00 25.01
312.00 25.63
313.00 27.75
314.00 28.66
315.00 27.13
316.00 25.61
317.00 24.39
318.00 23.49
319.00 23.84
320.00 26.80
321.00 38.37
322.00 33.33
323.00 25.03
324.00 21.80
325.00 20.39
326.00 20.09
327.00 20.28
328.00 20.30
329.00 20.05
330.00 19.93
331.00 20.11
332.00 20.48
333.00 20.94
334.00 21.42
335.00 21.60
336.00 21.27
337.00 21.19
338.00 22.56
339.00 26.91
340.00 32.48
341.00 26.55
342.00 23.10
343.00 23.11
344.00 26.37
345.00 32.69
346.00 30.30
347.00 26.54
348.00 25.78
349.00 25.83
350.00 24.95
351.00 24.09
352.00 25.03
353.00 28.13
354.00 28.47
355.00 26.60
356.00 30.47
357.00 25.10
358.00 14.63
359.00 8.69
