NAME ATR4518R7_2655_X_CO_M45_03T_yL
FREQUENCY 2655
GAIN 16.13 dBd
TILT	ELECTRICAL
COMMENT DATE 05.08.2013 -45 degrees polarized system Lever position 03T deg
HORIZONTAL 360
0.00 0.04
1.00 0.09
2.00 0.16
3.00 0.24
4.00 0.33
5.00 0.42
6.00 0.52
7.00 0.62
8.00 0.72
9.00 0.82
10.00 0.91
11.00 0.99
12.00 1.07
13.00 1.14
14.00 1.22
15.00 1.29
16.00 1.36
17.00 1.44
18.00 1.53
19.00 1.62
20.00 1.73
21.00 1.85
22.00 1.99
23.00 2.14
24.00 2.31
25.00 2.49
26.00 2.68
27.00 2.89
28.00 3.10
29.00 3.33
30.00 3.57
31.00 3.80
32.00 4.04
33.00 4.28
34.00 4.52
35.00 4.75
36.00 4.98
37.00 5.20
38.00 5.42
39.00 5.63
40.00 5.83
41.00 6.02
42.00 6.21
43.00 6.40
44.00 6.58
45.00 6.76
46.00 6.94
47.00 7.12
48.00 7.31
49.00 7.50
50.00 7.69
51.00 7.89
52.00 8.10
53.00 8.31
54.00 8.53
55.00 8.76
56.00 8.99
57.00 9.23
58.00 9.49
59.00 9.74
60.00 10.01
61.00 10.28
62.00 10.56
63.00 10.85
64.00 11.15
65.00 11.46
66.00 11.77
67.00 12.10
68.00 12.44
69.00 12.80
70.00 13.17
71.00 13.55
72.00 13.95
73.00 14.37
74.00 14.81
75.00 15.28
76.00 15.78
77.00 16.31
78.00 16.87
79.00 17.48
80.00 18.13
81.00 18.84
82.00 19.60
83.00 20.43
84.00 21.34
85.00 22.34
86.00 23.44
87.00 24.66
88.00 26.03
89.00 27.56
90.00 29.29
91.00 31.27
92.00 33.50
93.00 35.90
94.00 38.03
95.00 38.92
96.00 38.20
97.00 36.76
98.00 35.33
99.00 34.12
100.00 33.14
101.00 32.34
102.00 31.68
103.00 31.12
104.00 30.62
105.00 30.16
106.00 29.73
107.00 29.32
108.00 28.93
109.00 28.56
110.00 28.21
111.00 27.90
112.00 27.64
113.00 27.43
114.00 27.29
115.00 27.22
116.00 27.22
117.00 27.31
118.00 27.48
119.00 27.73
120.00 28.06
121.00 28.47
122.00 28.94
123.00 29.48
124.00 30.05
125.00 30.63
126.00 31.20
127.00 31.74
128.00 32.22
129.00 32.65
130.00 33.05
131.00 33.45
132.00 33.89
133.00 34.42
134.00 35.08
135.00 35.92
136.00 36.96
137.00 38.17
138.00 39.43
139.00 40.36
140.00 40.41
141.00 39.46
142.00 37.98
143.00 36.46
144.00 35.10
145.00 33.98
146.00 33.08
147.00 32.40
148.00 31.92
149.00 31.61
150.00 31.47
151.00 31.47
152.00 31.62
153.00 31.88
154.00 32.25
155.00 32.68
156.00 33.16
157.00 33.63
158.00 34.06
159.00 34.41
160.00 34.68
161.00 34.85
162.00 34.97
163.00 35.07
164.00 35.19
165.00 35.34
166.00 35.53
167.00 35.76
168.00 35.97
169.00 36.11
170.00 36.13
171.00 35.99
172.00 35.69
173.00 35.26
174.00 34.76
175.00 34.26
176.00 33.81
177.00 33.46
178.00 33.21
179.00 33.09
180.00 33.12
181.00 33.30
182.00 33.64
183.00 34.15
184.00 34.86
185.00 35.77
186.00 36.94
187.00 38.38
188.00 40.16
189.00 42.31
190.00 44.74
191.00 46.85
192.00 47.29
193.00 45.96
194.00 44.22
195.00 42.76
196.00 41.67
197.00 40.96
198.00 40.56
199.00 40.46
200.00 40.64
201.00 41.09
202.00 41.83
203.00 42.87
204.00 44.15
205.00 45.50
206.00 46.37
207.00 46.04
208.00 44.58
209.00 42.74
210.00 41.00
211.00 39.51
212.00 38.27
213.00 37.27
214.00 36.50
215.00 35.93
216.00 35.55
217.00 35.35
218.00 35.32
219.00 35.47
220.00 35.80
221.00 36.31
222.00 37.02
223.00 37.92
224.00 39.03
225.00 40.31
226.00 41.67
227.00 42.89
228.00 43.63
229.00 43.63
230.00 43.04
231.00 42.24
232.00 41.48
233.00 40.90
234.00 40.53
235.00 40.39
236.00 40.43
237.00 40.57
238.00 40.71
239.00 40.66
240.00 40.24
241.00 39.41
242.00 38.25
243.00 36.94
244.00 35.63
245.00 34.40
246.00 33.29
247.00 32.30
248.00 31.44
249.00 30.71
250.00 30.10
251.00 29.60
252.00 29.20
253.00 28.90
254.00 28.71
255.00 28.60
256.00 28.58
257.00 28.66
258.00 28.83
259.00 29.09
260.00 29.43
261.00 29.88
262.00 30.41
263.00 31.03
264.00 31.70
265.00 32.38
266.00 32.98
267.00 33.35
268.00 33.36
269.00 32.95
270.00 32.17
271.00 31.18
272.00 30.11
273.00 29.04
274.00 28.03
275.00 27.10
276.00 26.26
277.00 25.50
278.00 24.81
279.00 24.21
280.00 23.67
281.00 23.18
282.00 22.74
283.00 22.33
284.00 21.95
285.00 21.58
286.00 21.22
287.00 20.85
288.00 20.46
289.00 20.06
290.00 19.64
291.00 19.20
292.00 18.74
293.00 18.27
294.00 17.79
295.00 17.30
296.00 16.82
297.00 16.34
298.00 15.87
299.00 15.41
300.00 14.96
301.00 14.51
302.00 14.07
303.00 13.64
304.00 13.20
305.00 12.76
306.00 12.31
307.00 11.86
308.00 11.39
309.00 10.91
310.00 10.42
311.00 9.93
312.00 9.42
313.00 8.91
314.00 8.41
315.00 7.90
316.00 7.41
317.00 6.94
318.00 6.48
319.00 6.04
320.00 5.62
321.00 5.22
322.00 4.85
323.00 4.50
324.00 4.18
325.00 3.88
326.00 3.60
327.00 3.35
328.00 3.13
329.00 2.92
330.00 2.74
331.00 2.57
332.00 2.43
333.00 2.29
334.00 2.18
335.00 2.07
336.00 1.98
337.00 1.89
338.00 1.81
339.00 1.73
340.00 1.65
341.00 1.56
342.00 1.47
343.00 1.38
344.00 1.28
345.00 1.17
346.00 1.05
347.00 0.93
348.00 0.80
349.00 0.67
350.00 0.55
351.00 0.43
352.00 0.32
353.00 0.23
354.00 0.14
355.00 0.08
356.00 0.03
357.00 0.00
358.00 0.00
359.00 0.01
VERTICAL 360
0.00 7.18
1.00 3.18
2.00 0.89
3.00 0.00
4.00 0.47
5.00 2.49
6.00 6.78
7.00 16.71
8.00 17.60
9.00 11.22
10.00 10.79
11.00 14.06
12.00 21.99
13.00 19.34
14.00 15.78
15.00 16.57
16.00 21.43
17.00 22.37
18.00 17.26
19.00 16.02
20.00 18.49
21.00 27.58
22.00 21.97
23.00 16.23
24.00 14.86
25.00 16.45
26.00 21.72
27.00 26.66
28.00 20.68
29.00 18.85
30.00 20.36
31.00 25.88
32.00 31.58
33.00 23.65
34.00 20.78
35.00 20.84
36.00 23.64
37.00 31.39
38.00 31.88
39.00 25.09
40.00 23.54
41.00 25.34
42.00 32.17
43.00 38.57
44.00 27.92
45.00 25.16
46.00 25.20
47.00 27.10
48.00 29.91
49.00 31.33
50.00 30.45
51.00 29.15
52.00 28.77
53.00 30.54
54.00 37.61
55.00 40.12
56.00 30.57
57.00 27.05
58.00 24.79
59.00 23.13
60.00 22.50
61.00 22.83
62.00 22.98
63.00 22.07
64.00 21.01
65.00 20.62
66.00 20.90
67.00 21.43
68.00 21.81
69.00 22.14
70.00 22.80
71.00 23.98
72.00 25.54
73.00 26.98
74.00 27.70
75.00 28.01
76.00 28.58
77.00 29.42
78.00 30.75
79.00 33.69
80.00 39.12
81.00 44.13
82.00 42.29
83.00 40.06
84.00 39.71
85.00 34.62
86.00 30.33
87.00 29.53
88.00 31.99
89.00 36.48
90.00 37.10
91.00 33.27
92.00 29.87
93.00 29.16
94.00 31.74
95.00 38.93
96.00 41.90
97.00 37.13
98.00 36.65
99.00 38.82
100.00 40.78
101.00 41.40
102.00 44.26
103.00 45.24
104.00 44.40
105.00 41.53
106.00 37.73
107.00 36.63
108.00 37.21
109.00 38.24
110.00 39.14
111.00 37.25
112.00 35.23
113.00 35.35
114.00 37.17
115.00 39.14
116.00 39.17
117.00 39.46
118.00 42.03
119.00 38.89
120.00 35.39
121.00 35.94
122.00 39.80
123.00 38.33
124.00 36.33
125.00 39.34
126.00 49.20
127.00 42.98
128.00 44.65
129.00 46.95
130.00 40.36
131.00 42.31
132.00 48.33
133.00 39.02
134.00 37.75
135.00 40.62
136.00 41.65
137.00 40.90
138.00 43.03
139.00 46.01
140.00 47.49
141.00 59.00
142.00 45.70
143.00 39.42
144.00 38.77
145.00 42.58
146.00 41.88
147.00 35.81
148.00 33.48
149.00 33.36
150.00 31.51
151.00 29.00
152.00 29.12
153.00 31.91
154.00 33.62
155.00 35.67
156.00 47.34
157.00 35.40
158.00 33.47
159.00 38.28
160.00 38.29
161.00 35.64
162.00 35.73
163.00 34.21
164.00 36.02
165.00 50.08
166.00 40.57
167.00 41.32
168.00 45.44
169.00 35.14
170.00 32.42
171.00 30.95
172.00 30.30
173.00 32.93
174.00 40.24
175.00 34.23
176.00 31.72
177.00 33.21
178.00 36.75
179.00 44.66
180.00 42.35
181.00 33.74
182.00 32.14
183.00 34.16
184.00 37.64
185.00 38.23
186.00 34.10
187.00 31.33
188.00 31.98
189.00 35.93
190.00 38.30
191.00 37.96
192.00 39.73
193.00 40.09
194.00 34.87
195.00 30.98
196.00 30.52
197.00 34.05
198.00 41.00
199.00 38.08
200.00 36.94
201.00 36.79
202.00 34.42
203.00 31.98
204.00 31.16
205.00 32.01
206.00 33.31
207.00 34.76
208.00 37.69
209.00 39.12
210.00 40.03
211.00 47.50
212.00 40.60
213.00 35.71
214.00 33.58
215.00 31.90
216.00 31.35
217.00 32.59
218.00 35.77
219.00 41.91
220.00 52.82
221.00 42.82
222.00 40.28
223.00 41.53
224.00 44.75
225.00 47.85
226.00 49.69
227.00 48.31
228.00 50.29
229.00 61.88
230.00 51.88
231.00 48.40
232.00 40.89
233.00 36.40
234.00 34.54
235.00 33.24
236.00 31.73
237.00 31.00
238.00 31.49
239.00 32.86
240.00 34.28
241.00 35.38
242.00 36.51
243.00 36.68
244.00 35.32
245.00 33.66
246.00 32.45
247.00 32.52
248.00 34.43
249.00 38.03
250.00 42.30
251.00 47.06
252.00 55.82
253.00 48.71
254.00 38.72
255.00 34.98
256.00 34.90
257.00 38.17
258.00 44.66
259.00 44.21
260.00 38.57
261.00 35.67
262.00 35.75
263.00 39.28
264.00 47.10
265.00 43.62
266.00 37.37
267.00 33.14
268.00 30.76
269.00 30.12
270.00 31.14
271.00 33.94
272.00 38.12
273.00 39.46
274.00 39.05
275.00 41.42
276.00 48.06
277.00 62.63
278.00 57.58
279.00 47.02
280.00 41.96
281.00 39.75
282.00 38.79
283.00 37.98
284.00 37.18
285.00 36.05
286.00 34.67
287.00 33.92
288.00 33.72
289.00 33.20
290.00 32.79
291.00 33.52
292.00 35.98
293.00 39.81
294.00 37.40
295.00 31.05
296.00 25.96
297.00 22.06
298.00 19.16
299.00 17.06
300.00 15.54
301.00 14.45
302.00 13.78
303.00 13.59
304.00 14.01
305.00 15.08
306.00 16.95
307.00 20.05
308.00 25.93
309.00 52.82
310.00 26.43
311.00 21.58
312.00 19.75
313.00 19.64
314.00 21.18
315.00 25.11
316.00 33.35
317.00 29.20
318.00 24.46
319.00 23.50
320.00 25.61
321.00 29.75
322.00 25.00
323.00 20.75
324.00 19.53
325.00 21.00
326.00 26.49
327.00 37.58
328.00 22.55
329.00 17.66
330.00 15.75
331.00 15.97
332.00 18.05
333.00 20.38
334.00 19.50
335.00 17.60
336.00 16.51
337.00 15.96
338.00 15.65
339.00 15.86
340.00 17.35
341.00 21.57
342.00 34.22
343.00 24.20
344.00 19.58
345.00 19.50
346.00 23.82
347.00 26.52
348.00 18.85
349.00 15.93
350.00 16.13
351.00 19.28
352.00 24.02
353.00 21.11
354.00 18.47
355.00 18.38
356.00 19.78
357.00 22.47
358.00 22.96
359.00 13.59
