NAME ATR4518R7_1950_X_CO_P45_01T_yL
FREQUENCY 1950
GAIN 15.34 dBd
TILT	ELECTRICAL
COMMENT DATE 05.08.2013 +45 degrees polarized system Lever position 01T deg
HORIZONTAL 360
0.00 0.13
1.00 0.09
2.00 0.07
3.00 0.04
4.00 0.02
5.00 0.01
6.00 0.00
7.00 0.00
8.00 0.01
9.00 0.02
10.00 0.04
11.00 0.07
12.00 0.10
13.00 0.15
14.00 0.20
15.00 0.26
16.00 0.33
17.00 0.40
18.00 0.48
19.00 0.57
20.00 0.67
21.00 0.78
22.00 0.89
23.00 1.00
24.00 1.13
25.00 1.25
26.00 1.39
27.00 1.53
28.00 1.67
29.00 1.83
30.00 1.98
31.00 2.14
32.00 2.31
33.00 2.48
34.00 2.66
35.00 2.84
36.00 3.03
37.00 3.22
38.00 3.42
39.00 3.62
40.00 3.82
41.00 4.03
42.00 4.24
43.00 4.46
44.00 4.67
45.00 4.89
46.00 5.11
47.00 5.33
48.00 5.56
49.00 5.78
50.00 6.00
51.00 6.22
52.00 6.45
53.00 6.67
54.00 6.89
55.00 7.12
56.00 7.34
57.00 7.57
58.00 7.80
59.00 8.03
60.00 8.26
61.00 8.49
62.00 8.73
63.00 8.97
64.00 9.21
65.00 9.46
66.00 9.72
67.00 9.98
68.00 10.25
69.00 10.52
70.00 10.80
71.00 11.08
72.00 11.38
73.00 11.67
74.00 11.97
75.00 12.28
76.00 12.59
77.00 12.91
78.00 13.23
79.00 13.55
80.00 13.87
81.00 14.20
82.00 14.52
83.00 14.85
84.00 15.18
85.00 15.50
86.00 15.83
87.00 16.16
88.00 16.49
89.00 16.83
90.00 17.17
91.00 17.51
92.00 17.86
93.00 18.21
94.00 18.58
95.00 18.95
96.00 19.32
97.00 19.71
98.00 20.11
99.00 20.51
100.00 20.92
101.00 21.33
102.00 21.75
103.00 22.16
104.00 22.57
105.00 22.98
106.00 23.37
107.00 23.74
108.00 24.10
109.00 24.45
110.00 24.78
111.00 25.10
112.00 25.41
113.00 25.72
114.00 26.04
115.00 26.37
116.00 26.72
117.00 27.10
118.00 27.51
119.00 27.97
120.00 28.47
121.00 29.03
122.00 29.65
123.00 30.33
124.00 31.07
125.00 31.88
126.00 32.74
127.00 33.64
128.00 34.58
129.00 35.52
130.00 36.42
131.00 37.25
132.00 37.97
133.00 38.55
134.00 38.99
135.00 39.33
136.00 39.60
137.00 39.84
138.00 40.08
139.00 40.36
140.00 40.67
141.00 41.03
142.00 41.39
143.00 41.73
144.00 42.02
145.00 42.21
146.00 42.29
147.00 42.24
148.00 42.09
149.00 41.87
150.00 41.61
151.00 41.34
152.00 41.06
153.00 40.78
154.00 40.48
155.00 40.13
156.00 39.73
157.00 39.24
158.00 38.68
159.00 38.05
160.00 37.38
161.00 36.69
162.00 36.01
163.00 35.37
164.00 34.78
165.00 34.25
166.00 33.80
167.00 33.43
168.00 33.14
169.00 32.94
170.00 32.83
171.00 32.81
172.00 32.87
173.00 33.01
174.00 33.23
175.00 33.50
176.00 33.81
177.00 34.15
178.00 34.46
179.00 34.70
180.00 34.85
181.00 34.86
182.00 34.73
183.00 34.49
184.00 34.17
185.00 33.81
186.00 33.45
187.00 33.14
188.00 32.89
189.00 32.72
190.00 32.65
191.00 32.69
192.00 32.84
193.00 33.12
194.00 33.53
195.00 34.09
196.00 34.82
197.00 35.72
198.00 36.82
199.00 38.11
200.00 39.52
201.00 40.87
202.00 41.71
203.00 41.59
204.00 40.62
205.00 39.28
206.00 37.93
207.00 36.74
208.00 35.75
209.00 34.95
210.00 34.33
211.00 33.88
212.00 33.59
213.00 33.45
214.00 33.45
215.00 33.60
216.00 33.90
217.00 34.36
218.00 35.00
219.00 35.82
220.00 36.88
221.00 38.20
222.00 39.83
223.00 41.83
224.00 44.02
225.00 45.62
226.00 45.18
227.00 43.14
228.00 40.90
229.00 38.95
230.00 37.33
231.00 36.00
232.00 34.89
233.00 33.98
234.00 33.23
235.00 32.60
236.00 32.09
237.00 31.68
238.00 31.37
239.00 31.13
240.00 30.97
241.00 30.88
242.00 30.85
243.00 30.87
244.00 30.95
245.00 31.06
246.00 31.21
247.00 31.36
248.00 31.51
249.00 31.63
250.00 31.70
251.00 31.67
252.00 31.54
253.00 31.28
254.00 30.91
255.00 30.44
256.00 29.88
257.00 29.28
258.00 28.64
259.00 28.01
260.00 27.37
261.00 26.77
262.00 26.18
263.00 25.63
264.00 25.11
265.00 24.63
266.00 24.17
267.00 23.75
268.00 23.35
269.00 22.98
270.00 22.63
271.00 22.29
272.00 21.98
273.00 21.67
274.00 21.37
275.00 21.08
276.00 20.78
277.00 20.48
278.00 20.18
279.00 19.88
280.00 19.56
281.00 19.24
282.00 18.90
283.00 18.56
284.00 18.21
285.00 17.86
286.00 17.50
287.00 17.14
288.00 16.77
289.00 16.41
290.00 16.05
291.00 15.68
292.00 15.32
293.00 14.97
294.00 14.62
295.00 14.28
296.00 13.95
297.00 13.61
298.00 13.28
299.00 12.96
300.00 12.64
301.00 12.32
302.00 12.00
303.00 11.68
304.00 11.36
305.00 11.04
306.00 10.72
307.00 10.39
308.00 10.06
309.00 9.73
310.00 9.39
311.00 9.05
312.00 8.71
313.00 8.37
314.00 8.03
315.00 7.69
316.00 7.35
317.00 7.02
318.00 6.68
319.00 6.36
320.00 6.04
321.00 5.72
322.00 5.42
323.00 5.12
324.00 4.83
325.00 4.55
326.00 4.28
327.00 4.02
328.00 3.77
329.00 3.53
330.00 3.30
331.00 3.08
332.00 2.87
333.00 2.67
334.00 2.48
335.00 2.30
336.00 2.13
337.00 1.97
338.00 1.82
339.00 1.68
340.00 1.55
341.00 1.42
342.00 1.30
343.00 1.20
344.00 1.09
345.00 1.00
346.00 0.91
347.00 0.83
348.00 0.76
349.00 0.69
350.00 0.62
351.00 0.55
352.00 0.50
353.00 0.44
354.00 0.39
355.00 0.34
356.00 0.29
357.00 0.24
358.00 0.20
359.00 0.16
VERTICAL 360
0.00 0.50
1.00 0.00
2.00 0.22
3.00 1.19
4.00 3.03
5.00 6.02
6.00 10.92
7.00 20.87
8.00 24.37
9.00 16.78
10.00 15.62
11.00 17.51
12.00 22.65
13.00 23.54
14.00 17.63
15.00 14.58
16.00 13.53
17.00 14.03
18.00 16.08
19.00 20.02
20.00 24.70
21.00 22.32
22.00 19.09
23.00 17.87
24.00 18.42
25.00 20.98
26.00 26.90
27.00 31.46
28.00 23.87
29.00 20.49
30.00 19.17
31.00 18.83
32.00 18.82
33.00 18.68
34.00 18.28
35.00 17.72
36.00 17.15
37.00 16.67
38.00 16.26
39.00 15.88
40.00 15.58
41.00 15.47
42.00 15.69
43.00 16.35
44.00 17.54
45.00 19.39
46.00 22.14
47.00 26.34
48.00 33.65
49.00 50.32
50.00 34.86
51.00 30.88
52.00 28.96
53.00 27.71
54.00 26.78
55.00 26.25
56.00 26.42
57.00 27.64
58.00 30.45
59.00 36.11
60.00 44.54
61.00 36.33
62.00 32.14
63.00 30.12
64.00 29.13
65.00 28.73
66.00 28.71
67.00 28.94
68.00 29.35
69.00 29.85
70.00 30.38
71.00 30.95
72.00 31.62
73.00 32.35
74.00 33.01
75.00 33.50
76.00 33.84
77.00 34.27
78.00 35.07
79.00 36.27
80.00 37.61
81.00 38.74
82.00 39.93
83.00 41.98
84.00 45.92
85.00 53.51
86.00 56.82
87.00 47.83
88.00 42.29
89.00 39.04
90.00 37.79
91.00 38.32
92.00 40.46
93.00 44.16
94.00 50.63
95.00 56.10
96.00 48.50
97.00 46.06
98.00 45.34
99.00 43.46
100.00 41.60
101.00 41.37
102.00 42.80
103.00 44.98
104.00 46.65
105.00 47.05
106.00 45.35
107.00 43.42
108.00 42.76
109.00 43.21
110.00 44.05
111.00 44.81
112.00 45.18
113.00 44.68
114.00 43.91
115.00 43.81
116.00 44.69
117.00 46.71
118.00 47.89
119.00 44.05
120.00 40.29
121.00 38.47
122.00 38.45
123.00 40.07
124.00 42.54
125.00 43.29
126.00 42.44
127.00 42.56
128.00 43.17
129.00 41.75
130.00 39.57
131.00 38.81
132.00 39.73
133.00 41.10
134.00 40.37
135.00 38.66
136.00 37.85
137.00 37.87
138.00 37.92
139.00 37.22
140.00 35.94
141.00 34.67
142.00 33.82
143.00 33.62
144.00 34.22
145.00 35.72
146.00 38.09
147.00 40.81
148.00 42.69
149.00 43.13
150.00 43.25
151.00 44.98
152.00 52.49
153.00 50.53
154.00 42.13
155.00 39.67
156.00 40.47
157.00 43.56
158.00 43.37
159.00 40.73
160.00 40.16
161.00 40.76
162.00 40.38
163.00 39.77
164.00 40.79
165.00 43.08
166.00 42.41
167.00 40.18
168.00 39.65
169.00 40.69
170.00 41.96
171.00 42.48
172.00 43.52
173.00 45.46
174.00 43.06
175.00 38.43
176.00 35.32
177.00 33.67
178.00 33.12
179.00 33.29
180.00 33.76
181.00 34.29
182.00 35.01
183.00 36.06
184.00 37.21
185.00 38.03
186.00 38.23
187.00 37.74
188.00 37.06
189.00 37.00
190.00 37.49
191.00 37.52
192.00 37.04
193.00 37.47
194.00 39.74
195.00 43.73
196.00 45.96
197.00 46.76
198.00 52.63
199.00 51.92
200.00 44.28
201.00 42.11
202.00 42.68
203.00 44.01
204.00 43.66
205.00 43.44
206.00 44.62
207.00 43.01
208.00 39.06
209.00 36.74
210.00 36.11
211.00 36.22
212.00 35.66
213.00 34.52
214.00 33.92
215.00 34.14
216.00 34.49
217.00 34.36
218.00 34.32
219.00 35.21
220.00 37.01
221.00 38.23
222.00 37.67
223.00 36.92
224.00 36.97
225.00 37.73
226.00 38.65
227.00 39.07
228.00 38.90
229.00 38.68
230.00 38.89
231.00 39.51
232.00 39.69
233.00 38.63
234.00 37.24
235.00 36.59
236.00 37.01
237.00 38.63
238.00 41.66
239.00 46.59
240.00 53.74
241.00 54.73
242.00 52.30
243.00 51.91
244.00 52.89
245.00 52.82
246.00 49.28
247.00 45.97
248.00 44.06
249.00 42.99
250.00 41.83
251.00 40.02
252.00 38.02
253.00 36.45
254.00 35.62
255.00 35.56
256.00 36.18
257.00 37.28
258.00 38.55
259.00 39.67
260.00 40.33
261.00 40.46
262.00 40.17
263.00 39.75
264.00 39.57
265.00 39.98
266.00 41.08
267.00 42.62
268.00 43.70
269.00 43.15
270.00 40.95
271.00 38.22
272.00 35.97
273.00 34.64
274.00 34.29
275.00 34.73
276.00 35.40
277.00 35.38
278.00 34.41
279.00 33.04
280.00 31.71
281.00 30.51
282.00 29.53
283.00 28.90
284.00 28.76
285.00 29.19
286.00 30.24
287.00 31.97
288.00 34.41
289.00 36.76
290.00 36.40
291.00 34.32
292.00 32.96
293.00 32.72
294.00 33.41
295.00 34.13
296.00 33.16
297.00 30.59
298.00 28.07
299.00 26.24
300.00 25.16
301.00 24.69
302.00 24.70
303.00 25.24
304.00 26.57
305.00 29.25
306.00 34.62
307.00 56.31
308.00 36.40
309.00 30.42
310.00 27.16
311.00 24.94
312.00 23.38
313.00 22.43
314.00 22.08
315.00 22.14
316.00 22.25
317.00 22.15
318.00 21.86
319.00 21.39
320.00 20.61
321.00 19.43
322.00 17.98
323.00 16.60
324.00 15.54
325.00 15.00
326.00 15.07
327.00 15.82
328.00 17.37
329.00 20.04
330.00 24.70
331.00 31.84
332.00 26.03
333.00 21.05
334.00 18.63
335.00 17.86
336.00 18.57
337.00 21.10
338.00 27.13
339.00 35.63
340.00 24.43
341.00 20.51
342.00 19.43
343.00 20.56
344.00 24.76
345.00 32.84
346.00 24.08
347.00 19.44
348.00 17.83
349.00 18.33
350.00 21.08
351.00 27.38
352.00 46.52
353.00 38.03
354.00 28.44
355.00 18.00
356.00 11.43
357.00 6.96
358.00 3.84
359.00 1.75
