NAME ATR4518R7_1880_X_CO_M45_02T_yyR
FREQUENCY 1880
GAIN 14.83 dBd
TILT	ELECTRICAL
COMMENT DATE 05.08.2013 -45 degrees polarized system Lever position 02T deg
HORIZONTAL 360
0.00 0.12
1.00 0.10
2.00 0.07
3.00 0.05
4.00 0.03
5.00 0.02
6.00 0.01
7.00 0.00
8.00 0.00
9.00 0.00
10.00 0.01
11.00 0.02
12.00 0.04
13.00 0.07
14.00 0.10
15.00 0.14
16.00 0.19
17.00 0.25
18.00 0.31
19.00 0.39
20.00 0.47
21.00 0.56
22.00 0.66
23.00 0.78
24.00 0.90
25.00 1.03
26.00 1.17
27.00 1.33
28.00 1.49
29.00 1.66
30.00 1.85
31.00 2.04
32.00 2.25
33.00 2.46
34.00 2.68
35.00 2.92
36.00 3.16
37.00 3.41
38.00 3.67
39.00 3.94
40.00 4.22
41.00 4.51
42.00 4.80
43.00 5.10
44.00 5.41
45.00 5.73
46.00 6.06
47.00 6.39
48.00 6.73
49.00 7.07
50.00 7.42
51.00 7.78
52.00 8.14
53.00 8.50
54.00 8.87
55.00 9.24
56.00 9.62
57.00 9.99
58.00 10.37
59.00 10.75
60.00 11.12
61.00 11.50
62.00 11.87
63.00 12.24
64.00 12.61
65.00 12.98
66.00 13.34
67.00 13.70
68.00 14.06
69.00 14.41
70.00 14.76
71.00 15.11
72.00 15.47
73.00 15.82
74.00 16.17
75.00 16.54
76.00 16.90
77.00 17.28
78.00 17.66
79.00 18.05
80.00 18.46
81.00 18.87
82.00 19.30
83.00 19.75
84.00 20.21
85.00 20.68
86.00 21.17
87.00 21.67
88.00 22.19
89.00 22.72
90.00 23.25
91.00 23.79
92.00 24.34
93.00 24.88
94.00 25.42
95.00 25.95
96.00 26.46
97.00 26.95
98.00 27.42
99.00 27.85
100.00 28.25
101.00 28.61
102.00 28.93
103.00 29.21
104.00 29.45
105.00 29.63
106.00 29.77
107.00 29.85
108.00 29.89
109.00 29.87
110.00 29.81
111.00 29.71
112.00 29.57
113.00 29.40
114.00 29.21
115.00 29.01
116.00 28.81
117.00 28.61
118.00 28.43
119.00 28.27
120.00 28.14
121.00 28.04
122.00 27.98
123.00 27.96
124.00 27.99
125.00 28.07
126.00 28.21
127.00 28.40
128.00 28.66
129.00 28.99
130.00 29.40
131.00 29.88
132.00 30.47
133.00 31.15
134.00 31.95
135.00 32.89
136.00 34.00
137.00 35.31
138.00 36.88
139.00 38.81
140.00 41.27
141.00 44.57
142.00 49.35
143.00 54.63
144.00 50.68
145.00 46.10
146.00 43.11
147.00 41.05
148.00 39.55
149.00 38.44
150.00 37.61
151.00 37.01
152.00 36.59
153.00 36.32
154.00 36.19
155.00 36.18
156.00 36.27
157.00 36.44
158.00 36.70
159.00 37.00
160.00 37.33
161.00 37.65
162.00 37.93
163.00 38.13
164.00 38.22
165.00 38.18
166.00 38.02
167.00 37.77
168.00 37.46
169.00 37.12
170.00 36.79
171.00 36.49
172.00 36.25
173.00 36.06
174.00 35.94
175.00 35.90
176.00 35.95
177.00 36.07
178.00 36.29
179.00 36.61
180.00 37.02
181.00 37.54
182.00 38.18
183.00 38.95
184.00 39.86
185.00 40.94
186.00 42.21
187.00 43.71
188.00 45.48
189.00 47.55
190.00 49.87
191.00 52.00
192.00 52.87
193.00 51.97
194.00 50.33
195.00 48.79
196.00 47.55
197.00 46.61
198.00 45.96
199.00 45.56
200.00 45.38
201.00 45.43
202.00 45.68
203.00 46.17
204.00 46.87
205.00 47.87
206.00 49.14
207.00 50.68
208.00 52.34
209.00 53.33
210.00 52.71
211.00 50.80
212.00 48.59
213.00 46.55
214.00 44.80
215.00 43.27
216.00 41.95
217.00 40.80
218.00 39.80
219.00 38.92
220.00 38.13
221.00 37.44
222.00 36.82
223.00 36.27
224.00 35.78
225.00 35.35
226.00 34.96
227.00 34.62
228.00 34.32
229.00 34.07
230.00 33.85
231.00 33.66
232.00 33.51
233.00 33.39
234.00 33.31
235.00 33.25
236.00 33.22
237.00 33.22
238.00 33.24
239.00 33.27
240.00 33.32
241.00 33.38
242.00 33.43
243.00 33.47
244.00 33.49
245.00 33.47
246.00 33.41
247.00 33.28
248.00 33.08
249.00 32.82
250.00 32.48
251.00 32.09
252.00 31.64
253.00 31.15
254.00 30.64
255.00 30.10
256.00 29.55
257.00 29.01
258.00 28.47
259.00 27.94
260.00 27.43
261.00 26.93
262.00 26.45
263.00 25.98
264.00 25.53
265.00 25.09
266.00 24.67
267.00 24.26
268.00 23.86
269.00 23.47
270.00 23.08
271.00 22.71
272.00 22.33
273.00 21.96
274.00 21.58
275.00 21.21
276.00 20.83
277.00 20.46
278.00 20.08
279.00 19.69
280.00 19.31
281.00 18.92
282.00 18.53
283.00 18.14
284.00 17.74
285.00 17.35
286.00 16.95
287.00 16.56
288.00 16.16
289.00 15.77
290.00 15.38
291.00 14.99
292.00 14.60
293.00 14.22
294.00 13.84
295.00 13.46
296.00 13.08
297.00 12.71
298.00 12.35
299.00 11.98
300.00 11.62
301.00 11.26
302.00 10.91
303.00 10.56
304.00 10.21
305.00 9.86
306.00 9.52
307.00 9.18
308.00 8.85
309.00 8.52
310.00 8.19
311.00 7.87
312.00 7.56
313.00 7.24
314.00 6.94
315.00 6.63
316.00 6.33
317.00 6.04
318.00 5.76
319.00 5.48
320.00 5.21
321.00 4.94
322.00 4.68
323.00 4.43
324.00 4.18
325.00 3.95
326.00 3.72
327.00 3.50
328.00 3.28
329.00 3.08
330.00 2.88
331.00 2.69
332.00 2.52
333.00 2.34
334.00 2.18
335.00 2.02
336.00 1.88
337.00 1.74
338.00 1.61
339.00 1.48
340.00 1.37
341.00 1.26
342.00 1.15
343.00 1.06
344.00 0.97
345.00 0.88
346.00 0.80
347.00 0.73
348.00 0.66
349.00 0.60
350.00 0.54
351.00 0.48
352.00 0.43
353.00 0.38
354.00 0.34
355.00 0.30
356.00 0.26
357.00 0.22
358.00 0.18
359.00 0.15
VERTICAL 360
0.00 1.82
1.00 0.53
2.00 0.00
3.00 0.19
4.00 1.15
5.00 3.00
6.00 6.06
7.00 11.29
8.00 25.45
9.00 21.02
10.00 14.12
11.00 12.65
12.00 13.71
13.00 17.57
14.00 30.52
15.00 24.41
16.00 16.81
17.00 14.18
18.00 13.69
19.00 14.96
20.00 18.49
21.00 26.81
22.00 26.66
23.00 19.41
24.00 16.87
25.00 16.59
26.00 18.15
27.00 21.96
28.00 28.47
29.00 25.91
30.00 20.43
31.00 17.82
32.00 16.93
33.00 17.38
34.00 19.16
35.00 22.54
36.00 28.51
37.00 39.02
38.00 35.07
39.00 30.24
40.00 27.66
41.00 25.36
42.00 23.33
43.00 21.81
44.00 20.77
45.00 20.05
46.00 19.53
47.00 19.25
48.00 19.36
49.00 20.07
50.00 21.64
51.00 24.44
52.00 29.31
53.00 35.36
54.00 31.41
55.00 26.88
56.00 24.63
57.00 23.72
58.00 23.78
59.00 24.63
60.00 26.15
61.00 28.18
62.00 30.24
63.00 31.36
64.00 31.07
65.00 30.13
66.00 29.37
67.00 29.11
68.00 29.37
69.00 30.09
70.00 31.08
71.00 31.98
72.00 32.38
73.00 32.38
74.00 32.46
75.00 32.71
76.00 32.50
77.00 31.24
78.00 29.29
79.00 27.40
80.00 26.05
81.00 25.38
82.00 25.31
83.00 25.63
84.00 26.01
85.00 26.19
86.00 26.19
87.00 26.27
88.00 26.78
89.00 28.09
90.00 30.42
91.00 33.06
92.00 33.09
93.00 30.92
94.00 29.39
95.00 29.05
96.00 29.78
97.00 31.46
98.00 34.07
99.00 37.62
100.00 41.70
101.00 44.58
102.00 44.79
103.00 42.78
104.00 40.27
105.00 38.61
106.00 37.93
107.00 37.77
108.00 37.51
109.00 36.82
110.00 35.95
111.00 35.35
112.00 35.31
113.00 35.75
114.00 36.23
115.00 36.26
116.00 35.82
117.00 35.40
118.00 35.57
119.00 36.66
120.00 38.56
121.00 40.16
122.00 40.45
123.00 40.67
124.00 42.08
125.00 44.86
126.00 47.82
127.00 47.64
128.00 44.10
129.00 40.30
130.00 37.46
131.00 35.58
132.00 34.41
133.00 33.73
134.00 33.44
135.00 33.57
136.00 34.09
137.00 34.89
138.00 35.69
139.00 36.18
140.00 36.41
141.00 36.81
142.00 37.50
143.00 38.08
144.00 38.23
145.00 38.51
146.00 39.78
147.00 42.92
148.00 49.39
149.00 51.22
150.00 44.80
151.00 41.51
152.00 39.90
153.00 39.52
154.00 40.59
155.00 43.69
156.00 50.03
157.00 65.15
158.00 65.71
159.00 63.96
160.00 56.85
161.00 48.25
162.00 42.12
163.00 38.34
164.00 36.59
165.00 36.49
166.00 37.29
167.00 37.49
168.00 36.71
169.00 36.08
170.00 35.84
171.00 35.75
172.00 35.59
173.00 35.44
174.00 35.71
175.00 36.85
176.00 39.05
177.00 42.08
178.00 45.48
179.00 51.85
180.00 65.40
181.00 51.68
182.00 47.68
183.00 45.57
184.00 43.87
185.00 43.49
186.00 44.34
187.00 45.35
188.00 44.11
189.00 42.84
190.00 43.49
191.00 45.80
192.00 47.35
193.00 47.46
194.00 49.42
195.00 53.00
196.00 51.54
197.00 50.66
198.00 52.27
199.00 48.01
200.00 43.83
201.00 43.07
202.00 45.78
203.00 53.58
204.00 56.99
205.00 53.88
206.00 50.59
207.00 44.75
208.00 41.59
209.00 40.07
210.00 37.99
211.00 35.14
212.00 32.89
213.00 31.67
214.00 31.19
215.00 31.07
216.00 31.14
217.00 31.50
218.00 32.27
219.00 33.42
220.00 34.86
221.00 36.62
222.00 38.66
223.00 40.10
224.00 39.91
225.00 39.10
226.00 38.99
227.00 39.91
228.00 41.24
229.00 40.99
230.00 38.91
231.00 37.12
232.00 36.50
233.00 37.10
234.00 38.86
235.00 41.61
236.00 45.33
237.00 50.88
238.00 63.17
239.00 59.05
240.00 53.20
241.00 52.10
242.00 53.53
243.00 55.99
244.00 53.82
245.00 51.46
246.00 54.13
247.00 57.69
248.00 47.58
249.00 43.49
250.00 43.33
251.00 47.53
252.00 55.17
253.00 46.91
254.00 43.10
255.00 42.34
256.00 42.60
257.00 42.08
258.00 40.07
259.00 37.94
260.00 36.95
261.00 37.57
262.00 39.82
263.00 42.38
264.00 41.76
265.00 38.93
266.00 36.42
267.00 34.77
268.00 33.85
269.00 33.03
270.00 31.84
271.00 30.60
272.00 29.75
273.00 29.39
274.00 29.37
275.00 29.42
276.00 29.29
277.00 28.90
278.00 28.39
279.00 27.93
280.00 27.54
281.00 27.15
282.00 26.65
283.00 25.98
284.00 25.26
285.00 24.66
286.00 24.24
287.00 23.98
288.00 23.82
289.00 23.78
290.00 23.98
291.00 24.56
292.00 25.63
293.00 27.00
294.00 28.12
295.00 28.35
296.00 27.88
297.00 27.27
298.00 26.66
299.00 25.92
300.00 25.01
301.00 24.11
302.00 23.40
303.00 22.91
304.00 22.60
305.00 22.43
306.00 22.39
307.00 22.51
308.00 22.83
309.00 23.41
310.00 24.22
311.00 25.07
312.00 25.68
313.00 25.93
314.00 25.90
315.00 25.68
316.00 25.26
317.00 24.71
318.00 24.15
319.00 23.73
320.00 23.38
321.00 22.94
322.00 22.29
323.00 21.44
324.00 20.56
325.00 19.78
326.00 19.25
327.00 19.17
328.00 19.80
329.00 21.52
330.00 24.94
331.00 29.54
332.00 27.68
333.00 23.41
334.00 21.16
335.00 20.48
336.00 21.19
337.00 23.64
338.00 29.00
339.00 32.56
340.00 26.16
341.00 22.81
342.00 22.17
343.00 24.22
344.00 31.14
345.00 29.60
346.00 21.29
347.00 17.53
348.00 15.95
349.00 16.02
350.00 17.85
351.00 22.37
352.00 31.92
353.00 28.42
354.00 24.80
355.00 25.15
356.00 19.22
357.00 12.07
358.00 7.24
359.00 3.98
