NAME ATR4518R7_1850_X_CO_M45_05T_yL
FREQUENCY 1850
GAIN 15.33 dBd
TILT	ELECTRICAL
COMMENT DATE 05.08.2013 -45 degrees polarized system Lever position 05T deg
HORIZONTAL 360
0.00 0.00
1.00 0.01
2.00 0.02
3.00 0.04
4.00 0.07
5.00 0.10
6.00 0.14
7.00 0.18
8.00 0.23
9.00 0.29
10.00 0.35
11.00 0.41
12.00 0.48
13.00 0.55
14.00 0.62
15.00 0.69
16.00 0.77
17.00 0.85
18.00 0.93
19.00 1.01
20.00 1.09
21.00 1.18
22.00 1.27
23.00 1.36
24.00 1.46
25.00 1.56
26.00 1.66
27.00 1.77
28.00 1.89
29.00 2.02
30.00 2.15
31.00 2.29
32.00 2.44
33.00 2.60
34.00 2.77
35.00 2.94
36.00 3.13
37.00 3.33
38.00 3.54
39.00 3.75
40.00 3.98
41.00 4.22
42.00 4.46
43.00 4.72
44.00 4.98
45.00 5.25
46.00 5.52
47.00 5.80
48.00 6.09
49.00 6.38
50.00 6.68
51.00 6.98
52.00 7.28
53.00 7.58
54.00 7.89
55.00 8.20
56.00 8.51
57.00 8.83
58.00 9.14
59.00 9.46
60.00 9.78
61.00 10.10
62.00 10.43
63.00 10.76
64.00 11.09
65.00 11.43
66.00 11.77
67.00 12.12
68.00 12.47
69.00 12.84
70.00 13.21
71.00 13.59
72.00 13.98
73.00 14.37
74.00 14.78
75.00 15.19
76.00 15.61
77.00 16.04
78.00 16.48
79.00 16.92
80.00 17.37
81.00 17.82
82.00 18.28
83.00 18.73
84.00 19.18
85.00 19.62
86.00 20.05
87.00 20.46
88.00 20.86
89.00 21.24
90.00 21.60
91.00 21.94
92.00 22.25
93.00 22.53
94.00 22.80
95.00 23.05
96.00 23.27
97.00 23.49
98.00 23.70
99.00 23.90
100.00 24.10
101.00 24.29
102.00 24.48
103.00 24.68
104.00 24.87
105.00 25.05
106.00 25.23
107.00 25.39
108.00 25.55
109.00 25.69
110.00 25.81
111.00 25.93
112.00 26.03
113.00 26.12
114.00 26.22
115.00 26.32
116.00 26.44
117.00 26.57
118.00 26.74
119.00 26.94
120.00 27.18
121.00 27.45
122.00 27.77
123.00 28.12
124.00 28.49
125.00 28.87
126.00 29.22
127.00 29.51
128.00 29.71
129.00 29.78
130.00 29.70
131.00 29.48
132.00 29.14
133.00 28.72
134.00 28.27
135.00 27.81
136.00 27.39
137.00 27.00
138.00 26.68
139.00 26.43
140.00 26.25
141.00 26.15
142.00 26.14
143.00 26.21
144.00 26.37
145.00 26.63
146.00 26.98
147.00 27.44
148.00 28.00
149.00 28.68
150.00 29.47
151.00 30.39
152.00 31.44
153.00 32.59
154.00 33.80
155.00 34.99
156.00 35.98
157.00 36.60
158.00 36.72
159.00 36.42
160.00 35.91
161.00 35.36
162.00 34.88
163.00 34.54
164.00 34.36
165.00 34.37
166.00 34.57
167.00 34.99
168.00 35.65
169.00 36.59
170.00 37.89
171.00 39.65
172.00 42.04
173.00 45.23
174.00 48.20
175.00 46.84
176.00 43.21
177.00 40.20
178.00 37.91
179.00 36.16
180.00 34.80
181.00 33.73
182.00 32.91
183.00 32.29
184.00 31.85
185.00 31.58
186.00 31.47
187.00 31.51
188.00 31.70
189.00 32.07
190.00 32.62
191.00 33.38
192.00 34.40
193.00 35.75
194.00 37.56
195.00 40.10
196.00 43.96
197.00 50.97
198.00 52.49
199.00 44.44
200.00 39.99
201.00 37.03
202.00 34.85
203.00 33.15
204.00 31.78
205.00 30.65
206.00 29.72
207.00 28.96
208.00 28.32
209.00 27.81
210.00 27.41
211.00 27.11
212.00 26.91
213.00 26.81
214.00 26.80
215.00 26.88
216.00 27.07
217.00 27.37
218.00 27.79
219.00 28.35
220.00 29.07
221.00 29.98
222.00 31.13
223.00 32.60
224.00 34.55
225.00 37.24
226.00 41.38
227.00 49.12
228.00 48.73
229.00 40.97
230.00 36.71
231.00 33.88
232.00 31.77
233.00 30.13
234.00 28.81
235.00 27.73
236.00 26.84
237.00 26.10
238.00 25.49
239.00 24.99
240.00 24.59
241.00 24.27
242.00 24.02
243.00 23.84
244.00 23.72
245.00 23.63
246.00 23.58
247.00 23.55
248.00 23.52
249.00 23.48
250.00 23.42
251.00 23.33
252.00 23.19
253.00 23.01
254.00 22.78
255.00 22.51
256.00 22.20
257.00 21.87
258.00 21.51
259.00 21.15
260.00 20.79
261.00 20.44
262.00 20.10
263.00 19.77
264.00 19.46
265.00 19.17
266.00 18.89
267.00 18.62
268.00 18.37
269.00 18.12
270.00 17.88
271.00 17.64
272.00 17.40
273.00 17.16
274.00 16.91
275.00 16.65
276.00 16.38
277.00 16.09
278.00 15.80
279.00 15.49
280.00 15.17
281.00 14.84
282.00 14.51
283.00 14.17
284.00 13.82
285.00 13.47
286.00 13.12
287.00 12.78
288.00 12.44
289.00 12.10
290.00 11.76
291.00 11.43
292.00 11.11
293.00 10.80
294.00 10.50
295.00 10.20
296.00 9.91
297.00 9.63
298.00 9.36
299.00 9.09
300.00 8.83
301.00 8.58
302.00 8.33
303.00 8.09
304.00 7.86
305.00 7.62
306.00 7.40
307.00 7.19
308.00 6.97
309.00 6.77
310.00 6.57
311.00 6.37
312.00 6.18
313.00 6.00
314.00 5.81
315.00 5.63
316.00 5.46
317.00 5.29
318.00 5.12
319.00 4.95
320.00 4.79
321.00 4.62
322.00 4.45
323.00 4.29
324.00 4.12
325.00 3.95
326.00 3.77
327.00 3.60
328.00 3.42
329.00 3.25
330.00 3.07
331.00 2.89
332.00 2.71
333.00 2.53
334.00 2.36
335.00 2.19
336.00 2.02
337.00 1.85
338.00 1.70
339.00 1.54
340.00 1.40
341.00 1.26
342.00 1.13
343.00 1.00
344.00 0.88
345.00 0.77
346.00 0.67
347.00 0.58
348.00 0.49
349.00 0.41
350.00 0.34
351.00 0.27
352.00 0.21
353.00 0.16
354.00 0.12
355.00 0.08
356.00 0.05
357.00 0.03
358.00 0.01
359.00 0.01
VERTICAL 360
0.00 8.61
1.00 5.31
2.00 2.91
3.00 1.27
4.00 0.31
5.00 0.00
6.00 0.37
7.00 1.47
8.00 3.48
9.00 6.80
10.00 12.57
11.00 27.19
12.00 17.51
13.00 12.83
14.00 11.82
15.00 13.05
16.00 16.85
17.00 25.75
18.00 21.94
19.00 16.13
20.00 13.90
21.00 13.50
22.00 14.44
23.00 16.66
24.00 20.35
25.00 24.73
26.00 23.93
27.00 21.11
28.00 19.93
29.00 20.39
30.00 22.46
31.00 26.34
32.00 29.60
33.00 25.58
34.00 21.55
35.00 19.09
36.00 17.88
37.00 17.78
38.00 18.72
39.00 20.64
40.00 23.28
41.00 25.57
42.00 25.71
43.00 23.97
44.00 21.92
45.00 20.29
46.00 19.23
47.00 18.72
48.00 18.62
49.00 18.76
50.00 19.05
51.00 19.51
52.00 20.22
53.00 21.30
54.00 22.80
55.00 24.64
56.00 26.67
57.00 28.83
58.00 31.43
59.00 35.26
60.00 41.86
61.00 44.52
62.00 38.05
63.00 34.54
64.00 32.45
65.00 30.95
66.00 29.75
67.00 28.80
68.00 28.16
69.00 27.87
70.00 27.93
71.00 28.19
72.00 28.48
73.00 28.71
74.00 28.91
75.00 29.26
76.00 29.96
77.00 31.14
78.00 32.79
79.00 34.93
80.00 37.81
81.00 41.94
82.00 47.06
83.00 49.33
84.00 50.74
85.00 56.31
86.00 54.37
87.00 47.88
88.00 43.57
89.00 40.21
90.00 38.04
91.00 37.27
92.00 37.74
93.00 38.49
94.00 37.96
95.00 36.83
96.00 36.60
97.00 37.80
98.00 40.36
99.00 43.82
100.00 46.88
101.00 46.78
102.00 44.60
103.00 43.84
104.00 45.69
105.00 51.63
106.00 68.58
107.00 56.54
108.00 55.70
109.00 55.82
110.00 53.34
111.00 49.86
112.00 46.58
113.00 45.14
114.00 46.21
115.00 48.50
116.00 45.49
117.00 41.66
118.00 39.65
119.00 39.07
120.00 39.77
121.00 41.77
122.00 43.82
123.00 42.89
124.00 40.99
125.00 40.05
126.00 39.90
127.00 40.33
128.00 41.57
129.00 43.75
130.00 45.46
131.00 44.28
132.00 41.82
133.00 39.92
134.00 39.08
135.00 39.52
136.00 41.17
137.00 43.34
138.00 44.63
139.00 44.93
140.00 44.99
141.00 44.79
142.00 44.65
143.00 45.39
144.00 47.78
145.00 51.61
146.00 48.73
147.00 43.82
148.00 40.96
149.00 39.47
150.00 38.68
151.00 38.36
152.00 38.81
153.00 40.40
154.00 41.95
155.00 40.56
156.00 38.47
157.00 37.61
158.00 37.53
159.00 37.20
160.00 36.54
161.00 36.10
162.00 35.69
163.00 34.84
164.00 33.93
165.00 33.51
166.00 33.64
167.00 34.06
168.00 34.50
169.00 34.76
170.00 34.55
171.00 33.96
172.00 33.46
173.00 33.45
174.00 33.97
175.00 34.80
176.00 35.67
177.00 36.67
178.00 38.33
179.00 41.31
180.00 46.37
181.00 51.62
182.00 47.94
183.00 44.98
184.00 45.01
185.00 49.79
186.00 49.27
187.00 40.08
188.00 35.73
189.00 33.69
190.00 33.21
191.00 33.98
192.00 35.82
193.00 38.18
194.00 39.82
195.00 40.34
196.00 40.95
197.00 42.35
198.00 44.72
199.00 47.65
200.00 46.14
201.00 41.92
202.00 39.03
203.00 37.28
204.00 36.37
205.00 36.56
206.00 38.54
207.00 43.82
208.00 45.33
209.00 38.04
210.00 33.95
211.00 31.34
212.00 29.49
213.00 28.29
214.00 27.78
215.00 28.03
216.00 29.03
217.00 30.79
218.00 33.27
219.00 36.41
220.00 39.95
221.00 43.63
222.00 47.24
223.00 46.42
224.00 41.79
225.00 38.37
226.00 36.38
227.00 35.53
228.00 35.64
229.00 36.65
230.00 38.41
231.00 40.42
232.00 41.23
233.00 40.13
234.00 38.24
235.00 36.41
236.00 34.92
237.00 33.98
238.00 33.68
239.00 34.04
240.00 34.88
241.00 35.74
242.00 36.10
243.00 35.92
244.00 35.65
245.00 35.67
246.00 35.99
247.00 36.33
248.00 36.42
249.00 36.28
250.00 36.08
251.00 36.02
252.00 36.27
253.00 36.87
254.00 37.71
255.00 38.90
256.00 40.84
257.00 44.23
258.00 49.90
259.00 57.52
260.00 58.04
261.00 57.21
262.00 58.56
263.00 59.98
264.00 51.47
265.00 44.94
266.00 40.75
267.00 37.97
268.00 36.13
269.00 34.99
270.00 34.46
271.00 34.47
272.00 34.69
273.00 34.46
274.00 33.42
275.00 31.99
276.00 30.72
277.00 29.86
278.00 29.40
279.00 29.17
280.00 28.88
281.00 28.33
282.00 27.58
283.00 26.79
284.00 26.11
285.00 25.58
286.00 25.17
287.00 24.84
288.00 24.55
289.00 24.32
290.00 24.18
291.00 24.13
292.00 24.24
293.00 24.56
294.00 25.15
295.00 26.08
296.00 27.56
297.00 30.03
298.00 34.13
299.00 34.94
300.00 29.52
301.00 25.77
302.00 23.64
303.00 22.56
304.00 22.10
305.00 21.97
306.00 22.14
307.00 22.78
308.00 24.23
309.00 26.60
310.00 28.22
311.00 26.06
312.00 22.99
313.00 20.76
314.00 19.29
315.00 18.35
316.00 17.93
317.00 18.11
318.00 19.03
319.00 20.88
320.00 23.92
321.00 28.23
322.00 31.08
323.00 29.10
324.00 27.33
325.00 27.12
326.00 28.43
327.00 30.53
328.00 29.72
329.00 26.31
330.00 23.73
331.00 22.47
332.00 22.43
333.00 23.56
334.00 25.61
335.00 27.03
336.00 25.82
337.00 23.98
338.00 23.13
339.00 23.57
340.00 25.35
341.00 27.91
342.00 28.36
343.00 26.25
344.00 24.77
345.00 24.83
346.00 26.56
347.00 28.87
348.00 26.65
349.00 22.59
350.00 19.88
351.00 18.56
352.00 18.53
353.00 19.86
354.00 22.80
355.00 28.05
356.00 36.29
357.00 27.40
358.00 18.99
359.00 13.03
