NAME ATR4518R7_2140_X_CO_M45_02T_yL
FREQUENCY 2140
GAIN 16.13 dBd
TILT	ELECTRICAL
COMMENT DATE 05.08.2013 -45 degrees polarized system Lever position 02T deg
HORIZONTAL 360
0.00 0.04
1.00 0.07
2.00 0.11
3.00 0.15
4.00 0.19
5.00 0.25
6.00 0.31
7.00 0.38
8.00 0.45
9.00 0.54
10.00 0.63
11.00 0.73
12.00 0.84
13.00 0.96
14.00 1.08
15.00 1.21
16.00 1.36
17.00 1.51
18.00 1.67
19.00 1.84
20.00 2.01
21.00 2.19
22.00 2.38
23.00 2.58
24.00 2.78
25.00 2.98
26.00 3.19
27.00 3.41
28.00 3.63
29.00 3.85
30.00 4.07
31.00 4.30
32.00 4.53
33.00 4.76
34.00 5.00
35.00 5.23
36.00 5.47
37.00 5.71
38.00 5.96
39.00 6.20
40.00 6.44
41.00 6.69
42.00 6.93
43.00 7.18
44.00 7.43
45.00 7.68
46.00 7.93
47.00 8.18
48.00 8.42
49.00 8.67
50.00 8.91
51.00 9.16
52.00 9.41
53.00 9.65
54.00 9.90
55.00 10.15
56.00 10.40
57.00 10.66
58.00 10.92
59.00 11.18
60.00 11.45
61.00 11.73
62.00 12.02
63.00 12.31
64.00 12.62
65.00 12.93
66.00 13.27
67.00 13.61
68.00 13.97
69.00 14.34
70.00 14.73
71.00 15.14
72.00 15.57
73.00 16.01
74.00 16.47
75.00 16.94
76.00 17.43
77.00 17.93
78.00 18.44
79.00 18.96
80.00 19.48
81.00 20.01
82.00 20.54
83.00 21.06
84.00 21.57
85.00 22.08
86.00 22.57
87.00 23.05
88.00 23.52
89.00 23.98
90.00 24.43
91.00 24.89
92.00 25.35
93.00 25.82
94.00 26.33
95.00 26.87
96.00 27.46
97.00 28.11
98.00 28.84
99.00 29.66
100.00 30.59
101.00 31.66
102.00 32.89
103.00 34.33
104.00 36.01
105.00 38.00
106.00 40.32
107.00 42.83
108.00 44.81
109.00 44.91
110.00 43.43
111.00 41.70
112.00 40.27
113.00 39.19
114.00 38.44
115.00 37.97
116.00 37.74
117.00 37.74
118.00 37.94
119.00 38.31
120.00 38.83
121.00 39.46
122.00 40.11
123.00 40.66
124.00 40.97
125.00 40.92
126.00 40.53
127.00 39.92
128.00 39.21
129.00 38.53
130.00 37.90
131.00 37.38
132.00 36.96
133.00 36.61
134.00 36.32
135.00 36.04
136.00 35.74
137.00 35.38
138.00 34.95
139.00 34.43
140.00 33.83
141.00 33.20
142.00 32.55
143.00 31.94
144.00 31.37
145.00 30.87
146.00 30.46
147.00 30.15
148.00 29.94
149.00 29.85
150.00 29.88
151.00 30.03
152.00 30.33
153.00 30.77
154.00 31.36
155.00 32.11
156.00 32.99
157.00 33.97
158.00 34.92
159.00 35.59
160.00 35.73
161.00 35.22
162.00 34.24
163.00 33.09
164.00 31.97
165.00 30.96
166.00 30.10
167.00 29.41
168.00 28.87
169.00 28.48
170.00 28.25
171.00 28.16
172.00 28.21
173.00 28.41
174.00 28.77
175.00 29.28
176.00 29.96
177.00 30.83
178.00 31.88
179.00 33.12
180.00 34.50
181.00 35.83
182.00 36.76
183.00 36.88
184.00 36.16
185.00 35.02
186.00 33.81
187.00 32.74
188.00 31.86
189.00 31.18
190.00 30.68
191.00 30.38
192.00 30.24
193.00 30.29
194.00 30.51
195.00 30.91
196.00 31.52
197.00 32.36
198.00 33.47
199.00 34.93
200.00 36.88
201.00 39.59
202.00 43.73
203.00 52.13
204.00 55.94
205.00 45.20
206.00 40.70
207.00 37.92
208.00 35.98
209.00 34.58
210.00 33.54
211.00 32.79
212.00 32.27
213.00 31.95
214.00 31.82
215.00 31.87
216.00 32.09
217.00 32.51
218.00 33.14
219.00 34.01
220.00 35.17
221.00 36.74
222.00 38.89
223.00 41.95
224.00 46.46
225.00 49.41
226.00 44.58
227.00 40.20
228.00 37.12
229.00 34.82
230.00 33.02
231.00 31.57
232.00 30.39
233.00 29.41
234.00 28.60
235.00 27.94
236.00 27.41
237.00 26.99
238.00 26.68
239.00 26.46
240.00 26.33
241.00 26.29
242.00 26.33
243.00 26.44
244.00 26.61
245.00 26.83
246.00 27.08
247.00 27.33
248.00 27.57
249.00 27.75
250.00 27.84
251.00 27.82
252.00 27.67
253.00 27.42
254.00 27.07
255.00 26.65
256.00 26.20
257.00 25.74
258.00 25.29
259.00 24.86
260.00 24.46
261.00 24.08
262.00 23.72
263.00 23.39
264.00 23.06
265.00 22.75
266.00 22.42
267.00 22.09
268.00 21.75
269.00 21.38
270.00 21.00
271.00 20.59
272.00 20.17
273.00 19.73
274.00 19.29
275.00 18.84
276.00 18.39
277.00 17.96
278.00 17.53
279.00 17.12
280.00 16.72
281.00 16.34
282.00 15.98
283.00 15.64
284.00 15.32
285.00 15.01
286.00 14.72
287.00 14.45
288.00 14.18
289.00 13.92
290.00 13.67
291.00 13.42
292.00 13.17
293.00 12.93
294.00 12.67
295.00 12.41
296.00 12.14
297.00 11.87
298.00 11.58
299.00 11.28
300.00 10.98
301.00 10.67
302.00 10.36
303.00 10.04
304.00 9.72
305.00 9.40
306.00 9.08
307.00 8.76
308.00 8.45
309.00 8.15
310.00 7.85
311.00 7.55
312.00 7.26
313.00 6.97
314.00 6.69
315.00 6.42
316.00 6.14
317.00 5.87
318.00 5.60
319.00 5.34
320.00 5.07
321.00 4.81
322.00 4.55
323.00 4.29
324.00 4.04
325.00 3.79
326.00 3.55
327.00 3.31
328.00 3.07
329.00 2.84
330.00 2.63
331.00 2.41
332.00 2.21
333.00 2.02
334.00 1.83
335.00 1.66
336.00 1.49
337.00 1.33
338.00 1.19
339.00 1.05
340.00 0.92
341.00 0.80
342.00 0.69
343.00 0.59
344.00 0.50
345.00 0.42
346.00 0.34
347.00 0.27
348.00 0.21
349.00 0.16
350.00 0.12
351.00 0.08
352.00 0.05
353.00 0.03
354.00 0.01
355.00 0.00
356.00 0.00
357.00 0.00
358.00 0.01
359.00 0.02
VERTICAL 360
0.00 1.95
1.00 0.53
2.00 0.00
3.00 0.33
4.00 1.61
5.00 4.05
6.00 8.21
7.00 16.03
8.00 25.59
9.00 15.83
10.00 13.77
11.00 14.77
12.00 18.10
13.00 20.40
14.00 17.67
15.00 15.92
16.00 16.41
17.00 19.28
18.00 25.06
19.00 26.93
20.00 22.37
21.00 20.22
22.00 19.90
23.00 21.14
24.00 23.56
25.00 23.67
26.00 20.57
27.00 18.33
28.00 17.51
29.00 17.87
30.00 19.17
31.00 21.30
32.00 24.11
33.00 26.76
34.00 27.28
35.00 26.04
36.00 24.27
37.00 22.28
38.00 20.62
39.00 19.75
40.00 19.95
41.00 21.41
42.00 24.53
43.00 30.48
44.00 42.46
45.00 33.88
46.00 30.08
47.00 28.93
48.00 28.63
49.00 28.39
50.00 28.26
51.00 28.75
52.00 30.37
53.00 33.53
54.00 37.36
55.00 35.98
56.00 32.69
57.00 30.75
58.00 29.96
59.00 30.02
60.00 30.78
61.00 32.10
62.00 33.76
63.00 35.57
64.00 37.45
65.00 39.45
66.00 41.54
67.00 43.13
68.00 43.66
69.00 43.86
70.00 44.42
71.00 44.73
72.00 43.83
73.00 42.25
74.00 40.99
75.00 40.39
76.00 40.21
77.00 39.84
78.00 39.07
79.00 38.20
80.00 37.68
81.00 38.05
82.00 40.00
83.00 44.39
84.00 49.55
85.00 49.20
86.00 54.22
87.00 49.50
88.00 41.20
89.00 38.18
90.00 38.14
91.00 40.67
92.00 45.86
93.00 52.24
94.00 51.29
95.00 45.20
96.00 40.96
97.00 39.07
98.00 39.09
99.00 40.58
100.00 42.72
101.00 44.19
102.00 44.88
103.00 46.10
104.00 48.87
105.00 53.70
106.00 57.82
107.00 57.34
108.00 58.30
109.00 61.04
110.00 59.13
111.00 53.96
112.00 50.39
113.00 48.60
114.00 48.25
115.00 48.86
116.00 49.85
117.00 50.78
118.00 51.62
119.00 53.03
120.00 56.47
121.00 68.86
122.00 58.46
123.00 50.51
124.00 46.54
125.00 44.64
126.00 44.47
127.00 46.17
128.00 50.05
129.00 52.37
130.00 47.72
131.00 44.13
132.00 42.08
133.00 41.01
134.00 40.45
135.00 39.93
136.00 39.44
137.00 39.74
138.00 42.08
139.00 48.76
140.00 45.75
141.00 39.11
142.00 36.15
143.00 35.14
144.00 35.43
145.00 36.59
146.00 37.82
147.00 38.61
148.00 40.09
149.00 43.27
150.00 42.46
151.00 38.34
152.00 36.68
153.00 37.48
154.00 40.52
155.00 45.42
156.00 51.28
157.00 63.00
158.00 55.92
159.00 51.68
160.00 49.55
161.00 44.76
162.00 41.71
163.00 41.25
164.00 42.63
165.00 43.52
166.00 43.27
167.00 44.83
168.00 50.29
169.00 50.86
170.00 46.39
171.00 46.76
172.00 53.37
173.00 46.57
174.00 39.17
175.00 35.17
176.00 32.67
177.00 30.97
178.00 29.96
179.00 29.85
180.00 30.97
181.00 33.61
182.00 37.34
183.00 38.51
184.00 37.03
185.00 36.30
186.00 36.33
187.00 36.47
188.00 36.64
189.00 37.30
190.00 38.97
191.00 42.08
192.00 46.97
193.00 51.01
194.00 48.72
195.00 46.55
196.00 46.24
197.00 46.97
198.00 46.21
199.00 44.40
200.00 43.84
201.00 45.00
202.00 47.45
203.00 49.95
204.00 50.72
205.00 49.57
206.00 48.28
207.00 47.83
208.00 47.80
209.00 46.67
210.00 43.86
211.00 41.18
212.00 39.77
213.00 39.87
214.00 40.85
215.00 39.95
216.00 36.94
217.00 34.54
218.00 33.40
219.00 33.40
220.00 34.21
221.00 35.51
222.00 37.40
223.00 40.66
224.00 47.27
225.00 58.31
226.00 48.60
227.00 45.82
228.00 44.49
229.00 43.25
230.00 43.07
231.00 44.84
232.00 45.46
233.00 40.76
234.00 37.27
235.00 35.93
236.00 36.42
237.00 38.42
238.00 41.08
239.00 42.34
240.00 41.57
241.00 40.47
242.00 40.08
243.00 40.79
244.00 42.65
245.00 45.40
246.00 48.23
247.00 49.30
248.00 48.70
249.00 48.49
250.00 49.15
251.00 50.83
252.00 55.22
253.00 54.59
254.00 46.44
255.00 41.87
256.00 39.12
257.00 37.26
258.00 35.79
259.00 34.51
260.00 33.41
261.00 32.58
262.00 32.00
263.00 31.59
264.00 31.24
265.00 30.88
266.00 30.52
267.00 30.24
268.00 30.10
269.00 30.07
270.00 30.03
271.00 29.85
272.00 29.44
273.00 28.92
274.00 28.52
275.00 28.39
276.00 28.56
277.00 28.95
278.00 29.36
279.00 29.60
280.00 29.62
281.00 29.59
282.00 29.69
283.00 29.95
284.00 30.28
285.00 30.53
286.00 30.57
287.00 30.29
288.00 29.76
289.00 29.23
290.00 29.06
291.00 29.57
292.00 31.08
293.00 33.96
294.00 38.37
295.00 39.55
296.00 36.00
297.00 33.58
298.00 32.24
299.00 31.22
300.00 30.14
301.00 29.17
302.00 28.61
303.00 28.72
304.00 29.68
305.00 31.71
306.00 35.37
307.00 42.70
308.00 40.68
309.00 33.22
310.00 29.61
311.00 28.24
312.00 28.67
313.00 30.05
314.00 29.14
315.00 25.92
316.00 23.32
317.00 21.70
318.00 20.70
319.00 20.06
320.00 19.82
321.00 20.25
322.00 21.53
323.00 23.10
324.00 23.22
325.00 21.88
326.00 20.73
327.00 20.16
328.00 19.69
329.00 18.98
330.00 18.24
331.00 17.97
332.00 18.58
333.00 20.53
334.00 24.47
335.00 28.09
336.00 23.87
337.00 20.58
338.00 19.53
339.00 20.52
340.00 24.31
341.00 37.13
342.00 28.42
343.00 22.20
344.00 20.43
345.00 21.45
346.00 26.26
347.00 34.56
348.00 23.62
349.00 19.44
350.00 18.17
351.00 18.87
352.00 21.14
353.00 23.59
354.00 25.03
355.00 31.65
356.00 24.33
357.00 13.86
358.00 8.10
359.00 4.37
