NAME ATR4518R7_0880_X_CO_P45_02T
FREQUENCY 0880
GAIN 14.56 dBd
TILT	ELECTRICAL
COMMENT DATE 05.08.2013 +45 degrees polarized system Lever position 02T deg
HORIZONTAL 360
0.00 0.00
1.00 0.00
2.00 0.00
3.00 0.00
4.00 0.02
5.00 0.04
6.00 0.07
7.00 0.10
8.00 0.14
9.00 0.18
10.00 0.23
11.00 0.29
12.00 0.36
13.00 0.43
14.00 0.51
15.00 0.59
16.00 0.68
17.00 0.78
18.00 0.88
19.00 0.99
20.00 1.11
21.00 1.23
22.00 1.36
23.00 1.49
24.00 1.64
25.00 1.78
26.00 1.94
27.00 2.10
28.00 2.27
29.00 2.44
30.00 2.62
31.00 2.81
32.00 3.00
33.00 3.20
34.00 3.40
35.00 3.61
36.00 3.83
37.00 4.06
38.00 4.29
39.00 4.52
40.00 4.76
41.00 5.01
42.00 5.27
43.00 5.53
44.00 5.79
45.00 6.06
46.00 6.34
47.00 6.62
48.00 6.91
49.00 7.21
50.00 7.51
51.00 7.81
52.00 8.12
53.00 8.44
54.00 8.76
55.00 9.08
56.00 9.42
57.00 9.75
58.00 10.10
59.00 10.44
60.00 10.79
61.00 11.15
62.00 11.52
63.00 11.89
64.00 12.26
65.00 12.63
66.00 13.02
67.00 13.41
68.00 13.81
69.00 14.21
70.00 14.61
71.00 15.02
72.00 15.44
73.00 15.86
74.00 16.29
75.00 16.73
76.00 17.17
77.00 17.62
78.00 18.07
79.00 18.53
80.00 18.99
81.00 19.46
82.00 19.93
83.00 20.40
84.00 20.88
85.00 21.36
86.00 21.84
87.00 22.31
88.00 22.79
89.00 23.25
90.00 23.71
91.00 24.15
92.00 24.58
93.00 24.98
94.00 25.36
95.00 25.71
96.00 26.03
97.00 26.32
98.00 26.57
99.00 26.79
100.00 26.97
101.00 27.11
102.00 27.23
103.00 27.31
104.00 27.37
105.00 27.41
106.00 27.43
107.00 27.44
108.00 27.43
109.00 27.43
110.00 27.41
111.00 27.40
112.00 27.40
113.00 27.39
114.00 27.39
115.00 27.40
116.00 27.42
117.00 27.45
118.00 27.48
119.00 27.53
120.00 27.59
121.00 27.66
122.00 27.75
123.00 27.85
124.00 27.96
125.00 28.09
126.00 28.23
127.00 28.39
128.00 28.56
129.00 28.75
130.00 28.95
131.00 29.18
132.00 29.41
133.00 29.68
134.00 29.96
135.00 30.26
136.00 30.58
137.00 30.93
138.00 31.30
139.00 31.70
140.00 32.12
141.00 32.58
142.00 33.08
143.00 33.60
144.00 34.17
145.00 34.78
146.00 35.44
147.00 36.14
148.00 36.90
149.00 37.71
150.00 38.58
151.00 39.50
152.00 40.44
153.00 41.40
154.00 42.28
155.00 42.99
156.00 43.41
157.00 43.47
158.00 43.15
159.00 42.54
160.00 41.75
161.00 40.91
162.00 40.05
163.00 39.23
164.00 38.47
165.00 37.75
166.00 37.09
167.00 36.48
168.00 35.93
169.00 35.43
170.00 34.97
171.00 34.55
172.00 34.17
173.00 33.82
174.00 33.51
175.00 33.23
176.00 32.97
177.00 32.75
178.00 32.55
179.00 32.37
180.00 32.22
181.00 32.09
182.00 31.98
183.00 31.89
184.00 31.83
185.00 31.78
186.00 31.75
187.00 31.74
188.00 31.74
189.00 31.77
190.00 31.81
191.00 31.86
192.00 31.94
193.00 32.02
194.00 32.13
195.00 32.24
196.00 32.37
197.00 32.51
198.00 32.67
199.00 32.83
200.00 33.01
201.00 33.19
202.00 33.38
203.00 33.58
204.00 33.78
205.00 33.99
206.00 34.19
207.00 34.40
208.00 34.61
209.00 34.81
210.00 35.01
211.00 35.19
212.00 35.37
213.00 35.53
214.00 35.67
215.00 35.80
216.00 35.91
217.00 36.00
218.00 36.07
219.00 36.11
220.00 36.13
221.00 36.13
222.00 36.10
223.00 36.05
224.00 35.98
225.00 35.89
226.00 35.78
227.00 35.65
228.00 35.50
229.00 35.33
230.00 35.15
231.00 34.95
232.00 34.74
233.00 34.53
234.00 34.30
235.00 34.06
236.00 33.81
237.00 33.56
238.00 33.29
239.00 33.02
240.00 32.75
241.00 32.47
242.00 32.19
243.00 31.90
244.00 31.61
245.00 31.31
246.00 31.00
247.00 30.70
248.00 30.38
249.00 30.06
250.00 29.73
251.00 29.40
252.00 29.06
253.00 28.71
254.00 28.35
255.00 27.99
256.00 27.62
257.00 27.24
258.00 26.85
259.00 26.45
260.00 26.05
261.00 25.64
262.00 25.22
263.00 24.80
264.00 24.37
265.00 23.94
266.00 23.51
267.00 23.08
268.00 22.64
269.00 22.21
270.00 21.77
271.00 21.34
272.00 20.90
273.00 20.47
274.00 20.04
275.00 19.62
276.00 19.20
277.00 18.78
278.00 18.37
279.00 17.96
280.00 17.55
281.00 17.15
282.00 16.76
283.00 16.37
284.00 15.98
285.00 15.60
286.00 15.23
287.00 14.85
288.00 14.49
289.00 14.13
290.00 13.77
291.00 13.42
292.00 13.07
293.00 12.73
294.00 12.39
295.00 12.06
296.00 11.73
297.00 11.40
298.00 11.08
299.00 10.76
300.00 10.45
301.00 10.14
302.00 9.84
303.00 9.53
304.00 9.23
305.00 8.94
306.00 8.65
307.00 8.36
308.00 8.08
309.00 7.80
310.00 7.53
311.00 7.26
312.00 6.99
313.00 6.73
314.00 6.47
315.00 6.21
316.00 5.96
317.00 5.72
318.00 5.48
319.00 5.24
320.00 5.01
321.00 4.78
322.00 4.55
323.00 4.33
324.00 4.12
325.00 3.91
326.00 3.71
327.00 3.51
328.00 3.31
329.00 3.12
330.00 2.93
331.00 2.76
332.00 2.58
333.00 2.41
334.00 2.25
335.00 2.09
336.00 1.94
337.00 1.79
338.00 1.65
339.00 1.51
340.00 1.38
341.00 1.25
342.00 1.13
343.00 1.02
344.00 0.91
345.00 0.81
346.00 0.71
347.00 0.62
348.00 0.54
349.00 0.46
350.00 0.39
351.00 0.32
352.00 0.26
353.00 0.21
354.00 0.16
355.00 0.12
356.00 0.08
357.00 0.05
358.00 0.03
359.00 0.01
VERTICAL 360
0.00 0.66
1.00 0.15
2.00 0.00
3.00 0.20
4.00 0.78
5.00 1.78
6.00 3.25
7.00 5.27
8.00 7.98
9.00 11.68
10.00 17.07
11.00 26.66
12.00 29.02
13.00 23.03
14.00 21.89
15.00 23.53
16.00 28.84
17.00 37.88
18.00 26.59
19.00 22.00
20.00 19.82
21.00 18.92
22.00 18.95
23.00 19.90
24.00 22.01
25.00 25.87
26.00 32.00
27.00 30.78
28.00 26.59
29.00 25.00
30.00 25.32
31.00 27.38
32.00 31.68
33.00 36.04
34.00 28.85
35.00 23.11
36.00 19.22
37.00 16.49
38.00 14.64
39.00 13.49
40.00 12.92
41.00 12.82
42.00 13.05
43.00 13.56
44.00 14.33
45.00 15.41
46.00 16.90
47.00 18.88
48.00 21.35
49.00 24.19
50.00 27.16
51.00 30.15
52.00 33.21
53.00 35.96
54.00 37.66
55.00 37.93
56.00 37.10
57.00 35.72
58.00 33.89
59.00 32.08
60.00 31.07
61.00 31.32
62.00 32.93
63.00 35.93
64.00 40.95
65.00 44.19
66.00 36.61
67.00 32.19
68.00 30.24
69.00 30.05
70.00 31.30
71.00 33.57
72.00 35.55
73.00 35.41
74.00 34.15
75.00 33.25
76.00 32.99
77.00 32.99
78.00 32.24
79.00 30.27
80.00 28.23
81.00 27.10
82.00 27.17
83.00 28.38
84.00 30.22
85.00 31.06
86.00 29.71
87.00 27.59
88.00 26.03
89.00 25.40
90.00 25.73
91.00 26.78
92.00 28.03
93.00 28.87
94.00 29.07
95.00 28.86
96.00 28.77
97.00 29.18
98.00 30.17
99.00 31.58
100.00 33.07
101.00 33.83
102.00 33.25
103.00 32.24
104.00 31.81
105.00 32.26
106.00 33.45
107.00 34.73
108.00 34.86
109.00 33.72
110.00 32.56
111.00 32.14
112.00 32.68
113.00 34.24
114.00 36.29
115.00 36.71
116.00 35.20
117.00 33.94
118.00 33.53
119.00 33.82
120.00 34.73
121.00 36.23
122.00 37.61
123.00 37.77
124.00 37.54
125.00 38.02
126.00 38.64
127.00 38.25
128.00 37.60
129.00 37.80
130.00 38.88
131.00 40.16
132.00 40.70
133.00 40.46
134.00 40.49
135.00 41.93
136.00 45.28
137.00 44.46
138.00 39.31
139.00 35.86
140.00 33.78
141.00 32.53
142.00 31.85
143.00 31.59
144.00 31.66
145.00 31.98
146.00 32.53
147.00 33.40
148.00 34.69
149.00 36.47
150.00 38.49
151.00 39.83
152.00 39.55
153.00 38.03
154.00 36.25
155.00 34.95
156.00 34.46
157.00 34.81
158.00 35.78
159.00 37.05
160.00 38.18
161.00 38.62
162.00 38.28
163.00 37.95
164.00 38.19
165.00 38.84
166.00 39.55
167.00 40.79
168.00 43.50
169.00 46.20
170.00 43.15
171.00 39.88
172.00 38.18
173.00 37.28
174.00 36.38
175.00 35.12
176.00 33.75
177.00 32.66
178.00 32.03
179.00 31.87
180.00 32.02
181.00 32.32
182.00 32.69
183.00 33.21
184.00 34.04
185.00 35.34
186.00 36.93
187.00 38.33
188.00 39.21
189.00 39.69
190.00 39.40
191.00 37.88
192.00 35.73
193.00 33.76
194.00 32.33
195.00 31.52
196.00 31.25
197.00 31.44
198.00 32.00
199.00 32.96
200.00 34.40
201.00 36.51
202.00 39.84
203.00 45.59
204.00 46.87
205.00 40.94
206.00 37.90
207.00 36.72
208.00 36.78
209.00 37.78
210.00 39.72
211.00 42.83
212.00 47.39
213.00 50.81
214.00 49.19
215.00 48.34
216.00 49.91
217.00 54.04
218.00 57.25
219.00 54.32
220.00 52.33
221.00 50.17
222.00 45.23
223.00 40.31
224.00 36.78
225.00 34.51
226.00 33.23
227.00 32.68
228.00 32.52
229.00 32.08
230.00 30.87
231.00 29.43
232.00 28.56
233.00 28.59
234.00 29.56
235.00 31.28
236.00 33.36
237.00 35.14
238.00 35.57
239.00 34.56
240.00 33.54
241.00 33.39
242.00 34.49
243.00 37.18
244.00 42.14
245.00 49.49
246.00 48.52
247.00 43.97
248.00 39.77
249.00 36.86
250.00 35.63
251.00 35.91
252.00 37.29
253.00 38.99
254.00 39.64
255.00 38.85
256.00 38.18
257.00 38.60
258.00 39.10
259.00 37.82
260.00 36.54
261.00 36.97
262.00 39.42
263.00 43.51
264.00 45.93
265.00 41.17
266.00 36.28
267.00 33.65
268.00 33.09
269.00 34.19
270.00 35.92
271.00 36.97
272.00 37.32
273.00 36.16
274.00 33.60
275.00 31.71
276.00 31.09
277.00 31.37
278.00 31.97
279.00 32.62
280.00 33.28
281.00 33.54
282.00 33.18
283.00 32.79
284.00 32.84
285.00 33.28
286.00 33.84
287.00 34.35
288.00 34.76
289.00 35.38
290.00 36.66
291.00 39.06
292.00 42.91
293.00 47.13
294.00 44.92
295.00 40.34
296.00 37.00
297.00 34.79
298.00 33.49
299.00 32.94
300.00 32.99
301.00 33.52
302.00 34.47
303.00 35.96
304.00 38.19
305.00 38.76
306.00 34.17
307.00 29.55
308.00 26.25
309.00 23.95
310.00 22.31
311.00 21.02
312.00 19.85
313.00 18.68
314.00 17.54
315.00 16.56
316.00 15.87
317.00 15.57
318.00 15.66
319.00 16.10
320.00 16.82
321.00 17.68
322.00 18.56
323.00 19.45
324.00 20.49
325.00 21.91
326.00 23.85
327.00 26.41
328.00 29.60
329.00 33.00
330.00 35.30
331.00 35.81
332.00 35.49
333.00 35.25
334.00 35.28
335.00 33.79
336.00 30.19
337.00 26.81
338.00 24.42
339.00 22.92
340.00 22.09
341.00 21.81
342.00 22.08
343.00 23.14
344.00 25.54
345.00 30.58
346.00 34.10
347.00 27.03
348.00 23.19
349.00 21.70
350.00 22.12
351.00 24.78
352.00 26.48
353.00 19.68
354.00 13.98
355.00 9.92
356.00 6.89
357.00 4.58
358.00 2.83
359.00 1.55
