NAME ATR4518R7_0832_X_CO_M45_05T
FREQUENCY 0832
GAIN 14.72 dBd
TILT	ELECTRICAL
COMMENT DATE 05.08.2013 -45 degrees polarized system Lever position 05T deg
HORIZONTAL 360
0.00 0.01
1.00 0.03
2.00 0.05
3.00 0.08
4.00 0.12
5.00 0.16
6.00 0.20
7.00 0.25
8.00 0.31
9.00 0.38
10.00 0.45
11.00 0.52
12.00 0.61
13.00 0.70
14.00 0.79
15.00 0.89
16.00 1.00
17.00 1.11
18.00 1.23
19.00 1.35
20.00 1.48
21.00 1.62
22.00 1.76
23.00 1.91
24.00 2.07
25.00 2.23
26.00 2.40
27.00 2.57
28.00 2.75
29.00 2.93
30.00 3.12
31.00 3.32
32.00 3.52
33.00 3.73
34.00 3.95
35.00 4.17
36.00 4.39
37.00 4.63
38.00 4.86
39.00 5.11
40.00 5.36
41.00 5.61
42.00 5.88
43.00 6.14
44.00 6.42
45.00 6.70
46.00 6.98
47.00 7.27
48.00 7.57
49.00 7.87
50.00 8.18
51.00 8.50
52.00 8.82
53.00 9.14
54.00 9.47
55.00 9.81
56.00 10.15
57.00 10.50
58.00 10.85
59.00 11.21
60.00 11.58
61.00 11.95
62.00 12.32
63.00 12.71
64.00 13.09
65.00 13.48
66.00 13.88
67.00 14.29
68.00 14.70
69.00 15.11
70.00 15.53
71.00 15.95
72.00 16.38
73.00 16.81
74.00 17.25
75.00 17.69
76.00 18.13
77.00 18.57
78.00 19.02
79.00 19.47
80.00 19.91
81.00 20.35
82.00 20.79
83.00 21.23
84.00 21.66
85.00 22.08
86.00 22.49
87.00 22.89
88.00 23.27
89.00 23.64
90.00 24.00
91.00 24.34
92.00 24.66
93.00 24.96
94.00 25.24
95.00 25.51
96.00 25.75
97.00 25.99
98.00 26.21
99.00 26.42
100.00 26.62
101.00 26.82
102.00 27.01
103.00 27.20
104.00 27.39
105.00 27.59
106.00 27.79
107.00 28.00
108.00 28.22
109.00 28.45
110.00 28.70
111.00 28.96
112.00 29.24
113.00 29.54
114.00 29.86
115.00 30.20
116.00 30.57
117.00 30.97
118.00 31.39
119.00 31.84
120.00 32.33
121.00 32.85
122.00 33.41
123.00 34.02
124.00 34.66
125.00 35.35
126.00 36.08
127.00 36.86
128.00 37.70
129.00 38.57
130.00 39.48
131.00 40.37
132.00 41.25
133.00 42.01
134.00 42.59
135.00 42.92
136.00 42.96
137.00 42.72
138.00 42.27
139.00 41.70
140.00 41.07
141.00 40.43
142.00 39.81
143.00 39.23
144.00 38.69
145.00 38.20
146.00 37.75
147.00 37.34
148.00 36.96
149.00 36.63
150.00 36.33
151.00 36.06
152.00 35.81
153.00 35.58
154.00 35.38
155.00 35.19
156.00 35.01
157.00 34.85
158.00 34.69
159.00 34.54
160.00 34.39
161.00 34.25
162.00 34.11
163.00 33.97
164.00 33.82
165.00 33.68
166.00 33.53
167.00 33.38
168.00 33.23
169.00 33.08
170.00 32.92
171.00 32.77
172.00 32.62
173.00 32.46
174.00 32.32
175.00 32.17
176.00 32.04
177.00 31.90
178.00 31.78
179.00 31.66
180.00 31.55
181.00 31.46
182.00 31.37
183.00 31.30
184.00 31.23
185.00 31.19
186.00 31.15
187.00 31.13
188.00 31.12
189.00 31.14
190.00 31.16
191.00 31.20
192.00 31.26
193.00 31.34
194.00 31.43
195.00 31.54
196.00 31.67
197.00 31.82
198.00 31.98
199.00 32.17
200.00 32.38
201.00 32.61
202.00 32.86
203.00 33.14
204.00 33.43
205.00 33.76
206.00 34.10
207.00 34.48
208.00 34.88
209.00 35.31
210.00 35.77
211.00 36.26
212.00 36.78
213.00 37.35
214.00 37.94
215.00 38.58
216.00 39.26
217.00 39.98
218.00 40.75
219.00 41.57
220.00 42.44
221.00 43.37
222.00 44.34
223.00 45.33
224.00 46.34
225.00 47.28
226.00 48.09
227.00 48.60
228.00 48.72
229.00 48.41
230.00 47.74
231.00 46.83
232.00 45.79
233.00 44.70
234.00 43.61
235.00 42.55
236.00 41.52
237.00 40.50
238.00 39.52
239.00 38.57
240.00 37.65
241.00 36.76
242.00 35.90
243.00 35.06
244.00 34.24
245.00 33.45
246.00 32.68
247.00 31.93
248.00 31.20
249.00 30.50
250.00 29.81
251.00 29.15
252.00 28.50
253.00 27.87
254.00 27.26
255.00 26.67
256.00 26.09
257.00 25.53
258.00 24.98
259.00 24.45
260.00 23.93
261.00 23.43
262.00 22.94
263.00 22.46
264.00 21.99
265.00 21.53
266.00 21.09
267.00 20.65
268.00 20.23
269.00 19.81
270.00 19.40
271.00 19.00
272.00 18.61
273.00 18.22
274.00 17.85
275.00 17.47
276.00 17.11
277.00 16.74
278.00 16.39
279.00 16.04
280.00 15.69
281.00 15.35
282.00 15.01
283.00 14.67
284.00 14.34
285.00 14.01
286.00 13.68
287.00 13.36
288.00 13.04
289.00 12.71
290.00 12.40
291.00 12.08
292.00 11.77
293.00 11.46
294.00 11.15
295.00 10.84
296.00 10.54
297.00 10.24
298.00 9.94
299.00 9.64
300.00 9.35
301.00 9.05
302.00 8.76
303.00 8.48
304.00 8.19
305.00 7.91
306.00 7.64
307.00 7.36
308.00 7.09
309.00 6.83
310.00 6.56
311.00 6.30
312.00 6.05
313.00 5.80
314.00 5.55
315.00 5.31
316.00 5.07
317.00 4.84
318.00 4.61
319.00 4.39
320.00 4.17
321.00 3.96
322.00 3.75
323.00 3.55
324.00 3.35
325.00 3.16
326.00 2.97
327.00 2.79
328.00 2.61
329.00 2.44
330.00 2.28
331.00 2.12
332.00 1.96
333.00 1.81
334.00 1.67
335.00 1.54
336.00 1.40
337.00 1.28
338.00 1.16
339.00 1.04
340.00 0.94
341.00 0.83
342.00 0.74
343.00 0.65
344.00 0.56
345.00 0.48
346.00 0.41
347.00 0.34
348.00 0.28
349.00 0.23
350.00 0.18
351.00 0.14
352.00 0.10
353.00 0.07
354.00 0.04
355.00 0.02
356.00 0.01
357.00 0.00
358.00 0.00
359.00 0.00
VERTICAL 360
0.00 4.67
1.00 2.91
2.00 1.62
3.00 0.72
4.00 0.19
5.00 0.00
6.00 0.15
7.00 0.64
8.00 1.48
9.00 2.71
10.00 4.38
11.00 6.59
12.00 9.51
13.00 13.48
14.00 19.32
15.00 28.17
16.00 25.52
17.00 21.84
18.00 21.00
19.00 22.05
20.00 25.01
21.00 30.08
22.00 29.50
23.00 24.47
24.00 21.42
25.00 19.78
26.00 19.11
27.00 19.22
28.00 20.08
29.00 21.78
30.00 24.64
31.00 29.56
32.00 41.03
33.00 36.80
34.00 30.46
35.00 28.39
36.00 28.47
37.00 30.64
38.00 36.81
39.00 44.57
40.00 31.00
41.00 25.77
42.00 22.64
43.00 20.55
44.00 19.12
45.00 18.18
46.00 17.63
47.00 17.44
48.00 17.58
49.00 18.05
50.00 18.86
51.00 20.03
52.00 21.54
53.00 23.40
54.00 25.65
55.00 28.35
56.00 31.74
57.00 36.33
58.00 42.41
59.00 40.74
60.00 35.95
61.00 33.14
62.00 31.63
63.00 31.06
64.00 31.27
65.00 32.21
66.00 33.92
67.00 36.45
68.00 39.54
69.00 41.75
70.00 41.88
71.00 41.76
72.00 42.68
73.00 44.43
74.00 44.29
75.00 40.81
76.00 37.05
77.00 34.02
78.00 31.77
79.00 30.23
80.00 29.30
81.00 28.82
82.00 28.59
83.00 28.40
84.00 28.12
85.00 27.81
86.00 27.53
87.00 27.32
88.00 27.24
89.00 27.32
90.00 27.61
91.00 28.09
92.00 28.70
93.00 29.32
94.00 29.82
95.00 30.12
96.00 30.22
97.00 30.26
98.00 30.45
99.00 30.99
100.00 32.02
101.00 33.60
102.00 35.58
103.00 37.63
104.00 39.19
105.00 39.90
106.00 39.84
107.00 39.46
108.00 39.17
109.00 39.15
110.00 39.25
111.00 39.16
112.00 38.76
113.00 38.24
114.00 37.81
115.00 37.54
116.00 37.43
117.00 37.50
118.00 37.81
119.00 38.35
120.00 38.99
121.00 39.47
122.00 39.41
123.00 38.68
124.00 37.58
125.00 36.51
126.00 35.69
127.00 35.20
128.00 34.98
129.00 34.93
130.00 34.99
131.00 35.13
132.00 35.43
133.00 36.01
134.00 37.04
135.00 38.73
136.00 41.36
137.00 45.43
138.00 52.52
139.00 59.43
140.00 50.24
141.00 45.78
142.00 43.14
143.00 41.51
144.00 40.61
145.00 40.19
146.00 39.87
147.00 39.08
148.00 37.58
149.00 35.73
150.00 34.03
151.00 32.79
152.00 32.14
153.00 32.13
154.00 32.80
155.00 34.21
156.00 36.50
157.00 39.88
158.00 44.74
159.00 49.37
160.00 47.23
161.00 44.43
162.00 43.16
163.00 43.10
164.00 43.97
165.00 44.84
166.00 43.66
167.00 40.69
168.00 37.88
169.00 35.74
170.00 34.21
171.00 33.13
172.00 32.41
173.00 31.94
174.00 31.74
175.00 31.78
176.00 31.95
177.00 32.31
178.00 32.75
179.00 33.22
180.00 33.66
181.00 34.21
182.00 34.98
183.00 36.19
184.00 37.99
185.00 40.48
186.00 43.72
187.00 47.82
188.00 50.60
189.00 46.29
190.00 41.61
191.00 38.48
192.00 36.56
193.00 35.55
194.00 35.21
195.00 35.29
196.00 35.50
197.00 35.61
198.00 35.48
199.00 35.17
200.00 34.88
201.00 34.83
202.00 35.19
203.00 35.98
204.00 37.14
205.00 38.51
206.00 39.91
207.00 41.02
208.00 41.33
209.00 40.68
210.00 39.82
211.00 39.53
212.00 40.20
213.00 42.00
214.00 44.77
215.00 47.02
216.00 46.86
217.00 46.30
218.00 47.17
219.00 50.35
220.00 56.71
221.00 52.31
222.00 46.33
223.00 42.78
224.00 40.36
225.00 38.49
226.00 36.93
227.00 35.58
228.00 34.46
229.00 33.56
230.00 32.91
231.00 32.49
232.00 32.29
233.00 32.31
234.00 32.53
235.00 32.93
236.00 33.49
237.00 34.17
238.00 34.99
239.00 35.98
240.00 37.18
241.00 38.70
242.00 40.78
243.00 43.86
244.00 49.01
245.00 55.21
246.00 49.05
247.00 44.76
248.00 42.67
249.00 41.87
250.00 41.89
251.00 42.31
252.00 42.54
253.00 41.96
254.00 40.53
255.00 38.85
256.00 37.46
257.00 36.70
258.00 36.73
259.00 37.67
260.00 39.71
261.00 43.04
262.00 47.93
263.00 52.67
264.00 50.73
265.00 47.12
266.00 44.64
267.00 43.51
268.00 43.96
269.00 46.32
270.00 49.38
271.00 46.38
272.00 42.39
273.00 40.13
274.00 39.14
275.00 38.95
276.00 39.13
277.00 39.23
278.00 38.98
279.00 38.38
280.00 37.73
281.00 37.39
282.00 37.59
283.00 38.43
284.00 39.90
285.00 41.86
286.00 44.13
287.00 46.34
288.00 47.32
289.00 46.12
290.00 43.86
291.00 41.34
292.00 38.65
293.00 36.10
294.00 34.04
295.00 32.63
296.00 31.86
297.00 31.64
298.00 31.84
299.00 32.24
300.00 32.65
301.00 33.01
302.00 33.54
303.00 34.72
304.00 37.45
305.00 44.71
306.00 43.80
307.00 34.19
308.00 29.27
309.00 26.07
310.00 23.81
311.00 22.16
312.00 20.93
313.00 20.02
314.00 19.38
315.00 19.00
316.00 18.93
317.00 19.21
318.00 19.93
319.00 21.19
320.00 23.13
321.00 25.99
322.00 30.01
323.00 34.16
324.00 33.18
325.00 30.30
326.00 28.54
327.00 27.82
328.00 27.92
329.00 28.78
330.00 30.46
331.00 32.90
332.00 34.36
333.00 32.08
334.00 28.99
335.00 26.91
336.00 25.99
337.00 26.28
338.00 28.05
339.00 31.75
340.00 33.46
341.00 28.13
342.00 24.05
343.00 21.64
344.00 20.45
345.00 20.31
346.00 21.27
347.00 23.69
348.00 28.71
349.00 37.83
350.00 29.13
351.00 24.48
352.00 22.83
353.00 23.53
354.00 28.19
355.00 35.81
356.00 20.64
357.00 14.24
358.00 10.04
359.00 6.99
