NAME ATR4518R7_2535_X_CO_P45_05T_yL
FREQUENCY 2535
GAIN 15.65 dBd
TILT	ELECTRICAL
COMMENT DATE 05.08.2013 +45 degrees polarized system Lever position 05T deg
HORIZONTAL 360
0.00 0.08
1.00 0.06
2.00 0.04
3.00 0.02
4.00 0.01
5.00 0.00
6.00 0.00
7.00 0.01
8.00 0.03
9.00 0.07
10.00 0.11
11.00 0.17
12.00 0.24
13.00 0.32
14.00 0.41
15.00 0.53
16.00 0.66
17.00 0.79
18.00 0.95
19.00 1.12
20.00 1.29
21.00 1.49
22.00 1.68
23.00 1.89
24.00 2.10
25.00 2.32
26.00 2.54
27.00 2.76
28.00 2.97
29.00 3.19
30.00 3.40
31.00 3.61
32.00 3.81
33.00 4.01
34.00 4.20
35.00 4.40
36.00 4.59
37.00 4.78
38.00 4.97
39.00 5.16
40.00 5.36
41.00 5.57
42.00 5.79
43.00 6.01
44.00 6.24
45.00 6.49
46.00 6.74
47.00 7.01
48.00 7.29
49.00 7.58
50.00 7.88
51.00 8.20
52.00 8.51
53.00 8.83
54.00 9.16
55.00 9.49
56.00 9.82
57.00 10.16
58.00 10.49
59.00 10.81
60.00 11.14
61.00 11.45
62.00 11.76
63.00 12.08
64.00 12.38
65.00 12.68
66.00 12.99
67.00 13.28
68.00 13.57
69.00 13.87
70.00 14.14
71.00 14.42
72.00 14.69
73.00 14.95
74.00 15.21
75.00 15.45
76.00 15.68
77.00 15.91
78.00 16.12
79.00 16.32
80.00 16.52
81.00 16.71
82.00 16.88
83.00 17.06
84.00 17.25
85.00 17.43
86.00 17.61
87.00 17.81
88.00 18.03
89.00 18.25
90.00 18.49
91.00 18.76
92.00 19.05
93.00 19.36
94.00 19.69
95.00 20.05
96.00 20.43
97.00 20.83
98.00 21.25
99.00 21.68
100.00 22.12
101.00 22.57
102.00 23.01
103.00 23.45
104.00 23.88
105.00 24.30
106.00 24.70
107.00 25.10
108.00 25.48
109.00 25.86
110.00 26.25
111.00 26.65
112.00 27.07
113.00 27.51
114.00 28.00
115.00 28.51
116.00 29.07
117.00 29.66
118.00 30.31
119.00 31.01
120.00 31.74
121.00 32.49
122.00 33.26
123.00 34.03
124.00 34.78
125.00 35.46
126.00 36.02
127.00 36.46
128.00 36.74
129.00 36.85
130.00 36.82
131.00 36.67
132.00 36.44
133.00 36.15
134.00 35.85
135.00 35.53
136.00 35.22
137.00 34.92
138.00 34.64
139.00 34.38
140.00 34.14
141.00 33.93
142.00 33.74
143.00 33.59
144.00 33.48
145.00 33.41
146.00 33.39
147.00 33.43
148.00 33.54
149.00 33.71
150.00 33.95
151.00 34.28
152.00 34.68
153.00 35.18
154.00 35.75
155.00 36.39
156.00 37.08
157.00 37.78
158.00 38.45
159.00 39.01
160.00 39.40
161.00 39.57
162.00 39.54
163.00 39.37
164.00 39.11
165.00 38.85
166.00 38.64
167.00 38.50
168.00 38.47
169.00 38.55
170.00 38.76
171.00 39.11
172.00 39.60
173.00 40.27
174.00 41.12
175.00 42.20
176.00 43.57
177.00 45.34
178.00 47.72
179.00 51.15
180.00 57.08
181.00 72.35
182.00 57.10
183.00 51.36
184.00 48.09
185.00 45.92
186.00 44.40
187.00 43.35
188.00 42.67
189.00 42.32
190.00 42.28
191.00 42.53
192.00 43.03
193.00 43.67
194.00 44.11
195.00 43.82
196.00 42.51
197.00 40.59
198.00 38.53
199.00 36.61
200.00 34.91
201.00 33.43
202.00 32.15
203.00 31.08
204.00 30.17
205.00 29.43
206.00 28.84
207.00 28.40
208.00 28.10
209.00 27.94
210.00 27.93
211.00 28.05
212.00 28.33
213.00 28.76
214.00 29.36
215.00 30.14
216.00 31.11
217.00 32.25
218.00 33.53
219.00 34.78
220.00 35.69
221.00 35.84
222.00 35.18
223.00 34.05
224.00 32.83
225.00 31.71
226.00 30.77
227.00 30.00
228.00 29.42
229.00 29.00
230.00 28.75
231.00 28.64
232.00 28.67
233.00 28.83
234.00 29.14
235.00 29.56
236.00 30.12
237.00 30.81
238.00 31.61
239.00 32.52
240.00 33.50
241.00 34.48
242.00 35.37
243.00 36.02
244.00 36.31
245.00 36.21
246.00 35.80
247.00 35.19
248.00 34.51
249.00 33.80
250.00 33.10
251.00 32.41
252.00 31.71
253.00 31.00
254.00 30.26
255.00 29.50
256.00 28.72
257.00 27.92
258.00 27.13
259.00 26.36
260.00 25.62
261.00 24.92
262.00 24.27
263.00 23.67
264.00 23.14
265.00 22.66
266.00 22.25
267.00 21.90
268.00 21.61
269.00 21.39
270.00 21.22
271.00 21.10
272.00 21.03
273.00 21.00
274.00 20.99
275.00 21.01
276.00 21.03
277.00 21.03
278.00 21.01
279.00 20.95
280.00 20.83
281.00 20.64
282.00 20.40
283.00 20.10
284.00 19.76
285.00 19.38
286.00 18.99
287.00 18.58
288.00 18.19
289.00 17.79
290.00 17.41
291.00 17.04
292.00 16.68
293.00 16.35
294.00 16.02
295.00 15.70
296.00 15.38
297.00 15.07
298.00 14.76
299.00 14.44
300.00 14.13
301.00 13.80
302.00 13.46
303.00 13.12
304.00 12.78
305.00 12.42
306.00 12.06
307.00 11.69
308.00 11.33
309.00 10.96
310.00 10.58
311.00 10.22
312.00 9.84
313.00 9.46
314.00 9.08
315.00 8.70
316.00 8.31
317.00 7.93
318.00 7.54
319.00 7.18
320.00 6.82
321.00 6.47
322.00 6.12
323.00 5.79
324.00 5.46
325.00 5.13
326.00 4.83
327.00 4.53
328.00 4.25
329.00 3.97
330.00 3.71
331.00 3.46
332.00 3.22
333.00 3.00
334.00 2.78
335.00 2.57
336.00 2.38
337.00 2.19
338.00 2.00
339.00 1.83
340.00 1.67
341.00 1.51
342.00 1.36
343.00 1.22
344.00 1.09
345.00 0.98
346.00 0.86
347.00 0.76
348.00 0.68
349.00 0.59
350.00 0.51
351.00 0.45
352.00 0.39
353.00 0.34
354.00 0.29
355.00 0.25
356.00 0.22
357.00 0.18
358.00 0.14
359.00 0.11
VERTICAL 360
0.00 14.45
1.00 9.18
2.00 5.14
3.00 2.32
4.00 0.63
5.00 0.00
6.00 0.49
7.00 2.31
8.00 6.06
9.00 13.93
10.00 25.33
11.00 13.50
12.00 12.05
13.00 14.62
14.00 21.56
15.00 17.58
16.00 12.87
17.00 11.70
18.00 13.23
19.00 18.24
20.00 29.56
21.00 20.58
22.00 17.61
23.00 18.92
24.00 26.13
25.00 27.91
26.00 18.98
27.00 16.62
28.00 17.34
29.00 20.95
30.00 27.26
31.00 24.44
32.00 20.40
33.00 18.81
34.00 19.06
35.00 21.22
36.00 25.88
37.00 30.49
38.00 27.67
39.00 26.69
40.00 28.27
41.00 29.78
42.00 28.78
43.00 27.02
44.00 25.20
45.00 23.87
46.00 23.62
47.00 24.72
48.00 27.48
49.00 31.73
50.00 31.42
51.00 27.93
52.00 26.50
53.00 27.03
54.00 28.68
55.00 30.11
56.00 30.60
57.00 30.66
58.00 31.48
59.00 34.60
60.00 40.93
61.00 40.31
62.00 37.60
63.00 37.03
64.00 36.81
65.00 36.67
66.00 37.61
67.00 41.44
68.00 51.59
69.00 49.86
70.00 48.54
71.00 46.25
72.00 43.94
73.00 41.88
74.00 39.11
75.00 38.63
76.00 39.16
77.00 38.05
78.00 38.61
79.00 43.03
80.00 48.63
81.00 51.17
82.00 56.83
83.00 57.64
84.00 46.08
85.00 38.83
86.00 36.39
87.00 35.37
88.00 34.08
89.00 34.98
90.00 39.69
91.00 36.98
92.00 34.03
93.00 36.15
94.00 46.04
95.00 45.51
96.00 42.33
97.00 45.38
98.00 47.73
99.00 41.67
100.00 37.06
101.00 35.46
102.00 36.35
103.00 38.57
104.00 39.86
105.00 39.15
106.00 37.16
107.00 35.52
108.00 34.97
109.00 35.05
110.00 34.79
111.00 33.61
112.00 32.02
113.00 30.87
114.00 30.56
115.00 30.91
116.00 31.36
117.00 31.31
118.00 30.74
119.00 29.99
120.00 29.41
121.00 29.33
122.00 30.03
123.00 31.48
124.00 33.41
125.00 36.25
126.00 41.62
127.00 45.52
128.00 40.40
129.00 38.33
130.00 37.30
131.00 35.73
132.00 34.58
133.00 34.55
134.00 35.17
135.00 35.74
136.00 36.57
137.00 37.76
138.00 36.85
139.00 34.26
140.00 32.65
141.00 32.29
142.00 32.79
143.00 33.73
144.00 34.74
145.00 36.09
146.00 38.70
147.00 41.35
148.00 39.33
149.00 36.71
150.00 35.12
151.00 34.58
152.00 35.19
153.00 36.07
154.00 35.60
155.00 33.95
156.00 32.72
157.00 32.98
158.00 34.91
159.00 37.41
160.00 39.10
161.00 40.93
162.00 41.62
163.00 40.51
164.00 40.06
165.00 39.92
166.00 39.71
167.00 40.39
168.00 42.66
169.00 46.26
170.00 47.01
171.00 43.60
172.00 42.29
173.00 44.93
174.00 52.98
175.00 45.10
176.00 42.41
177.00 42.57
178.00 41.60
179.00 38.07
180.00 34.51
181.00 32.80
182.00 33.36
183.00 35.36
184.00 36.66
185.00 36.15
186.00 35.39
187.00 35.87
188.00 38.10
189.00 38.93
190.00 37.57
191.00 38.20
192.00 41.22
193.00 45.06
194.00 47.73
195.00 47.81
196.00 43.82
197.00 40.41
198.00 39.72
199.00 41.90
200.00 44.71
201.00 43.60
202.00 41.29
203.00 40.53
204.00 44.80
205.00 48.54
206.00 38.12
207.00 35.12
208.00 34.79
209.00 35.85
210.00 39.06
211.00 47.10
212.00 44.01
213.00 40.82
214.00 40.99
215.00 40.55
216.00 39.81
217.00 39.81
218.00 40.54
219.00 43.83
220.00 45.17
221.00 38.06
222.00 34.23
223.00 32.54
224.00 31.88
225.00 31.59
226.00 31.75
227.00 32.96
228.00 35.70
229.00 40.01
230.00 44.79
231.00 46.28
232.00 43.74
233.00 41.65
234.00 41.17
235.00 41.63
236.00 41.67
237.00 41.49
238.00 42.56
239.00 45.26
240.00 48.53
241.00 50.35
242.00 48.91
243.00 46.88
244.00 45.96
245.00 44.78
246.00 42.35
247.00 39.36
248.00 36.56
249.00 34.53
250.00 33.71
251.00 34.51
252.00 37.23
253.00 41.45
254.00 42.60
255.00 40.81
256.00 40.45
257.00 42.09
258.00 44.58
259.00 45.14
260.00 44.91
261.00 43.74
262.00 41.29
263.00 39.02
264.00 36.72
265.00 34.31
266.00 32.69
267.00 32.77
268.00 35.05
269.00 37.06
270.00 33.47
271.00 29.76
272.00 27.34
273.00 26.16
274.00 26.26
275.00 27.48
276.00 29.55
277.00 32.30
278.00 34.89
279.00 35.25
280.00 34.17
281.00 33.03
282.00 32.29
283.00 32.24
284.00 32.54
285.00 32.70
286.00 32.95
287.00 34.05
288.00 36.41
289.00 36.32
290.00 31.64
291.00 27.71
292.00 24.95
293.00 22.84
294.00 20.93
295.00 18.99
296.00 17.04
297.00 15.22
298.00 13.68
299.00 12.47
300.00 11.64
301.00 11.18
302.00 11.10
303.00 11.39
304.00 12.09
305.00 13.31
306.00 15.28
307.00 18.34
308.00 22.63
309.00 24.72
310.00 21.86
311.00 19.66
312.00 19.15
313.00 20.46
314.00 24.53
315.00 39.87
316.00 26.29
317.00 19.68
318.00 16.72
319.00 15.76
320.00 16.65
321.00 19.98
322.00 29.00
323.00 29.75
324.00 21.79
325.00 19.87
326.00 21.38
327.00 28.87
328.00 29.77
329.00 20.28
330.00 17.14
331.00 16.47
332.00 17.56
333.00 20.53
334.00 26.86
335.00 35.74
336.00 26.80
337.00 25.07
338.00 27.13
339.00 25.66
340.00 20.94
341.00 18.88
342.00 19.59
343.00 23.99
344.00 32.73
345.00 22.42
346.00 18.41
347.00 17.82
348.00 20.27
349.00 28.35
350.00 33.06
351.00 24.65
352.00 24.73
353.00 30.10
354.00 26.80
355.00 21.11
356.00 18.88
357.00 18.71
358.00 19.77
359.00 19.31
