NAME ATR4518R7_0880_X_CO_M45_08T
FREQUENCY 0880
GAIN 14.92 dBd
TILT	ELECTRICAL
COMMENT DATE 05.08.2013 -45 degrees polarized system Lever position 08T deg
HORIZONTAL 360
0.00 0.00
1.00 0.00
2.00 0.00
3.00 0.01
4.00 0.03
5.00 0.05
6.00 0.08
7.00 0.12
8.00 0.16
9.00 0.21
10.00 0.27
11.00 0.33
12.00 0.40
13.00 0.48
14.00 0.56
15.00 0.66
16.00 0.75
17.00 0.86
18.00 0.97
19.00 1.09
20.00 1.21
21.00 1.34
22.00 1.48
23.00 1.63
24.00 1.78
25.00 1.94
26.00 2.11
27.00 2.28
28.00 2.46
29.00 2.65
30.00 2.84
31.00 3.04
32.00 3.25
33.00 3.47
34.00 3.69
35.00 3.92
36.00 4.15
37.00 4.40
38.00 4.65
39.00 4.90
40.00 5.17
41.00 5.44
42.00 5.71
43.00 6.00
44.00 6.29
45.00 6.58
46.00 6.89
47.00 7.20
48.00 7.52
49.00 7.84
50.00 8.17
51.00 8.51
52.00 8.85
53.00 9.20
54.00 9.55
55.00 9.92
56.00 10.29
57.00 10.66
58.00 11.04
59.00 11.43
60.00 11.83
61.00 12.23
62.00 12.63
63.00 13.05
64.00 13.47
65.00 13.89
66.00 14.32
67.00 14.76
68.00 15.20
69.00 15.65
70.00 16.11
71.00 16.57
72.00 17.04
73.00 17.51
74.00 17.99
75.00 18.47
76.00 18.95
77.00 19.44
78.00 19.94
79.00 20.44
80.00 20.93
81.00 21.44
82.00 21.94
83.00 22.44
84.00 22.94
85.00 23.44
86.00 23.93
87.00 24.42
88.00 24.90
89.00 25.37
90.00 25.83
91.00 26.28
92.00 26.72
93.00 27.15
94.00 27.55
95.00 27.94
96.00 28.32
97.00 28.67
98.00 29.01
99.00 29.33
100.00 29.64
101.00 29.92
102.00 30.20
103.00 30.46
104.00 30.71
105.00 30.95
106.00 31.18
107.00 31.40
108.00 31.62
109.00 31.84
110.00 32.05
111.00 32.25
112.00 32.45
113.00 32.66
114.00 32.86
115.00 33.06
116.00 33.26
117.00 33.46
118.00 33.66
119.00 33.86
120.00 34.06
121.00 34.26
122.00 34.45
123.00 34.65
124.00 34.85
125.00 35.05
126.00 35.24
127.00 35.43
128.00 35.63
129.00 35.82
130.00 36.01
131.00 36.21
132.00 36.40
133.00 36.60
134.00 36.80
135.00 37.00
136.00 37.21
137.00 37.42
138.00 37.64
139.00 37.87
140.00 38.11
141.00 38.35
142.00 38.61
143.00 38.88
144.00 39.17
145.00 39.47
146.00 39.78
147.00 40.13
148.00 40.49
149.00 40.86
150.00 41.27
151.00 41.71
152.00 42.17
153.00 42.65
154.00 43.18
155.00 43.73
156.00 44.32
157.00 44.94
158.00 45.60
159.00 46.28
160.00 46.99
161.00 47.68
162.00 48.33
163.00 48.95
164.00 49.44
165.00 49.80
166.00 49.98
167.00 49.89
168.00 49.70
169.00 49.32
170.00 48.83
171.00 48.31
172.00 47.78
173.00 47.23
174.00 46.71
175.00 46.21
176.00 45.76
177.00 45.34
178.00 44.97
179.00 44.63
180.00 44.35
181.00 44.09
182.00 43.87
183.00 43.69
184.00 43.54
185.00 43.42
186.00 43.34
187.00 43.29
188.00 43.26
189.00 43.28
190.00 43.33
191.00 43.40
192.00 43.52
193.00 43.65
194.00 43.83
195.00 44.03
196.00 44.27
197.00 44.54
198.00 44.85
199.00 45.19
200.00 45.57
201.00 45.97
202.00 46.43
203.00 46.90
204.00 47.39
205.00 47.90
206.00 48.41
207.00 48.88
208.00 49.25
209.00 49.57
210.00 49.65
211.00 49.56
212.00 49.26
213.00 48.80
214.00 48.18
215.00 47.47
216.00 46.70
217.00 45.93
218.00 45.14
219.00 44.38
220.00 43.65
221.00 42.95
222.00 42.28
223.00 41.64
224.00 41.04
225.00 40.47
226.00 39.93
227.00 39.43
228.00 38.95
229.00 38.51
230.00 38.08
231.00 37.68
232.00 37.31
233.00 36.97
234.00 36.63
235.00 36.33
236.00 36.03
237.00 35.76
238.00 35.50
239.00 35.24
240.00 35.00
241.00 34.77
242.00 34.53
243.00 34.30
244.00 34.06
245.00 33.80
246.00 33.54
247.00 33.26
248.00 32.95
249.00 32.62
250.00 32.26
251.00 31.88
252.00 31.47
253.00 31.02
254.00 30.56
255.00 30.07
256.00 29.56
257.00 29.03
258.00 28.48
259.00 27.93
260.00 27.37
261.00 26.81
262.00 26.24
263.00 25.68
264.00 25.11
265.00 24.56
266.00 24.01
267.00 23.46
268.00 22.93
269.00 22.40
270.00 21.88
271.00 21.37
272.00 20.87
273.00 20.38
274.00 19.90
275.00 19.43
276.00 18.97
277.00 18.52
278.00 18.08
279.00 17.65
280.00 17.22
281.00 16.80
282.00 16.40
283.00 16.00
284.00 15.60
285.00 15.22
286.00 14.84
287.00 14.47
288.00 14.11
289.00 13.75
290.00 13.40
291.00 13.05
292.00 12.71
293.00 12.37
294.00 12.04
295.00 11.72
296.00 11.40
297.00 11.08
298.00 10.77
299.00 10.47
300.00 10.16
301.00 9.86
302.00 9.57
303.00 9.28
304.00 8.99
305.00 8.71
306.00 8.43
307.00 8.16
308.00 7.89
309.00 7.62
310.00 7.36
311.00 7.10
312.00 6.84
313.00 6.59
314.00 6.34
315.00 6.09
316.00 5.85
317.00 5.61
318.00 5.38
319.00 5.15
320.00 4.93
321.00 4.70
322.00 4.49
323.00 4.27
324.00 4.07
325.00 3.86
326.00 3.66
327.00 3.46
328.00 3.27
329.00 3.09
330.00 2.91
331.00 2.73
332.00 2.56
333.00 2.39
334.00 2.23
335.00 2.07
336.00 1.92
337.00 1.77
338.00 1.63
339.00 1.50
340.00 1.37
341.00 1.24
342.00 1.12
343.00 1.01
344.00 0.90
345.00 0.80
346.00 0.71
347.00 0.62
348.00 0.53
349.00 0.45
350.00 0.38
351.00 0.32
352.00 0.26
353.00 0.20
354.00 0.15
355.00 0.11
356.00 0.08
357.00 0.05
358.00 0.03
359.00 0.01
VERTICAL 360
0.00 13.45
1.00 9.56
2.00 6.60
3.00 4.34
4.00 2.63
5.00 1.38
6.00 0.55
7.00 0.10
8.00 0.00
9.00 0.25
10.00 0.85
11.00 1.83
12.00 3.24
13.00 5.16
14.00 7.72
15.00 11.17
16.00 16.08
17.00 24.53
18.00 36.51
19.00 24.05
20.00 21.16
21.00 20.80
22.00 22.24
23.00 25.97
24.00 34.86
25.00 31.96
26.00 25.13
27.00 22.19
28.00 20.95
29.00 20.78
30.00 21.38
31.00 22.61
32.00 24.39
33.00 26.51
34.00 28.23
35.00 28.58
36.00 28.07
37.00 27.95
38.00 28.77
39.00 30.44
40.00 31.56
41.00 30.32
42.00 28.08
43.00 26.08
44.00 24.41
45.00 23.02
46.00 21.99
47.00 21.47
48.00 21.58
49.00 22.38
50.00 23.91
51.00 26.12
52.00 28.95
53.00 32.44
54.00 36.98
55.00 40.03
56.00 35.30
57.00 31.01
58.00 28.44
59.00 27.20
60.00 27.04
61.00 27.73
62.00 28.76
63.00 29.34
64.00 29.05
65.00 28.43
66.00 28.11
67.00 28.40
68.00 29.26
69.00 30.19
70.00 30.45
71.00 30.11
72.00 30.03
73.00 30.80
74.00 32.68
75.00 35.11
76.00 34.95
77.00 32.14
78.00 29.79
79.00 28.53
80.00 28.37
81.00 29.24
82.00 30.31
83.00 29.84
84.00 28.36
85.00 26.85
86.00 26.02
87.00 26.09
88.00 26.74
89.00 27.32
90.00 27.57
91.00 27.24
92.00 26.29
93.00 25.58
94.00 25.62
95.00 26.40
96.00 27.77
97.00 29.50
98.00 31.11
99.00 31.85
100.00 31.65
101.00 31.31
102.00 31.27
103.00 31.57
104.00 32.32
105.00 33.83
106.00 36.25
107.00 38.84
108.00 39.28
109.00 37.48
110.00 35.46
111.00 34.03
112.00 33.39
113.00 33.48
114.00 34.10
115.00 34.84
116.00 35.28
117.00 35.28
118.00 35.22
119.00 35.55
120.00 36.48
121.00 37.90
122.00 39.38
123.00 40.34
124.00 40.66
125.00 40.80
126.00 41.04
127.00 40.97
128.00 40.19
129.00 39.27
130.00 38.93
131.00 39.41
132.00 40.58
133.00 42.01
134.00 42.81
135.00 42.21
136.00 40.50
137.00 38.46
138.00 36.55
139.00 35.07
140.00 34.14
141.00 33.82
142.00 34.09
143.00 34.80
144.00 35.45
145.00 35.34
146.00 34.52
147.00 33.70
148.00 33.31
149.00 33.31
150.00 33.46
151.00 33.51
152.00 33.41
153.00 33.33
154.00 33.55
155.00 34.23
156.00 35.43
157.00 36.99
158.00 38.45
159.00 38.96
160.00 38.14
161.00 36.67
162.00 35.37
163.00 34.69
164.00 34.85
165.00 36.04
166.00 38.41
167.00 42.18
168.00 47.80
169.00 56.91
170.00 54.03
171.00 47.38
172.00 44.09
173.00 43.20
174.00 43.33
175.00 42.99
176.00 41.16
177.00 39.00
178.00 37.57
179.00 37.18
180.00 37.58
181.00 38.76
182.00 40.13
183.00 40.37
184.00 38.70
185.00 36.34
186.00 34.34
187.00 32.97
188.00 32.18
189.00 31.82
190.00 31.62
191.00 31.37
192.00 31.04
193.00 30.81
194.00 30.86
195.00 31.26
196.00 31.94
197.00 32.83
198.00 33.93
199.00 35.32
200.00 36.95
201.00 38.12
202.00 37.72
203.00 36.28
204.00 35.04
205.00 34.39
206.00 34.34
207.00 34.81
208.00 35.74
209.00 37.03
210.00 38.59
211.00 40.58
212.00 43.74
213.00 50.13
214.00 60.84
215.00 48.16
216.00 43.85
217.00 41.60
218.00 39.95
219.00 38.33
220.00 36.76
221.00 35.59
222.00 35.04
223.00 35.14
224.00 35.70
225.00 36.40
226.00 36.97
227.00 37.43
228.00 37.97
229.00 38.81
230.00 40.04
231.00 41.43
232.00 42.37
233.00 42.88
234.00 43.58
235.00 44.21
236.00 43.39
237.00 41.78
238.00 40.91
239.00 41.13
240.00 41.99
241.00 42.77
242.00 43.36
243.00 44.07
244.00 44.21
245.00 43.23
246.00 42.23
247.00 41.61
248.00 40.85
249.00 39.99
250.00 39.67
251.00 39.97
252.00 39.95
253.00 38.82
254.00 37.19
255.00 35.78
256.00 34.91
257.00 34.78
258.00 35.38
259.00 36.20
260.00 36.29
261.00 35.53
262.00 34.54
263.00 33.72
264.00 33.38
265.00 33.91
266.00 35.56
267.00 38.22
268.00 40.53
269.00 40.54
270.00 39.06
271.00 37.50
272.00 36.73
273.00 37.28
274.00 39.25
275.00 41.51
276.00 41.48
277.00 39.87
278.00 38.11
279.00 36.61
280.00 35.95
281.00 36.56
282.00 38.59
283.00 41.83
284.00 44.92
285.00 45.08
286.00 42.32
287.00 39.34
288.00 37.34
289.00 36.34
290.00 35.98
291.00 35.81
292.00 35.65
293.00 35.75
294.00 36.45
295.00 37.94
296.00 40.14
297.00 42.53
298.00 44.18
299.00 44.81
300.00 45.47
301.00 46.31
302.00 43.51
303.00 38.64
304.00 35.09
305.00 32.96
306.00 31.97
307.00 31.85
308.00 32.53
309.00 34.06
310.00 36.74
311.00 40.95
312.00 43.69
313.00 38.68
314.00 33.65
315.00 29.80
316.00 26.81
317.00 24.52
318.00 22.83
319.00 21.70
320.00 21.13
321.00 21.10
322.00 21.60
323.00 22.61
324.00 24.15
325.00 26.40
326.00 29.93
327.00 36.88
328.00 42.48
329.00 31.61
330.00 27.09
331.00 24.72
332.00 23.61
333.00 23.50
334.00 24.30
335.00 26.13
336.00 29.42
337.00 35.85
338.00 49.20
339.00 35.05
340.00 30.99
341.00 29.95
342.00 31.06
343.00 33.58
344.00 31.72
345.00 26.90
346.00 23.51
347.00 21.52
348.00 20.61
349.00 20.68
350.00 21.70
351.00 23.64
352.00 25.99
353.00 26.95
354.00 26.01
355.00 25.41
356.00 26.70
357.00 31.37
358.00 27.10
359.00 18.83
