NAME ATR4518R7_2140_X_CO_M45_04T_yL
FREQUENCY 2140
GAIN 16.05 dBd
TILT	ELECTRICAL
COMMENT DATE 05.08.2013 -45 degrees polarized system Lever position 04T deg
HORIZONTAL 360
0.00 0.06
1.00 0.08
2.00 0.11
3.00 0.15
4.00 0.19
5.00 0.24
6.00 0.29
7.00 0.35
8.00 0.41
9.00 0.48
10.00 0.56
11.00 0.65
12.00 0.74
13.00 0.84
14.00 0.95
15.00 1.07
16.00 1.20
17.00 1.33
18.00 1.48
19.00 1.63
20.00 1.79
21.00 1.96
22.00 2.14
23.00 2.33
24.00 2.52
25.00 2.72
26.00 2.92
27.00 3.13
28.00 3.35
29.00 3.57
30.00 3.79
31.00 4.02
32.00 4.24
33.00 4.48
34.00 4.71
35.00 4.94
36.00 5.18
37.00 5.42
38.00 5.66
39.00 5.90
40.00 6.14
41.00 6.38
42.00 6.62
43.00 6.87
44.00 7.11
45.00 7.36
46.00 7.61
47.00 7.85
48.00 8.10
49.00 8.35
50.00 8.60
51.00 8.85
52.00 9.11
53.00 9.36
54.00 9.62
55.00 9.88
56.00 10.14
57.00 10.41
58.00 10.68
59.00 10.96
60.00 11.24
61.00 11.52
62.00 11.82
63.00 12.12
64.00 12.43
65.00 12.75
66.00 13.09
67.00 13.43
68.00 13.79
69.00 14.15
70.00 14.54
71.00 14.93
72.00 15.34
73.00 15.76
74.00 16.19
75.00 16.63
76.00 17.09
77.00 17.56
78.00 18.03
79.00 18.51
80.00 18.99
81.00 19.48
82.00 19.96
83.00 20.45
84.00 20.93
85.00 21.40
86.00 21.87
87.00 22.33
88.00 22.78
89.00 23.23
90.00 23.68
91.00 24.15
92.00 24.62
93.00 25.12
94.00 25.65
95.00 26.21
96.00 26.84
97.00 27.52
98.00 28.29
99.00 29.16
100.00 30.14
101.00 31.27
102.00 32.59
103.00 34.14
104.00 36.00
105.00 38.32
106.00 41.31
107.00 45.38
108.00 50.51
109.00 50.20
110.00 45.88
111.00 42.78
112.00 40.73
113.00 39.34
114.00 38.41
115.00 37.84
116.00 37.56
117.00 37.55
118.00 37.78
119.00 38.26
120.00 39.00
121.00 40.01
122.00 41.29
123.00 42.81
124.00 44.36
125.00 45.37
126.00 45.11
127.00 43.78
128.00 42.09
129.00 40.51
130.00 39.16
131.00 38.03
132.00 37.12
133.00 36.38
134.00 35.79
135.00 35.31
136.00 34.92
137.00 34.59
138.00 34.30
139.00 34.03
140.00 33.76
141.00 33.49
142.00 33.22
143.00 32.94
144.00 32.67
145.00 32.42
146.00 32.21
147.00 32.05
148.00 31.95
149.00 31.93
150.00 31.99
151.00 32.14
152.00 32.40
153.00 32.75
154.00 33.21
155.00 33.75
156.00 34.35
157.00 34.96
158.00 35.48
159.00 35.79
160.00 35.80
161.00 35.48
162.00 34.89
163.00 34.16
164.00 33.39
165.00 32.67
166.00 32.03
167.00 31.50
168.00 31.10
169.00 30.82
170.00 30.68
171.00 30.66
172.00 30.78
173.00 31.03
174.00 31.42
175.00 31.96
176.00 32.64
177.00 33.45
178.00 34.35
179.00 35.29
180.00 36.11
181.00 36.62
182.00 36.65
183.00 36.21
184.00 35.45
185.00 34.59
186.00 33.76
187.00 33.03
188.00 32.44
189.00 32.00
190.00 31.72
191.00 31.58
192.00 31.60
193.00 31.78
194.00 32.13
195.00 32.65
196.00 33.38
197.00 34.34
198.00 35.59
199.00 37.20
200.00 39.32
201.00 42.15
202.00 45.96
203.00 49.16
204.00 46.76
205.00 42.98
206.00 40.15
207.00 38.08
208.00 36.53
209.00 35.36
210.00 34.48
211.00 33.84
212.00 33.39
213.00 33.12
214.00 33.01
215.00 33.05
216.00 33.25
217.00 33.61
218.00 34.14
219.00 34.87
220.00 35.84
221.00 37.10
222.00 38.77
223.00 41.06
224.00 44.47
225.00 50.61
226.00 72.74
227.00 49.20
228.00 43.39
229.00 39.94
230.00 37.49
231.00 35.63
232.00 34.15
233.00 32.96
234.00 31.98
235.00 31.17
236.00 30.52
237.00 30.00
238.00 29.60
239.00 29.31
240.00 29.11
241.00 29.01
242.00 29.00
243.00 29.05
244.00 29.18
245.00 29.34
246.00 29.53
247.00 29.72
248.00 29.87
249.00 29.94
250.00 29.91
251.00 29.74
252.00 29.44
253.00 29.03
254.00 28.53
255.00 27.99
256.00 27.43
257.00 26.88
258.00 26.35
259.00 25.85
260.00 25.39
261.00 24.96
262.00 24.57
263.00 24.20
264.00 23.86
265.00 23.53
266.00 23.21
267.00 22.89
268.00 22.56
269.00 22.22
270.00 21.86
271.00 21.48
272.00 21.08
273.00 20.67
274.00 20.24
275.00 19.80
276.00 19.35
277.00 18.90
278.00 18.45
279.00 18.01
280.00 17.58
281.00 17.16
282.00 16.75
283.00 16.35
284.00 15.97
285.00 15.60
286.00 15.25
287.00 14.90
288.00 14.58
289.00 14.25
290.00 13.94
291.00 13.64
292.00 13.33
293.00 13.04
294.00 12.74
295.00 12.45
296.00 12.15
297.00 11.85
298.00 11.55
299.00 11.25
300.00 10.94
301.00 10.63
302.00 10.32
303.00 10.01
304.00 9.70
305.00 9.39
306.00 9.07
307.00 8.76
308.00 8.45
309.00 8.15
310.00 7.85
311.00 7.54
312.00 7.25
313.00 6.95
314.00 6.66
315.00 6.37
316.00 6.09
317.00 5.81
318.00 5.53
319.00 5.25
320.00 4.98
321.00 4.71
322.00 4.44
323.00 4.18
324.00 3.92
325.00 3.67
326.00 3.42
327.00 3.18
328.00 2.95
329.00 2.72
330.00 2.51
331.00 2.30
332.00 2.10
333.00 1.91
334.00 1.72
335.00 1.55
336.00 1.39
337.00 1.24
338.00 1.09
339.00 0.96
340.00 0.84
341.00 0.72
342.00 0.62
343.00 0.52
344.00 0.44
345.00 0.36
346.00 0.29
347.00 0.23
348.00 0.18
349.00 0.13
350.00 0.09
351.00 0.06
352.00 0.04
353.00 0.02
354.00 0.01
355.00 0.00
356.00 0.00
357.00 0.01
358.00 0.02
359.00 0.04
VERTICAL 360
0.00 7.57
1.00 4.12
2.00 1.82
3.00 0.48
4.00 0.00
5.00 0.41
6.00 1.78
7.00 4.33
8.00 8.63
9.00 16.73
10.00 22.49
11.00 14.90
12.00 13.25
13.00 14.58
14.00 18.26
15.00 20.50
16.00 17.95
17.00 16.47
18.00 16.81
19.00 18.80
20.00 22.98
21.00 28.19
22.00 22.83
23.00 19.08
24.00 18.20
25.00 19.76
26.00 23.43
27.00 23.80
28.00 20.20
29.00 18.23
30.00 17.87
31.00 18.66
32.00 20.39
33.00 23.23
34.00 27.79
35.00 31.71
36.00 28.62
37.00 26.21
38.00 25.38
39.00 24.88
40.00 24.12
41.00 23.63
42.00 24.02
43.00 25.50
44.00 27.91
45.00 30.62
46.00 32.78
47.00 34.27
48.00 34.49
49.00 32.65
50.00 30.22
51.00 28.30
52.00 27.09
53.00 26.65
54.00 27.16
55.00 28.91
56.00 32.51
57.00 39.78
58.00 45.91
59.00 37.66
60.00 34.36
61.00 32.57
62.00 31.36
63.00 30.57
64.00 30.25
65.00 30.43
66.00 31.11
67.00 32.21
68.00 33.60
69.00 35.12
70.00 36.77
71.00 38.67
72.00 40.97
73.00 43.41
74.00 45.20
75.00 46.20
76.00 46.98
77.00 47.84
78.00 48.34
79.00 46.89
80.00 44.92
81.00 44.80
82.00 47.79
83.00 55.62
84.00 52.08
85.00 49.35
86.00 52.73
87.00 59.16
88.00 49.26
89.00 46.02
90.00 45.76
91.00 46.94
92.00 48.07
93.00 47.82
94.00 46.37
95.00 44.77
96.00 43.57
97.00 42.90
98.00 42.70
99.00 42.62
100.00 42.25
101.00 42.00
102.00 42.71
103.00 44.84
104.00 47.97
105.00 49.59
106.00 49.37
107.00 50.49
108.00 54.27
109.00 55.35
110.00 52.15
111.00 52.51
112.00 58.31
113.00 66.39
114.00 60.40
115.00 66.15
116.00 56.38
117.00 50.75
118.00 48.89
119.00 48.11
120.00 47.02
121.00 46.44
122.00 47.15
123.00 48.66
124.00 49.37
125.00 49.64
126.00 52.22
127.00 60.70
128.00 50.95
129.00 45.01
130.00 42.42
131.00 41.61
132.00 41.85
133.00 42.54
134.00 43.22
135.00 43.88
136.00 45.05
137.00 47.86
138.00 53.90
139.00 48.64
140.00 42.03
141.00 38.24
142.00 35.91
143.00 34.56
144.00 34.07
145.00 34.46
146.00 35.70
147.00 37.58
148.00 39.57
149.00 40.00
150.00 38.44
151.00 37.42
152.00 38.40
153.00 42.08
154.00 46.42
155.00 43.96
156.00 42.68
157.00 43.63
158.00 44.51
159.00 42.97
160.00 39.82
161.00 37.36
162.00 36.67
163.00 37.99
164.00 40.23
165.00 40.18
166.00 39.56
167.00 41.00
168.00 43.65
169.00 43.91
170.00 44.98
171.00 52.09
172.00 43.52
173.00 37.09
174.00 34.17
175.00 32.93
176.00 32.28
177.00 31.55
178.00 31.15
179.00 31.97
180.00 34.89
181.00 40.31
182.00 39.00
183.00 35.25
184.00 34.26
185.00 35.16
186.00 36.82
187.00 37.55
188.00 37.61
189.00 38.73
190.00 42.05
191.00 49.33
192.00 60.48
193.00 50.14
194.00 46.36
195.00 44.79
196.00 45.64
197.00 49.30
198.00 49.38
199.00 45.17
200.00 43.50
201.00 43.99
202.00 45.47
203.00 45.55
204.00 44.78
205.00 45.91
206.00 50.69
207.00 58.84
208.00 57.53
209.00 51.49
210.00 43.22
211.00 38.96
212.00 37.54
213.00 38.26
214.00 39.44
215.00 37.72
216.00 35.05
217.00 33.62
218.00 33.62
219.00 34.92
220.00 37.36
221.00 40.96
222.00 47.05
223.00 59.09
224.00 48.11
225.00 44.64
226.00 43.12
227.00 41.34
228.00 40.15
229.00 40.74
230.00 43.20
231.00 42.14
232.00 37.41
233.00 34.50
234.00 33.59
235.00 34.47
236.00 36.87
237.00 39.48
238.00 39.98
239.00 39.32
240.00 38.95
241.00 39.08
242.00 40.03
243.00 42.35
244.00 46.63
245.00 50.61
246.00 47.43
247.00 44.40
248.00 42.53
249.00 41.59
250.00 42.15
251.00 45.10
252.00 47.52
253.00 42.19
254.00 38.22
255.00 35.99
256.00 34.37
257.00 32.62
258.00 30.82
259.00 29.43
260.00 28.56
261.00 27.98
262.00 27.31
263.00 26.35
264.00 25.27
265.00 24.35
266.00 23.76
267.00 23.50
268.00 23.41
269.00 23.32
270.00 23.20
271.00 23.12
272.00 23.14
273.00 23.28
274.00 23.55
275.00 23.96
276.00 24.56
277.00 25.48
278.00 26.83
279.00 28.59
280.00 30.57
281.00 32.49
282.00 34.07
283.00 35.25
284.00 36.22
285.00 37.19
286.00 37.85
287.00 36.84
288.00 33.87
289.00 30.95
290.00 29.01
291.00 28.07
292.00 27.91
293.00 28.35
294.00 29.43
295.00 31.42
296.00 34.94
297.00 39.59
298.00 38.33
299.00 35.51
300.00 34.82
301.00 34.66
302.00 32.46
303.00 29.56
304.00 27.72
305.00 27.17
306.00 27.68
307.00 28.98
308.00 31.37
309.00 37.37
310.00 43.21
311.00 31.17
312.00 27.18
313.00 26.22
314.00 27.56
315.00 30.32
316.00 29.72
317.00 26.47
318.00 24.03
319.00 21.94
320.00 19.96
321.00 18.59
322.00 18.35
323.00 19.52
324.00 22.18
325.00 24.94
326.00 23.86
327.00 21.60
328.00 20.49
329.00 20.46
330.00 21.02
331.00 21.45
332.00 21.17
333.00 20.57
334.00 20.53
335.00 21.79
336.00 25.11
337.00 29.05
338.00 24.96
339.00 21.24
340.00 19.80
341.00 20.27
342.00 23.02
343.00 30.95
344.00 31.17
345.00 22.75
346.00 20.14
347.00 20.65
348.00 24.89
349.00 34.36
350.00 23.47
351.00 18.92
352.00 17.29
353.00 17.38
354.00 18.64
355.00 20.32
356.00 22.36
357.00 26.56
358.00 20.76
359.00 12.70
