NAME ATR4518R7_0806_X_CO_M45_00T
FREQUENCY 0806
GAIN 14.11 dBd
TILT	ELECTRICAL
COMMENT DATE 05.08.2013 -45 degrees polarized system Lever position 00T deg
HORIZONTAL 360
0.00 0.01
1.00 0.01
2.00 0.03
3.00 0.05
4.00 0.08
5.00 0.11
6.00 0.15
7.00 0.20
8.00 0.25
9.00 0.31
10.00 0.37
11.00 0.44
12.00 0.51
13.00 0.59
14.00 0.67
15.00 0.77
16.00 0.86
17.00 0.96
18.00 1.07
19.00 1.19
20.00 1.31
21.00 1.43
22.00 1.57
23.00 1.70
24.00 1.85
25.00 2.00
26.00 2.15
27.00 2.32
28.00 2.48
29.00 2.65
30.00 2.83
31.00 3.02
32.00 3.21
33.00 3.40
34.00 3.60
35.00 3.81
36.00 4.03
37.00 4.24
38.00 4.47
39.00 4.70
40.00 4.93
41.00 5.17
42.00 5.42
43.00 5.67
44.00 5.93
45.00 6.19
46.00 6.46
47.00 6.73
48.00 7.01
49.00 7.29
50.00 7.58
51.00 7.88
52.00 8.18
53.00 8.48
54.00 8.79
55.00 9.10
56.00 9.41
57.00 9.73
58.00 10.06
59.00 10.39
60.00 10.72
61.00 11.06
62.00 11.39
63.00 11.73
64.00 12.08
65.00 12.43
66.00 12.78
67.00 13.13
68.00 13.48
69.00 13.84
70.00 14.19
71.00 14.55
72.00 14.91
73.00 15.26
74.00 15.62
75.00 15.97
76.00 16.33
77.00 16.68
78.00 17.02
79.00 17.36
80.00 17.70
81.00 18.03
82.00 18.36
83.00 18.68
84.00 18.99
85.00 19.30
86.00 19.60
87.00 19.88
88.00 20.16
89.00 20.43
90.00 20.69
91.00 20.94
92.00 21.18
93.00 21.41
94.00 21.63
95.00 21.85
96.00 22.05
97.00 22.25
98.00 22.44
99.00 22.62
100.00 22.80
101.00 22.98
102.00 23.15
103.00 23.33
104.00 23.50
105.00 23.67
106.00 23.84
107.00 24.01
108.00 24.19
109.00 24.37
110.00 24.56
111.00 24.75
112.00 24.95
113.00 25.16
114.00 25.38
115.00 25.60
116.00 25.84
117.00 26.09
118.00 26.34
119.00 26.61
120.00 26.89
121.00 27.19
122.00 27.50
123.00 27.82
124.00 28.16
125.00 28.52
126.00 28.89
127.00 29.28
128.00 29.69
129.00 30.12
130.00 30.57
131.00 31.04
132.00 31.53
133.00 32.05
134.00 32.59
135.00 33.16
136.00 33.75
137.00 34.38
138.00 35.04
139.00 35.73
140.00 36.46
141.00 37.23
142.00 38.04
143.00 38.90
144.00 39.80
145.00 40.77
146.00 41.79
147.00 42.88
148.00 44.05
149.00 45.30
150.00 46.63
151.00 48.05
152.00 49.55
153.00 51.10
154.00 52.67
155.00 54.07
156.00 55.17
157.00 55.75
158.00 55.82
159.00 55.49
160.00 55.02
161.00 54.55
162.00 54.08
163.00 53.74
164.00 53.48
165.00 53.34
166.00 53.30
167.00 53.37
168.00 53.50
169.00 53.75
170.00 54.10
171.00 54.49
172.00 55.00
173.00 55.65
174.00 56.35
175.00 57.24
176.00 58.22
177.00 59.26
178.00 60.45
179.00 62.06
180.00 63.79
181.00 65.80
182.00 68.44
183.00 71.37
184.00 74.62
185.00 74.12
186.00 71.36
187.00 68.43
188.00 65.98
189.00 63.94
190.00 62.20
191.00 60.64
192.00 59.19
193.00 57.86
194.00 56.62
195.00 55.42
196.00 54.28
197.00 53.21
198.00 52.18
199.00 51.20
200.00 50.27
201.00 49.38
202.00 48.53
203.00 47.72
204.00 46.96
205.00 46.23
206.00 45.54
207.00 44.88
208.00 44.25
209.00 43.66
210.00 43.09
211.00 42.55
212.00 42.04
213.00 41.55
214.00 41.08
215.00 40.62
216.00 40.19
217.00 39.77
218.00 39.35
219.00 38.96
220.00 38.56
221.00 38.18
222.00 37.79
223.00 37.41
224.00 37.02
225.00 36.63
226.00 36.24
227.00 35.83
228.00 35.41
229.00 34.99
230.00 34.55
231.00 34.10
232.00 33.64
233.00 33.17
234.00 32.70
235.00 32.21
236.00 31.72
237.00 31.22
238.00 30.72
239.00 30.22
240.00 29.72
241.00 29.21
242.00 28.71
243.00 28.21
244.00 27.72
245.00 27.23
246.00 26.74
247.00 26.27
248.00 25.79
249.00 25.33
250.00 24.87
251.00 24.43
252.00 23.98
253.00 23.55
254.00 23.13
255.00 22.71
256.00 22.30
257.00 21.90
258.00 21.51
259.00 21.13
260.00 20.75
261.00 20.38
262.00 20.02
263.00 19.67
264.00 19.32
265.00 18.98
266.00 18.64
267.00 18.31
268.00 17.99
269.00 17.67
270.00 17.36
271.00 17.05
272.00 16.74
273.00 16.44
274.00 16.15
275.00 15.86
276.00 15.56
277.00 15.28
278.00 14.99
279.00 14.71
280.00 14.43
281.00 14.15
282.00 13.88
283.00 13.60
284.00 13.32
285.00 13.05
286.00 12.78
287.00 12.51
288.00 12.24
289.00 11.96
290.00 11.69
291.00 11.42
292.00 11.15
293.00 10.88
294.00 10.61
295.00 10.34
296.00 10.07
297.00 9.80
298.00 9.53
299.00 9.27
300.00 9.00
301.00 8.74
302.00 8.48
303.00 8.21
304.00 7.95
305.00 7.69
306.00 7.44
307.00 7.18
308.00 6.93
309.00 6.68
310.00 6.44
311.00 6.19
312.00 5.95
313.00 5.72
314.00 5.48
315.00 5.25
316.00 5.03
317.00 4.81
318.00 4.59
319.00 4.37
320.00 4.16
321.00 3.96
322.00 3.76
323.00 3.56
324.00 3.37
325.00 3.19
326.00 3.00
327.00 2.83
328.00 2.65
329.00 2.49
330.00 2.32
331.00 2.17
332.00 2.02
333.00 1.87
334.00 1.73
335.00 1.59
336.00 1.46
337.00 1.34
338.00 1.22
339.00 1.11
340.00 1.00
341.00 0.89
342.00 0.80
343.00 0.70
344.00 0.62
345.00 0.54
346.00 0.46
347.00 0.39
348.00 0.33
349.00 0.27
350.00 0.22
351.00 0.17
352.00 0.13
353.00 0.09
354.00 0.06
355.00 0.04
356.00 0.02
357.00 0.01
358.00 0.00
359.00 0.00
VERTICAL 360
0.00 0.00
1.00 0.20
2.00 0.71
3.00 1.57
4.00 2.80
5.00 4.46
6.00 6.63
7.00 9.45
8.00 13.22
9.00 18.59
10.00 27.76
11.00 32.17
12.00 25.80
13.00 24.50
14.00 25.74
15.00 28.24
16.00 26.90
17.00 22.69
18.00 19.56
19.00 17.61
20.00 16.59
21.00 16.35
22.00 16.84
23.00 18.10
24.00 20.27
25.00 23.72
26.00 29.57
27.00 40.86
28.00 33.10
29.00 28.77
30.00 27.55
31.00 28.37
32.00 31.63
33.00 36.64
34.00 29.84
35.00 23.90
36.00 20.07
37.00 17.37
38.00 15.41
39.00 13.99
40.00 12.99
41.00 12.35
42.00 12.01
43.00 11.93
44.00 12.08
45.00 12.42
46.00 12.94
47.00 13.62
48.00 14.47
49.00 15.51
50.00 16.77
51.00 18.30
52.00 20.10
53.00 22.21
54.00 24.58
55.00 27.14
56.00 29.80
57.00 32.42
58.00 34.83
59.00 36.68
60.00 37.56
61.00 37.43
62.00 36.81
63.00 36.39
64.00 36.69
65.00 38.05
66.00 40.19
67.00 40.24
68.00 37.29
69.00 34.64
70.00 33.01
71.00 32.11
72.00 31.63
73.00 31.28
74.00 30.96
75.00 30.60
76.00 30.10
77.00 29.35
78.00 28.48
79.00 27.70
80.00 27.23
81.00 27.17
82.00 27.52
83.00 28.21
84.00 29.15
85.00 30.17
86.00 31.16
87.00 32.08
88.00 32.99
89.00 33.99
90.00 35.12
91.00 36.26
92.00 36.99
93.00 36.92
94.00 36.17
95.00 35.23
96.00 34.43
97.00 33.93
98.00 33.80
99.00 34.14
100.00 35.03
101.00 36.60
102.00 38.95
103.00 42.02
104.00 44.75
105.00 45.11
106.00 44.21
107.00 43.76
108.00 43.82
109.00 43.65
110.00 42.67
111.00 41.22
112.00 39.94
113.00 39.07
114.00 38.64
115.00 38.59
116.00 38.88
117.00 39.52
118.00 40.59
119.00 42.13
120.00 44.30
121.00 47.54
122.00 53.80
123.00 61.48
124.00 48.69
125.00 43.33
126.00 40.21
127.00 38.30
128.00 37.19
129.00 36.63
130.00 36.41
131.00 36.34
132.00 36.27
133.00 36.12
134.00 35.91
135.00 35.77
136.00 35.87
137.00 36.39
138.00 37.55
139.00 39.63
140.00 43.24
141.00 50.28
142.00 55.83
143.00 46.61
144.00 42.79
145.00 40.99
146.00 40.32
147.00 40.51
148.00 41.60
149.00 43.90
150.00 47.69
151.00 48.12
152.00 43.10
153.00 39.28
154.00 36.83
155.00 35.30
156.00 34.44
157.00 34.03
158.00 33.86
159.00 33.64
160.00 33.13
161.00 32.35
162.00 31.56
163.00 30.99
164.00 30.82
165.00 31.11
166.00 31.93
167.00 33.36
168.00 35.57
169.00 38.99
170.00 44.95
171.00 66.39
172.00 47.25
173.00 41.99
174.00 39.77
175.00 39.05
176.00 40.48
177.00 42.86
178.00 46.45
179.00 51.92
180.00 62.06
181.00 64.84
182.00 54.94
183.00 50.43
184.00 47.49
185.00 45.58
186.00 45.02
187.00 45.96
188.00 47.25
189.00 46.86
190.00 44.26
191.00 41.48
192.00 39.25
193.00 37.57
194.00 36.31
195.00 35.40
196.00 34.77
197.00 34.39
198.00 34.23
199.00 34.26
200.00 34.41
201.00 34.66
202.00 34.98
203.00 35.43
204.00 36.13
205.00 37.20
206.00 38.81
207.00 40.93
208.00 42.24
209.00 40.41
210.00 37.46
211.00 35.19
212.00 33.81
213.00 33.21
214.00 33.24
215.00 33.84
216.00 34.97
217.00 36.68
218.00 39.07
219.00 42.13
220.00 44.93
221.00 44.71
222.00 42.17
223.00 39.75
224.00 38.08
225.00 37.27
226.00 37.35
227.00 38.31
228.00 39.94
229.00 41.54
230.00 42.31
231.00 42.52
232.00 42.74
233.00 42.50
234.00 41.15
235.00 39.22
236.00 37.45
237.00 36.13
238.00 35.27
239.00 34.91
240.00 35.07
241.00 35.75
242.00 36.89
243.00 38.23
244.00 39.41
245.00 40.07
246.00 40.13
247.00 39.69
248.00 38.92
249.00 37.98
250.00 37.06
251.00 36.37
252.00 36.05
253.00 36.18
254.00 36.72
255.00 37.49
256.00 38.12
257.00 38.18
258.00 37.50
259.00 36.36
260.00 35.24
261.00 34.52
262.00 34.42
263.00 35.06
264.00 36.49
265.00 38.64
266.00 41.39
267.00 44.74
268.00 49.59
269.00 57.60
270.00 50.38
271.00 45.01
272.00 42.31
273.00 40.85
274.00 39.80
275.00 38.75
276.00 37.83
277.00 37.36
278.00 37.60
279.00 38.67
280.00 40.54
281.00 42.82
282.00 44.29
283.00 44.04
284.00 42.98
285.00 41.93
286.00 41.08
287.00 40.55
288.00 40.51
289.00 41.14
290.00 42.68
291.00 45.73
292.00 53.06
293.00 53.49
294.00 42.66
295.00 36.96
296.00 32.93
297.00 29.81
298.00 27.29
299.00 25.22
300.00 23.52
301.00 22.12
302.00 20.96
303.00 20.00
304.00 19.19
305.00 18.50
306.00 17.91
307.00 17.42
308.00 17.06
309.00 16.86
310.00 16.87
311.00 17.12
312.00 17.65
313.00 18.49
314.00 19.68
315.00 21.20
316.00 23.03
317.00 25.11
318.00 27.32
319.00 29.56
320.00 31.76
321.00 33.72
322.00 35.00
323.00 35.31
324.00 35.11
325.00 35.03
326.00 35.34
327.00 35.99
328.00 36.88
329.00 38.23
330.00 41.19
331.00 48.87
332.00 40.68
333.00 33.05
334.00 28.50
335.00 25.50
336.00 23.54
337.00 22.45
338.00 22.19
339.00 22.81
340.00 24.59
341.00 28.18
342.00 34.61
343.00 31.76
344.00 26.10
345.00 23.24
346.00 22.23
347.00 23.05
348.00 27.05
349.00 40.51
350.00 22.60
351.00 15.70
352.00 11.32
353.00 8.13
354.00 5.70
355.00 3.81
356.00 2.36
357.00 1.28
358.00 0.54
359.00 0.12
