NAME ATR4518R7_0806_X_CO_P45_06T
FREQUENCY 0806
GAIN 14.22 dBd
TILT	ELECTRICAL
COMMENT DATE 05.08.2013 +45 degrees polarized system Lever position 06T deg
HORIZONTAL 360
0.00 0.01
1.00 0.01
2.00 0.02
3.00 0.03
4.00 0.05
5.00 0.07
6.00 0.10
7.00 0.14
8.00 0.18
9.00 0.22
10.00 0.27
11.00 0.33
12.00 0.39
13.00 0.46
14.00 0.53
15.00 0.61
16.00 0.70
17.00 0.78
18.00 0.88
19.00 0.98
20.00 1.08
21.00 1.19
22.00 1.31
23.00 1.43
24.00 1.55
25.00 1.69
26.00 1.82
27.00 1.96
28.00 2.11
29.00 2.26
30.00 2.42
31.00 2.58
32.00 2.75
33.00 2.92
34.00 3.10
35.00 3.28
36.00 3.47
37.00 3.66
38.00 3.86
39.00 4.06
40.00 4.27
41.00 4.48
42.00 4.69
43.00 4.91
44.00 5.14
45.00 5.37
46.00 5.61
47.00 5.85
48.00 6.09
49.00 6.34
50.00 6.59
51.00 6.85
52.00 7.11
53.00 7.38
54.00 7.65
55.00 7.92
56.00 8.20
57.00 8.48
58.00 8.77
59.00 9.06
60.00 9.35
61.00 9.65
62.00 9.95
63.00 10.25
64.00 10.56
65.00 10.87
66.00 11.19
67.00 11.51
68.00 11.83
69.00 12.16
70.00 12.49
71.00 12.82
72.00 13.16
73.00 13.50
74.00 13.84
75.00 14.19
76.00 14.54
77.00 14.90
78.00 15.26
79.00 15.63
80.00 16.00
81.00 16.37
82.00 16.75
83.00 17.13
84.00 17.52
85.00 17.91
86.00 18.31
87.00 18.72
88.00 19.13
89.00 19.55
90.00 19.97
91.00 20.40
92.00 20.83
93.00 21.27
94.00 21.72
95.00 22.17
96.00 22.62
97.00 23.08
98.00 23.54
99.00 24.00
100.00 24.46
101.00 24.91
102.00 25.36
103.00 25.79
104.00 26.20
105.00 26.60
106.00 26.97
107.00 27.31
108.00 27.61
109.00 27.87
110.00 28.09
111.00 28.26
112.00 28.39
113.00 28.47
114.00 28.51
115.00 28.51
116.00 28.48
117.00 28.43
118.00 28.35
119.00 28.25
120.00 28.15
121.00 28.04
122.00 27.92
123.00 27.80
124.00 27.69
125.00 27.58
126.00 27.48
127.00 27.39
128.00 27.30
129.00 27.23
130.00 27.16
131.00 27.11
132.00 27.07
133.00 27.04
134.00 27.02
135.00 27.02
136.00 27.02
137.00 27.04
138.00 27.07
139.00 27.12
140.00 27.17
141.00 27.24
142.00 27.32
143.00 27.41
144.00 27.52
145.00 27.63
146.00 27.77
147.00 27.91
148.00 28.06
149.00 28.22
150.00 28.40
151.00 28.59
152.00 28.80
153.00 29.01
154.00 29.24
155.00 29.48
156.00 29.74
157.00 30.01
158.00 30.29
159.00 30.59
160.00 30.91
161.00 31.24
162.00 31.59
163.00 31.95
164.00 32.34
165.00 32.75
166.00 33.18
167.00 33.63
168.00 34.11
169.00 34.62
170.00 35.15
171.00 35.72
172.00 36.32
173.00 36.97
174.00 37.66
175.00 38.40
176.00 39.21
177.00 40.07
178.00 41.00
179.00 42.00
180.00 43.08
181.00 44.27
182.00 45.50
183.00 46.74
184.00 47.87
185.00 48.66
186.00 48.92
187.00 48.58
188.00 47.79
189.00 46.77
190.00 45.71
191.00 44.68
192.00 43.73
193.00 42.87
194.00 42.09
195.00 41.38
196.00 40.75
197.00 40.18
198.00 39.66
199.00 39.20
200.00 38.79
201.00 38.41
202.00 38.08
203.00 37.78
204.00 37.52
205.00 37.28
206.00 37.07
207.00 36.90
208.00 36.75
209.00 36.62
210.00 36.52
211.00 36.44
212.00 36.38
213.00 36.35
214.00 36.33
215.00 36.34
216.00 36.36
217.00 36.40
218.00 36.46
219.00 36.53
220.00 36.61
221.00 36.72
222.00 36.84
223.00 36.95
224.00 37.08
225.00 37.21
226.00 37.33
227.00 37.45
228.00 37.54
229.00 37.61
230.00 37.63
231.00 37.62
232.00 37.55
233.00 37.41
234.00 37.20
235.00 36.92
236.00 36.57
237.00 36.15
238.00 35.67
239.00 35.15
240.00 34.60
241.00 34.01
242.00 33.40
243.00 32.78
244.00 32.15
245.00 31.53
246.00 30.91
247.00 30.29
248.00 29.68
249.00 29.08
250.00 28.49
251.00 27.92
252.00 27.36
253.00 26.80
254.00 26.27
255.00 25.74
256.00 25.22
257.00 24.72
258.00 24.23
259.00 23.75
260.00 23.28
261.00 22.82
262.00 22.38
263.00 21.94
264.00 21.51
265.00 21.09
266.00 20.68
267.00 20.28
268.00 19.89
269.00 19.50
270.00 19.12
271.00 18.75
272.00 18.38
273.00 18.02
274.00 17.67
275.00 17.32
276.00 16.98
277.00 16.64
278.00 16.30
279.00 15.97
280.00 15.64
281.00 15.32
282.00 15.00
283.00 14.68
284.00 14.37
285.00 14.05
286.00 13.74
287.00 13.43
288.00 13.13
289.00 12.82
290.00 12.52
291.00 12.21
292.00 11.91
293.00 11.61
294.00 11.32
295.00 11.02
296.00 10.72
297.00 10.43
298.00 10.14
299.00 9.85
300.00 9.56
301.00 9.28
302.00 8.99
303.00 8.72
304.00 8.43
305.00 8.16
306.00 7.89
307.00 7.62
308.00 7.35
309.00 7.08
310.00 6.83
311.00 6.57
312.00 6.32
313.00 6.07
314.00 5.82
315.00 5.58
316.00 5.34
317.00 5.11
318.00 4.88
319.00 4.66
320.00 4.44
321.00 4.22
322.00 4.01
323.00 3.81
324.00 3.61
325.00 3.41
326.00 3.22
327.00 3.04
328.00 2.86
329.00 2.68
330.00 2.52
331.00 2.35
332.00 2.19
333.00 2.04
334.00 1.89
335.00 1.75
336.00 1.62
337.00 1.48
338.00 1.36
339.00 1.24
340.00 1.13
341.00 1.02
342.00 0.91
343.00 0.81
344.00 0.72
345.00 0.64
346.00 0.56
347.00 0.48
348.00 0.41
349.00 0.35
350.00 0.29
351.00 0.23
352.00 0.19
353.00 0.14
354.00 0.11
355.00 0.08
356.00 0.05
357.00 0.03
358.00 0.02
359.00 0.01
VERTICAL 360
0.00 5.94
1.00 3.99
2.00 2.49
3.00 1.37
4.00 0.60
5.00 0.15
6.00 0.00
7.00 0.17
8.00 0.64
9.00 1.44
10.00 2.58
11.00 4.12
12.00 6.12
13.00 8.70
14.00 12.12
15.00 16.91
16.00 24.84
17.00 36.39
18.00 25.71
19.00 22.92
20.00 22.80
21.00 24.67
22.00 29.28
23.00 40.81
24.00 30.78
25.00 25.01
26.00 22.17
27.00 20.73
28.00 20.21
29.00 20.43
30.00 21.33
31.00 22.93
32.00 25.30
33.00 28.50
34.00 31.93
35.00 33.05
36.00 31.76
37.00 30.69
38.00 30.60
39.00 31.52
40.00 33.39
41.00 35.32
42.00 34.39
43.00 31.14
44.00 28.11
45.00 25.75
46.00 23.98
47.00 22.69
48.00 21.81
49.00 21.31
50.00 21.15
51.00 21.33
52.00 21.83
53.00 22.63
54.00 23.72
55.00 25.09
56.00 26.75
57.00 28.73
58.00 31.13
59.00 34.01
60.00 37.04
61.00 38.51
62.00 37.31
63.00 35.42
64.00 33.86
65.00 32.71
66.00 31.86
67.00 31.28
68.00 30.95
69.00 30.85
70.00 30.98
71.00 31.35
72.00 32.01
73.00 33.01
74.00 34.27
75.00 35.43
76.00 35.84
77.00 35.36
78.00 34.62
79.00 34.14
80.00 34.09
81.00 34.29
82.00 34.28
83.00 33.53
84.00 32.07
85.00 30.52
86.00 29.30
87.00 28.59
88.00 28.40
89.00 28.68
90.00 29.34
91.00 30.21
92.00 31.15
93.00 32.03
94.00 32.78
95.00 33.44
96.00 34.04
97.00 34.65
98.00 35.21
99.00 35.57
100.00 35.71
101.00 35.83
102.00 36.23
103.00 37.06
104.00 38.28
105.00 39.58
106.00 40.59
107.00 41.00
108.00 40.64
109.00 39.53
110.00 38.19
111.00 37.18
112.00 36.75
113.00 36.94
114.00 37.68
115.00 38.82
116.00 40.25
117.00 41.98
118.00 44.13
119.00 46.89
120.00 50.65
121.00 57.14
122.00 61.82
123.00 50.76
124.00 45.27
125.00 41.85
126.00 39.64
127.00 38.26
128.00 37.54
129.00 37.37
130.00 37.70
131.00 38.51
132.00 39.77
133.00 41.41
134.00 43.15
135.00 44.03
136.00 42.93
137.00 40.61
138.00 38.32
139.00 36.48
140.00 35.11
141.00 34.18
142.00 33.68
143.00 33.60
144.00 34.01
145.00 34.94
146.00 36.39
147.00 37.97
148.00 38.46
149.00 37.20
150.00 35.38
151.00 33.94
152.00 33.09
153.00 32.82
154.00 33.09
155.00 33.82
156.00 34.92
157.00 36.13
158.00 37.02
159.00 37.28
160.00 37.16
161.00 37.23
162.00 37.90
163.00 39.54
164.00 42.68
165.00 48.76
166.00 53.95
167.00 46.56
168.00 42.98
169.00 41.17
170.00 40.30
171.00 40.09
172.00 40.51
173.00 41.63
174.00 43.67
175.00 44.03
176.00 45.12
177.00 42.62
178.00 38.35
179.00 35.31
180.00 33.47
181.00 32.55
182.00 32.34
183.00 32.75
184.00 33.72
185.00 35.27
186.00 37.53
187.00 40.92
188.00 47.09
189.00 68.62
190.00 45.61
191.00 40.00
192.00 36.90
193.00 35.05
194.00 34.03
195.00 33.67
196.00 33.82
197.00 34.35
198.00 35.07
199.00 35.70
200.00 35.96
201.00 35.76
202.00 35.30
203.00 34.86
204.00 34.69
205.00 34.88
206.00 35.46
207.00 36.39
208.00 37.66
209.00 39.30
210.00 41.37
211.00 43.58
212.00 44.73
213.00 44.22
214.00 43.43
215.00 43.34
216.00 44.12
217.00 45.67
218.00 47.58
219.00 48.94
220.00 48.42
221.00 46.60
222.00 45.16
223.00 45.01
224.00 46.96
225.00 53.85
226.00 55.48
227.00 44.92
228.00 40.43
229.00 38.00
230.00 36.66
231.00 35.97
232.00 35.62
233.00 35.43
234.00 35.32
235.00 35.28
236.00 35.33
237.00 35.45
238.00 35.62
239.00 35.78
240.00 35.78
241.00 35.54
242.00 35.17
243.00 34.96
244.00 35.21
245.00 36.13
246.00 37.96
247.00 41.02
248.00 45.87
249.00 51.96
250.00 50.57
251.00 48.09
252.00 48.03
253.00 50.32
254.00 56.40
255.00 65.48
256.00 52.05
257.00 46.38
258.00 42.59
259.00 39.81
260.00 37.80
261.00 36.50
262.00 35.86
263.00 35.83
264.00 36.37
265.00 37.32
266.00 38.17
267.00 38.01
268.00 36.65
269.00 35.02
270.00 33.77
271.00 33.09
272.00 32.97
273.00 33.32
274.00 33.99
275.00 34.79
276.00 35.46
277.00 35.78
278.00 35.70
279.00 35.39
280.00 35.16
281.00 35.21
282.00 35.68
283.00 36.58
284.00 37.80
285.00 39.18
286.00 40.52
287.00 41.71
288.00 42.75
289.00 43.55
290.00 43.77
291.00 43.14
292.00 41.89
293.00 40.51
294.00 39.27
295.00 38.23
296.00 37.37
297.00 36.69
298.00 36.23
299.00 36.09
300.00 36.46
301.00 37.74
302.00 40.81
303.00 47.31
304.00 41.71
305.00 34.65
306.00 30.32
307.00 27.37
308.00 25.28
309.00 23.77
310.00 22.67
311.00 21.84
312.00 21.17
313.00 20.59
314.00 20.09
315.00 19.74
316.00 19.61
317.00 19.82
318.00 20.48
319.00 21.72
320.00 23.72
321.00 26.71
322.00 30.55
323.00 32.02
324.00 29.47
325.00 27.23
326.00 26.15
327.00 26.10
328.00 26.97
329.00 28.76
330.00 31.50
331.00 35.18
332.00 38.85
333.00 39.59
334.00 38.08
335.00 36.79
336.00 36.31
337.00 36.92
338.00 38.56
339.00 37.77
340.00 32.85
341.00 28.45
342.00 25.31
343.00 23.24
344.00 22.08
345.00 21.81
346.00 22.53
347.00 24.52
348.00 28.55
349.00 35.38
350.00 31.09
351.00 26.16
352.00 24.07
353.00 24.08
354.00 26.48
355.00 29.11
356.00 22.05
357.00 15.94
358.00 11.64
359.00 8.43
