NAME ATR4518R7_2655_X_CO_P45_00T_yL
FREQUENCY 2655
GAIN 15.53 dBd
TILT	ELECTRICAL
COMMENT DATE 05.08.2013 +45 degrees polarized system Lever position 00T deg
HORIZONTAL 360
0.00 0.07
1.00 0.12
2.00 0.17
3.00 0.23
4.00 0.29
5.00 0.35
6.00 0.40
7.00 0.45
8.00 0.48
9.00 0.51
10.00 0.54
11.00 0.56
12.00 0.59
13.00 0.62
14.00 0.65
15.00 0.70
16.00 0.76
17.00 0.84
18.00 0.93
19.00 1.05
20.00 1.18
21.00 1.33
22.00 1.51
23.00 1.69
24.00 1.90
25.00 2.11
26.00 2.34
27.00 2.57
28.00 2.80
29.00 3.03
30.00 3.26
31.00 3.48
32.00 3.70
33.00 3.91
34.00 4.10
35.00 4.29
36.00 4.48
37.00 4.65
38.00 4.83
39.00 5.00
40.00 5.17
41.00 5.35
42.00 5.53
43.00 5.71
44.00 5.91
45.00 6.11
46.00 6.32
47.00 6.53
48.00 6.76
49.00 6.99
50.00 7.23
51.00 7.48
52.00 7.73
53.00 7.98
54.00 8.24
55.00 8.50
56.00 8.76
57.00 9.02
58.00 9.28
59.00 9.55
60.00 9.81
61.00 10.08
62.00 10.35
63.00 10.62
64.00 10.89
65.00 11.17
66.00 11.46
67.00 11.76
68.00 12.06
69.00 12.38
70.00 12.70
71.00 13.03
72.00 13.38
73.00 13.73
74.00 14.10
75.00 14.47
76.00 14.85
77.00 15.25
78.00 15.65
79.00 16.07
80.00 16.50
81.00 16.95
82.00 17.41
83.00 17.90
84.00 18.40
85.00 18.93
86.00 19.48
87.00 20.07
88.00 20.68
89.00 21.32
90.00 21.99
91.00 22.69
92.00 23.42
93.00 24.17
94.00 24.94
95.00 25.73
96.00 26.53
97.00 27.34
98.00 28.16
99.00 28.98
100.00 29.82
101.00 30.68
102.00 31.59
103.00 32.56
104.00 33.63
105.00 34.83
106.00 36.19
107.00 37.76
108.00 39.52
109.00 41.31
110.00 42.52
111.00 42.34
112.00 40.91
113.00 39.07
114.00 37.33
115.00 35.80
116.00 34.51
117.00 33.41
118.00 32.48
119.00 31.69
120.00 31.02
121.00 30.46
122.00 30.00
123.00 29.62
124.00 29.32
125.00 29.10
126.00 28.94
127.00 28.85
128.00 28.82
129.00 28.86
130.00 28.94
131.00 29.08
132.00 29.26
133.00 29.45
134.00 29.66
135.00 29.86
136.00 30.02
137.00 30.13
138.00 30.18
139.00 30.16
140.00 30.09
141.00 29.98
142.00 29.87
143.00 29.77
144.00 29.72
145.00 29.72
146.00 29.82
147.00 30.00
148.00 30.30
149.00 30.71
150.00 31.24
151.00 31.89
152.00 32.64
153.00 33.44
154.00 34.23
155.00 34.87
156.00 35.25
157.00 35.28
158.00 34.98
159.00 34.50
160.00 33.96
161.00 33.46
162.00 33.08
163.00 32.83
164.00 32.75
165.00 32.85
166.00 33.13
167.00 33.61
168.00 34.29
169.00 35.18
170.00 36.27
171.00 37.50
172.00 38.68
173.00 39.45
174.00 39.42
175.00 38.60
176.00 37.40
177.00 36.15
178.00 35.05
179.00 34.13
180.00 33.41
181.00 32.87
182.00 32.52
183.00 32.32
184.00 32.29
185.00 32.42
186.00 32.69
187.00 33.12
188.00 33.70
189.00 34.45
190.00 35.37
191.00 36.47
192.00 37.77
193.00 39.26
194.00 40.91
195.00 42.64
196.00 44.23
197.00 45.35
198.00 45.72
199.00 45.46
200.00 44.93
201.00 44.33
202.00 43.74
203.00 43.15
204.00 42.46
205.00 41.64
206.00 40.69
207.00 39.63
208.00 38.55
209.00 37.51
210.00 36.54
211.00 35.68
212.00 34.94
213.00 34.34
214.00 33.88
215.00 33.55
216.00 33.37
217.00 33.33
218.00 33.43
219.00 33.67
220.00 34.05
221.00 34.59
222.00 35.27
223.00 36.08
224.00 36.99
225.00 37.92
226.00 38.72
227.00 39.19
228.00 39.14
229.00 38.58
230.00 37.69
231.00 36.66
232.00 35.61
233.00 34.62
234.00 33.72
235.00 32.89
236.00 32.14
237.00 31.46
238.00 30.84
239.00 30.28
240.00 29.77
241.00 29.31
242.00 28.91
243.00 28.55
244.00 28.24
245.00 27.98
246.00 27.77
247.00 27.61
248.00 27.49
249.00 27.41
250.00 27.37
251.00 27.37
252.00 27.39
253.00 27.43
254.00 27.47
255.00 27.52
256.00 27.55
257.00 27.55
258.00 27.52
259.00 27.44
260.00 27.30
261.00 27.12
262.00 26.88
263.00 26.60
264.00 26.28
265.00 25.93
266.00 25.56
267.00 25.18
268.00 24.78
269.00 24.39
270.00 23.99
271.00 23.59
272.00 23.19
273.00 22.79
274.00 22.40
275.00 22.01
276.00 21.62
277.00 21.24
278.00 20.86
279.00 20.49
280.00 20.13
281.00 19.77
282.00 19.43
283.00 19.10
284.00 18.77
285.00 18.46
286.00 18.16
287.00 17.86
288.00 17.57
289.00 17.29
290.00 17.01
291.00 16.74
292.00 16.47
293.00 16.20
294.00 15.92
295.00 15.65
296.00 15.37
297.00 15.09
298.00 14.80
299.00 14.50
300.00 14.19
301.00 13.88
302.00 13.55
303.00 13.21
304.00 12.86
305.00 12.49
306.00 12.12
307.00 11.73
308.00 11.32
309.00 10.91
310.00 10.48
311.00 10.05
312.00 9.62
313.00 9.18
314.00 8.74
315.00 8.31
316.00 7.89
317.00 7.48
318.00 7.07
319.00 6.69
320.00 6.31
321.00 5.96
322.00 5.62
323.00 5.30
324.00 5.00
325.00 4.71
326.00 4.45
327.00 4.20
328.00 3.97
329.00 3.76
330.00 3.57
331.00 3.39
332.00 3.22
333.00 3.07
334.00 2.93
335.00 2.79
336.00 2.66
337.00 2.53
338.00 2.40
339.00 2.27
340.00 2.13
341.00 1.99
342.00 1.84
343.00 1.68
344.00 1.51
345.00 1.34
346.00 1.17
347.00 1.00
348.00 0.83
349.00 0.67
350.00 0.52
351.00 0.39
352.00 0.27
353.00 0.18
354.00 0.10
355.00 0.04
356.00 0.01
357.00 0.00
358.00 0.01
359.00 0.03
VERTICAL 360
0.00 0.00
1.00 0.41
2.00 2.27
3.00 6.05
4.00 12.89
5.00 17.47
6.00 13.94
7.00 13.99
8.00 16.47
9.00 17.19
10.00 14.91
11.00 13.98
12.00 15.49
13.00 18.85
14.00 18.31
15.00 16.11
16.00 16.58
17.00 20.45
18.00 30.31
19.00 23.89
20.00 18.73
21.00 17.01
22.00 17.07
23.00 17.90
24.00 18.64
25.00 18.96
26.00 18.35
27.00 16.73
28.00 15.13
29.00 14.38
30.00 15.05
31.00 17.88
32.00 24.66
33.00 30.38
34.00 23.16
35.00 21.01
36.00 20.93
37.00 22.40
38.00 26.88
39.00 54.29
40.00 26.72
41.00 21.90
42.00 20.62
43.00 21.41
44.00 23.88
45.00 27.74
46.00 31.12
47.00 31.18
48.00 30.52
49.00 30.74
50.00 32.00
51.00 35.11
52.00 43.30
53.00 41.97
54.00 34.81
55.00 29.57
56.00 24.51
57.00 20.62
58.00 17.84
59.00 15.88
60.00 14.65
61.00 14.15
62.00 14.23
63.00 14.65
64.00 15.15
65.00 15.74
66.00 16.60
67.00 17.76
68.00 18.99
69.00 19.94
70.00 20.64
71.00 21.49
72.00 22.80
73.00 24.37
74.00 25.38
75.00 25.35
76.00 25.03
77.00 25.40
78.00 26.62
79.00 27.88
80.00 27.90
81.00 27.01
82.00 26.80
83.00 28.53
84.00 33.86
85.00 47.70
86.00 33.42
87.00 29.02
88.00 27.58
89.00 27.97
90.00 29.80
91.00 32.04
92.00 32.33
93.00 31.43
94.00 31.65
95.00 33.70
96.00 38.37
97.00 46.47
98.00 43.18
99.00 40.91
100.00 42.13
101.00 46.11
102.00 50.30
103.00 46.59
104.00 45.27
105.00 42.52
106.00 39.01
107.00 37.91
108.00 38.27
109.00 37.91
110.00 35.89
111.00 33.33
112.00 31.71
113.00 31.35
114.00 31.51
115.00 31.27
116.00 30.59
117.00 30.18
118.00 30.45
119.00 31.26
120.00 32.50
121.00 34.70
122.00 38.43
123.00 42.26
124.00 41.69
125.00 37.81
126.00 34.93
127.00 34.27
128.00 35.92
129.00 37.47
130.00 35.07
131.00 33.63
132.00 34.83
133.00 38.27
134.00 40.59
135.00 39.50
136.00 39.10
137.00 40.04
138.00 40.79
139.00 41.59
140.00 44.89
141.00 50.05
142.00 47.59
143.00 40.92
144.00 36.20
145.00 34.40
146.00 34.84
147.00 35.18
148.00 34.06
149.00 34.30
150.00 37.27
151.00 39.31
152.00 38.27
153.00 41.50
154.00 63.16
155.00 47.19
156.00 43.34
157.00 36.71
158.00 33.76
159.00 34.29
160.00 35.21
161.00 33.72
162.00 33.30
163.00 34.29
164.00 35.69
165.00 38.64
166.00 44.29
167.00 46.72
168.00 41.38
169.00 35.67
170.00 33.14
171.00 33.17
172.00 34.57
173.00 36.73
174.00 40.99
175.00 43.89
176.00 40.32
177.00 39.34
178.00 39.55
179.00 38.41
180.00 36.15
181.00 34.28
182.00 33.50
183.00 33.93
184.00 35.47
185.00 37.78
186.00 40.43
187.00 44.12
188.00 47.52
189.00 45.82
190.00 39.27
191.00 34.37
192.00 32.86
193.00 34.54
194.00 37.96
195.00 40.06
196.00 48.23
197.00 43.37
198.00 36.23
199.00 34.62
200.00 34.09
201.00 33.69
202.00 34.58
203.00 35.29
204.00 33.92
205.00 32.90
206.00 32.92
207.00 33.10
208.00 32.95
209.00 33.16
210.00 34.46
211.00 36.49
212.00 37.95
213.00 37.61
214.00 36.70
215.00 38.30
216.00 46.60
217.00 44.91
218.00 40.12
219.00 42.17
220.00 43.32
221.00 37.91
222.00 35.14
223.00 34.11
224.00 34.00
225.00 34.65
226.00 35.90
227.00 37.19
228.00 38.02
229.00 38.41
230.00 37.85
231.00 36.04
232.00 34.10
233.00 33.30
234.00 34.32
235.00 37.54
236.00 43.40
237.00 56.52
238.00 48.21
239.00 39.74
240.00 35.60
241.00 33.40
242.00 32.32
243.00 31.93
244.00 31.98
245.00 32.06
246.00 31.83
247.00 31.56
248.00 31.62
249.00 32.02
250.00 32.52
251.00 32.83
252.00 33.44
253.00 35.21
254.00 37.96
255.00 40.22
256.00 39.98
257.00 38.41
258.00 39.12
259.00 42.38
260.00 42.19
261.00 41.47
262.00 41.34
263.00 39.76
264.00 40.72
265.00 42.91
266.00 41.73
267.00 44.29
268.00 48.90
269.00 42.09
270.00 40.41
271.00 38.86
272.00 36.79
273.00 36.02
274.00 35.52
275.00 35.03
276.00 34.98
277.00 34.46
278.00 33.78
279.00 33.84
280.00 34.39
281.00 35.53
282.00 38.13
283.00 42.89
284.00 54.40
285.00 42.82
286.00 33.93
287.00 28.70
288.00 25.21
289.00 22.80
290.00 21.04
291.00 19.61
292.00 18.32
293.00 17.09
294.00 15.97
295.00 15.07
296.00 14.49
297.00 14.25
298.00 14.38
299.00 14.90
300.00 15.89
301.00 17.40
302.00 19.56
303.00 22.64
304.00 27.46
305.00 38.35
306.00 33.96
307.00 26.64
308.00 23.83
309.00 23.47
310.00 25.33
311.00 27.28
312.00 24.15
313.00 21.09
314.00 19.97
315.00 20.36
316.00 21.47
317.00 21.90
318.00 20.59
319.00 18.62
320.00 17.54
321.00 18.21
322.00 21.55
323.00 29.37
324.00 25.14
325.00 20.04
326.00 18.01
327.00 17.47
328.00 17.64
329.00 17.59
330.00 16.48
331.00 14.66
332.00 12.85
333.00 11.43
334.00 10.64
335.00 10.72
336.00 11.98
337.00 15.10
338.00 22.50
339.00 30.41
340.00 19.08
341.00 16.76
342.00 18.20
343.00 25.27
344.00 29.46
345.00 19.51
346.00 17.56
347.00 19.77
348.00 27.90
349.00 23.50
350.00 18.83
351.00 18.77
352.00 22.94
353.00 42.48
354.00 26.88
355.00 20.46
356.00 13.17
357.00 7.20
358.00 3.23
359.00 0.92
