NAME ATR4518R7_2140_X_CO_P45_04T_yL
FREQUENCY 2140
GAIN 15.71 dBd
TILT	ELECTRICAL
COMMENT DATE 05.08.2013 +45 degrees polarized system Lever position 04T deg
HORIZONTAL 360
0.00 0.01
1.00 0.02
2.00 0.03
3.00 0.05
4.00 0.08
5.00 0.10
6.00 0.14
7.00 0.17
8.00 0.21
9.00 0.26
10.00 0.31
11.00 0.36
12.00 0.42
13.00 0.48
14.00 0.55
15.00 0.62
16.00 0.70
17.00 0.78
18.00 0.86
19.00 0.96
20.00 1.05
21.00 1.15
22.00 1.26
23.00 1.37
24.00 1.49
25.00 1.62
26.00 1.76
27.00 1.90
28.00 2.05
29.00 2.21
30.00 2.37
31.00 2.55
32.00 2.73
33.00 2.92
34.00 3.12
35.00 3.33
36.00 3.55
37.00 3.78
38.00 4.01
39.00 4.25
40.00 4.50
41.00 4.75
42.00 5.01
43.00 5.28
44.00 5.55
45.00 5.83
46.00 6.11
47.00 6.39
48.00 6.67
49.00 6.96
50.00 7.25
51.00 7.54
52.00 7.83
53.00 8.12
54.00 8.41
55.00 8.70
56.00 9.00
57.00 9.29
58.00 9.59
59.00 9.89
60.00 10.19
61.00 10.50
62.00 10.81
63.00 11.12
64.00 11.45
65.00 11.78
66.00 12.12
67.00 12.46
68.00 12.82
69.00 13.18
70.00 13.55
71.00 13.93
72.00 14.33
73.00 14.73
74.00 15.14
75.00 15.56
76.00 15.98
77.00 16.41
78.00 16.85
79.00 17.28
80.00 17.72
81.00 18.15
82.00 18.57
83.00 18.99
84.00 19.39
85.00 19.79
86.00 20.17
87.00 20.53
88.00 20.88
89.00 21.23
90.00 21.56
91.00 21.89
92.00 22.22
93.00 22.55
94.00 22.90
95.00 23.25
96.00 23.63
97.00 24.03
98.00 24.46
99.00 24.92
100.00 25.43
101.00 25.97
102.00 26.55
103.00 27.19
104.00 27.87
105.00 28.59
106.00 29.37
107.00 30.19
108.00 31.06
109.00 31.96
110.00 32.88
111.00 33.81
112.00 34.72
113.00 35.59
114.00 36.38
115.00 37.07
116.00 37.61
117.00 37.99
118.00 38.19
119.00 38.24
120.00 38.14
121.00 37.94
122.00 37.65
123.00 37.32
124.00 36.97
125.00 36.62
126.00 36.30
127.00 36.01
128.00 35.79
129.00 35.64
130.00 35.56
131.00 35.55
132.00 35.62
133.00 35.78
134.00 36.00
135.00 36.28
136.00 36.58
137.00 36.87
138.00 37.09
139.00 37.17
140.00 37.09
141.00 36.83
142.00 36.40
143.00 35.87
144.00 35.30
145.00 34.73
146.00 34.21
147.00 33.77
148.00 33.41
149.00 33.15
150.00 33.01
151.00 32.98
152.00 33.07
153.00 33.28
154.00 33.64
155.00 34.14
156.00 34.80
157.00 35.62
158.00 36.62
159.00 37.80
160.00 39.12
161.00 40.49
162.00 41.60
163.00 42.08
164.00 41.75
165.00 40.84
166.00 39.75
167.00 38.74
168.00 37.89
169.00 37.25
170.00 36.80
171.00 36.55
172.00 36.51
173.00 36.67
174.00 37.04
175.00 37.64
176.00 38.50
177.00 39.69
178.00 41.28
179.00 43.48
180.00 46.66
181.00 51.97
182.00 64.87
183.00 54.48
184.00 48.17
185.00 44.72
186.00 42.46
187.00 40.88
188.00 39.76
189.00 38.98
190.00 38.48
191.00 38.23
192.00 38.19
193.00 38.34
194.00 38.69
195.00 39.21
196.00 39.87
197.00 40.60
198.00 41.29
199.00 41.75
200.00 41.78
201.00 41.32
202.00 40.48
203.00 39.48
204.00 38.47
205.00 37.55
206.00 36.75
207.00 36.09
208.00 35.56
209.00 35.17
210.00 34.91
211.00 34.78
212.00 34.77
213.00 34.89
214.00 35.13
215.00 35.50
216.00 36.01
217.00 36.69
218.00 37.53
219.00 38.59
220.00 39.91
221.00 41.57
222.00 43.71
223.00 46.56
224.00 50.31
225.00 53.05
226.00 50.30
227.00 46.48
228.00 43.55
229.00 41.33
230.00 39.59
231.00 38.20
232.00 37.06
233.00 36.12
234.00 35.36
235.00 34.75
236.00 34.27
237.00 33.91
238.00 33.68
239.00 33.56
240.00 33.56
241.00 33.66
242.00 33.88
243.00 34.20
244.00 34.62
245.00 35.11
246.00 35.61
247.00 36.04
248.00 36.27
249.00 36.19
250.00 35.73
251.00 34.95
252.00 33.97
253.00 32.91
254.00 31.85
255.00 30.84
256.00 29.90
257.00 29.05
258.00 28.28
259.00 27.59
260.00 26.96
261.00 26.39
262.00 25.88
263.00 25.42
264.00 24.99
265.00 24.60
266.00 24.22
267.00 23.87
268.00 23.52
269.00 23.17
270.00 22.83
271.00 22.49
272.00 22.14
273.00 21.78
274.00 21.42
275.00 21.06
276.00 20.70
277.00 20.34
278.00 19.98
279.00 19.63
280.00 19.28
281.00 18.95
282.00 18.62
283.00 18.30
284.00 18.00
285.00 17.70
286.00 17.41
287.00 17.13
288.00 16.86
289.00 16.59
290.00 16.32
291.00 16.05
292.00 15.77
293.00 15.50
294.00 15.21
295.00 14.91
296.00 14.61
297.00 14.28
298.00 13.95
299.00 13.60
300.00 13.24
301.00 12.86
302.00 12.48
303.00 12.08
304.00 11.69
305.00 11.28
306.00 10.88
307.00 10.47
308.00 10.07
309.00 9.66
310.00 9.27
311.00 8.88
312.00 8.50
313.00 8.12
314.00 7.75
315.00 7.39
316.00 7.04
317.00 6.70
318.00 6.36
319.00 6.04
320.00 5.71
321.00 5.40
322.00 5.10
323.00 4.80
324.00 4.51
325.00 4.23
326.00 3.95
327.00 3.68
328.00 3.42
329.00 3.17
330.00 2.93
331.00 2.69
332.00 2.47
333.00 2.25
334.00 2.05
335.00 1.85
336.00 1.67
337.00 1.50
338.00 1.33
339.00 1.18
340.00 1.04
341.00 0.91
342.00 0.79
343.00 0.68
344.00 0.58
345.00 0.48
346.00 0.40
347.00 0.33
348.00 0.27
349.00 0.21
350.00 0.16
351.00 0.12
352.00 0.09
353.00 0.06
354.00 0.03
355.00 0.02
356.00 0.01
357.00 0.00
358.00 0.00
359.00 0.00
VERTICAL 360
0.00 6.95
1.00 3.68
2.00 1.54
3.00 0.34
4.00 0.00
5.00 0.49
6.00 1.89
7.00 4.41
8.00 8.64
9.00 16.66
10.00 25.65
11.00 15.97
12.00 14.22
13.00 15.85
14.00 21.17
15.00 25.11
16.00 18.69
17.00 15.95
18.00 15.65
19.00 17.30
20.00 21.28
21.00 28.01
22.00 24.85
23.00 20.84
24.00 19.93
25.00 21.73
26.00 27.87
27.00 35.58
28.00 23.88
29.00 20.15
30.00 18.95
31.00 19.24
32.00 20.48
33.00 22.13
34.00 23.42
35.00 23.57
36.00 22.51
37.00 21.06
38.00 20.01
39.00 19.68
40.00 20.00
41.00 20.49
42.00 20.65
43.00 20.64
44.00 21.18
45.00 22.98
46.00 26.98
47.00 37.06
48.00 35.21
49.00 27.99
50.00 25.55
51.00 24.97
52.00 25.45
53.00 26.57
54.00 28.33
55.00 31.13
56.00 34.82
57.00 34.58
58.00 31.33
59.00 29.48
60.00 29.09
61.00 29.70
62.00 30.72
63.00 31.59
64.00 32.28
65.00 33.21
66.00 34.74
67.00 36.95
68.00 39.79
69.00 43.23
70.00 46.87
71.00 49.57
72.00 50.16
73.00 48.96
74.00 47.96
75.00 48.82
76.00 53.12
77.00 69.60
78.00 54.83
79.00 49.62
80.00 47.24
81.00 46.22
82.00 46.40
83.00 46.74
84.00 45.30
85.00 43.31
86.00 42.23
87.00 41.82
88.00 41.54
89.00 41.74
90.00 43.27
91.00 46.86
92.00 52.27
93.00 53.43
94.00 52.17
95.00 52.07
96.00 51.86
97.00 51.66
98.00 52.40
99.00 53.78
100.00 52.26
101.00 48.60
102.00 46.12
103.00 44.98
104.00 44.70
105.00 45.03
106.00 46.17
107.00 48.54
108.00 52.43
109.00 57.75
110.00 60.13
111.00 55.04
112.00 50.20
113.00 46.71
114.00 44.46
115.00 43.31
116.00 43.06
117.00 43.37
118.00 43.82
119.00 43.72
120.00 42.80
121.00 41.90
122.00 41.86
123.00 42.97
124.00 45.51
125.00 51.26
126.00 59.69
127.00 46.42
128.00 41.82
129.00 40.29
130.00 41.22
131.00 45.59
132.00 60.02
133.00 45.52
134.00 40.79
135.00 39.55
136.00 40.41
137.00 41.60
138.00 39.51
139.00 36.17
140.00 33.88
141.00 32.84
142.00 33.06
143.00 34.73
144.00 38.46
145.00 46.13
146.00 56.42
147.00 48.35
148.00 48.10
149.00 47.41
150.00 44.35
151.00 42.59
152.00 41.38
153.00 39.81
154.00 39.18
155.00 40.73
156.00 43.47
157.00 41.67
158.00 39.92
159.00 41.98
160.00 51.45
161.00 47.41
162.00 43.63
163.00 47.39
164.00 47.86
165.00 40.67
166.00 39.01
167.00 40.82
168.00 42.73
169.00 40.80
170.00 40.44
171.00 43.35
172.00 46.95
173.00 44.26
174.00 42.40
175.00 41.80
176.00 41.28
177.00 40.59
178.00 39.05
179.00 37.13
180.00 36.25
181.00 37.09
182.00 39.85
183.00 44.07
184.00 49.01
185.00 59.81
186.00 47.15
187.00 41.50
188.00 39.88
189.00 40.67
190.00 42.09
191.00 42.11
192.00 42.41
193.00 44.78
194.00 48.74
195.00 48.99
196.00 46.34
197.00 43.74
198.00 42.00
199.00 41.77
200.00 43.00
201.00 44.28
202.00 43.81
203.00 43.07
204.00 43.34
205.00 43.65
206.00 42.00
207.00 39.61
208.00 38.00
209.00 37.12
210.00 36.32
211.00 35.11
212.00 33.87
213.00 33.23
214.00 33.58
215.00 35.06
216.00 37.62
217.00 40.33
218.00 41.31
219.00 41.23
220.00 42.14
221.00 45.34
222.00 53.55
223.00 50.20
224.00 42.76
225.00 38.90
226.00 36.97
227.00 36.79
228.00 38.69
229.00 43.63
230.00 51.35
231.00 46.43
232.00 44.55
233.00 46.72
234.00 53.03
235.00 48.93
236.00 43.21
237.00 40.27
238.00 38.92
239.00 38.82
240.00 39.93
241.00 42.52
242.00 47.57
243.00 55.43
244.00 47.99
245.00 43.05
246.00 40.48
247.00 39.27
248.00 39.18
249.00 40.18
250.00 42.11
251.00 43.98
252.00 44.69
253.00 45.49
254.00 47.70
255.00 47.71
256.00 43.40
257.00 40.12
258.00 38.19
259.00 37.08
260.00 36.36
261.00 35.84
262.00 35.45
263.00 35.08
264.00 34.41
265.00 33.20
266.00 31.64
267.00 30.16
268.00 28.88
269.00 27.74
270.00 26.58
271.00 25.39
272.00 24.28
273.00 23.40
274.00 22.84
275.00 22.63
276.00 22.74
277.00 23.11
278.00 23.73
279.00 24.64
280.00 25.93
281.00 27.67
282.00 29.76
283.00 31.78
284.00 33.04
285.00 33.41
286.00 33.39
287.00 33.39
288.00 33.33
289.00 32.67
290.00 31.26
291.00 29.89
292.00 29.22
293.00 29.41
294.00 30.15
295.00 30.77
296.00 31.02
297.00 31.65
298.00 33.66
299.00 37.27
300.00 35.34
301.00 30.33
302.00 27.33
303.00 25.94
304.00 25.67
305.00 26.15
306.00 27.20
307.00 28.96
308.00 31.67
309.00 33.44
310.00 30.92
311.00 27.98
312.00 26.20
313.00 25.27
314.00 25.00
315.00 25.74
316.00 28.19
317.00 30.62
318.00 26.18
319.00 22.06
320.00 19.96
321.00 19.31
322.00 19.44
323.00 19.63
324.00 19.61
325.00 19.77
326.00 20.41
327.00 21.28
328.00 21.74
329.00 21.42
330.00 20.43
331.00 19.10
332.00 17.95
333.00 17.43
334.00 17.87
335.00 19.65
336.00 23.72
337.00 32.54
338.00 26.81
339.00 21.43
340.00 19.51
341.00 19.82
342.00 22.57
343.00 30.09
344.00 31.38
345.00 23.38
346.00 20.85
347.00 21.35
348.00 25.68
349.00 51.48
350.00 24.54
351.00 19.76
352.00 18.46
353.00 19.43
354.00 22.52
355.00 27.57
356.00 33.55
357.00 30.26
358.00 18.73
359.00 11.70
