NAME ATR4518R7_0947_X_CO_P45_00T
FREQUENCY 0947
GAIN 14.78 dBd
TILT	ELECTRICAL
COMMENT DATE 05.08.2013 +45 degrees polarized system Lever position 00T deg
HORIZONTAL 360
0.00 0.03
1.00 0.01
2.00 0.00
3.00 0.00
4.00 0.01
5.00 0.02
6.00 0.04
7.00 0.07
8.00 0.10
9.00 0.14
10.00 0.18
11.00 0.24
12.00 0.29
13.00 0.36
14.00 0.44
15.00 0.51
16.00 0.60
17.00 0.70
18.00 0.80
19.00 0.90
20.00 1.02
21.00 1.14
22.00 1.26
23.00 1.40
24.00 1.54
25.00 1.69
26.00 1.84
27.00 2.00
28.00 2.17
29.00 2.34
30.00 2.52
31.00 2.71
32.00 2.90
33.00 3.10
34.00 3.31
35.00 3.52
36.00 3.74
37.00 3.97
38.00 4.20
39.00 4.44
40.00 4.68
41.00 4.93
42.00 5.19
43.00 5.45
44.00 5.72
45.00 6.00
46.00 6.28
47.00 6.57
48.00 6.87
49.00 7.17
50.00 7.48
51.00 7.79
52.00 8.11
53.00 8.44
54.00 8.77
55.00 9.11
56.00 9.46
57.00 9.81
58.00 10.17
59.00 10.53
60.00 10.90
61.00 11.28
62.00 11.67
63.00 12.06
64.00 12.46
65.00 12.87
66.00 13.28
67.00 13.70
68.00 14.13
69.00 14.57
70.00 15.02
71.00 15.47
72.00 15.93
73.00 16.40
74.00 16.88
75.00 17.36
76.00 17.86
77.00 18.36
78.00 18.88
79.00 19.40
80.00 19.93
81.00 20.48
82.00 21.03
83.00 21.59
84.00 22.17
85.00 22.76
86.00 23.35
87.00 23.96
88.00 24.59
89.00 25.22
90.00 25.88
91.00 26.54
92.00 27.22
93.00 27.92
94.00 28.64
95.00 29.38
96.00 30.14
97.00 30.92
98.00 31.72
99.00 32.55
100.00 33.40
101.00 34.27
102.00 35.16
103.00 36.05
104.00 36.95
105.00 37.80
106.00 38.58
107.00 39.25
108.00 39.74
109.00 40.02
110.00 40.07
111.00 39.91
112.00 39.57
113.00 39.12
114.00 38.61
115.00 38.07
116.00 37.52
117.00 36.98
118.00 36.47
119.00 35.99
120.00 35.54
121.00 35.13
122.00 34.74
123.00 34.39
124.00 34.06
125.00 33.77
126.00 33.50
127.00 33.26
128.00 33.05
129.00 32.87
130.00 32.71
131.00 32.57
132.00 32.45
133.00 32.36
134.00 32.29
135.00 32.24
136.00 32.22
137.00 32.22
138.00 32.24
139.00 32.29
140.00 32.36
141.00 32.45
142.00 32.57
143.00 32.71
144.00 32.87
145.00 33.06
146.00 33.28
147.00 33.52
148.00 33.79
149.00 34.08
150.00 34.40
151.00 34.74
152.00 35.11
153.00 35.50
154.00 35.92
155.00 36.34
156.00 36.78
157.00 37.21
158.00 37.63
159.00 38.01
160.00 38.35
161.00 38.62
162.00 38.80
163.00 38.89
164.00 38.88
165.00 38.76
166.00 38.57
167.00 38.30
168.00 37.98
169.00 37.64
170.00 37.28
171.00 36.92
172.00 36.58
173.00 36.25
174.00 35.95
175.00 35.67
176.00 35.43
177.00 35.22
178.00 35.05
179.00 34.92
180.00 34.82
181.00 34.76
182.00 34.74
183.00 34.77
184.00 34.83
185.00 34.94
186.00 35.09
187.00 35.29
188.00 35.54
189.00 35.84
190.00 36.20
191.00 36.63
192.00 37.12
193.00 37.69
194.00 38.35
195.00 39.10
196.00 39.98
197.00 40.99
198.00 42.16
199.00 43.54
200.00 45.15
201.00 46.99
202.00 48.95
203.00 50.50
204.00 50.68
205.00 49.32
206.00 47.39
207.00 45.53
208.00 43.92
209.00 42.54
210.00 41.37
211.00 40.37
212.00 39.51
213.00 38.78
214.00 38.15
215.00 37.62
216.00 37.17
217.00 36.80
218.00 36.50
219.00 36.27
220.00 36.10
221.00 36.00
222.00 35.95
223.00 35.97
224.00 36.04
225.00 36.19
226.00 36.40
227.00 36.67
228.00 37.02
229.00 37.46
230.00 37.98
231.00 38.60
232.00 39.33
233.00 40.19
234.00 41.18
235.00 42.32
236.00 43.60
237.00 44.91
238.00 46.02
239.00 46.51
240.00 46.04
241.00 44.78
242.00 43.23
243.00 41.66
244.00 40.21
245.00 38.89
246.00 37.70
247.00 36.64
248.00 35.68
249.00 34.82
250.00 34.02
251.00 33.31
252.00 32.64
253.00 32.02
254.00 31.45
255.00 30.92
256.00 30.42
257.00 29.95
258.00 29.50
259.00 29.07
260.00 28.65
261.00 28.25
262.00 27.86
263.00 27.46
264.00 27.08
265.00 26.69
266.00 26.30
267.00 25.91
268.00 25.51
269.00 25.10
270.00 24.69
271.00 24.27
272.00 23.85
273.00 23.42
274.00 22.98
275.00 22.54
276.00 22.09
277.00 21.64
278.00 21.19
279.00 20.74
280.00 20.29
281.00 19.84
282.00 19.39
283.00 18.94
284.00 18.50
285.00 18.06
286.00 17.63
287.00 17.19
288.00 16.77
289.00 16.34
290.00 15.93
291.00 15.52
292.00 15.12
293.00 14.72
294.00 14.33
295.00 13.94
296.00 13.56
297.00 13.18
298.00 12.80
299.00 12.44
300.00 12.08
301.00 11.72
302.00 11.37
303.00 11.02
304.00 10.68
305.00 10.35
306.00 10.02
307.00 9.69
308.00 9.37
309.00 9.05
310.00 8.74
311.00 8.43
312.00 8.12
313.00 7.82
314.00 7.53
315.00 7.24
316.00 6.96
317.00 6.68
318.00 6.40
319.00 6.13
320.00 5.87
321.00 5.61
322.00 5.35
323.00 5.10
324.00 4.86
325.00 4.62
326.00 4.39
327.00 4.16
328.00 3.94
329.00 3.72
330.00 3.51
331.00 3.30
332.00 3.10
333.00 2.91
334.00 2.72
335.00 2.53
336.00 2.36
337.00 2.19
338.00 2.02
339.00 1.87
340.00 1.71
341.00 1.57
342.00 1.43
343.00 1.29
344.00 1.17
345.00 1.05
346.00 0.93
347.00 0.83
348.00 0.72
349.00 0.63
350.00 0.54
351.00 0.46
352.00 0.39
353.00 0.32
354.00 0.26
355.00 0.20
356.00 0.15
357.00 0.11
358.00 0.08
359.00 0.05
VERTICAL 360
0.00 0.00
1.00 0.22
2.00 0.83
3.00 1.87
4.00 3.40
5.00 5.50
6.00 8.32
7.00 12.03
8.00 16.79
9.00 22.12
10.00 24.94
11.00 25.62
12.00 28.30
13.00 38.50
14.00 32.21
15.00 24.35
16.00 20.83
17.00 19.19
18.00 18.86
19.00 19.73
20.00 22.05
21.00 26.85
22.00 37.35
23.00 28.73
24.00 23.36
25.00 21.03
26.00 20.42
27.00 21.32
28.00 23.77
29.00 25.97
30.00 23.01
31.00 19.14
32.00 16.41
33.00 14.50
34.00 13.11
35.00 12.13
36.00 11.58
37.00 11.50
38.00 11.90
39.00 12.71
40.00 13.82
41.00 15.13
42.00 16.64
43.00 18.55
44.00 21.12
45.00 24.67
46.00 29.64
47.00 37.33
48.00 71.45
49.00 40.80
50.00 36.45
51.00 34.96
52.00 34.87
53.00 35.13
54.00 34.84
55.00 34.55
56.00 35.11
57.00 36.50
58.00 38.16
59.00 39.33
60.00 39.01
61.00 37.99
62.00 37.40
63.00 36.69
64.00 35.84
65.00 35.40
66.00 34.90
67.00 33.95
68.00 33.29
69.00 33.11
70.00 33.03
71.00 33.53
72.00 35.88
73.00 42.64
74.00 45.79
75.00 36.80
76.00 32.95
77.00 30.81
78.00 29.63
79.00 29.41
80.00 30.72
81.00 34.60
82.00 36.25
83.00 30.70
84.00 27.87
85.00 27.43
86.00 28.84
87.00 32.12
88.00 36.79
89.00 36.13
90.00 33.44
91.00 33.11
92.00 34.73
93.00 37.82
94.00 43.24
95.00 58.17
96.00 50.49
97.00 46.57
98.00 41.58
99.00 37.09
100.00 34.53
101.00 33.48
102.00 33.79
103.00 35.77
104.00 39.77
105.00 40.17
106.00 35.45
107.00 32.88
108.00 32.58
109.00 34.31
110.00 37.46
111.00 37.97
112.00 34.74
113.00 32.56
114.00 32.38
115.00 34.36
116.00 38.93
117.00 44.80
118.00 41.43
119.00 39.23
120.00 40.93
121.00 46.72
122.00 42.90
123.00 38.55
124.00 37.05
125.00 36.81
126.00 36.48
127.00 34.95
128.00 33.41
129.00 33.19
130.00 34.67
131.00 37.78
132.00 42.19
133.00 46.22
134.00 45.80
135.00 41.90
136.00 37.39
137.00 34.06
138.00 32.16
139.00 31.38
140.00 31.29
141.00 31.51
142.00 31.80
143.00 32.30
144.00 33.27
145.00 34.84
146.00 36.68
147.00 37.58
148.00 37.00
149.00 36.19
150.00 35.87
151.00 35.77
152.00 35.61
153.00 35.64
154.00 36.35
155.00 38.09
156.00 40.74
157.00 44.23
158.00 50.58
159.00 52.74
160.00 45.16
161.00 40.80
162.00 37.38
163.00 35.03
164.00 33.88
165.00 33.65
166.00 33.82
167.00 33.99
168.00 34.04
169.00 34.18
170.00 34.97
171.00 37.21
172.00 42.38
173.00 51.17
174.00 43.15
175.00 39.36
176.00 38.04
177.00 37.65
178.00 37.17
179.00 36.11
180.00 34.77
181.00 33.73
182.00 32.70
183.00 31.94
184.00 31.60
185.00 31.66
186.00 31.86
187.00 32.71
188.00 34.30
189.00 36.45
190.00 38.88
191.00 41.24
192.00 42.79
193.00 42.78
194.00 41.71
195.00 40.64
196.00 39.46
197.00 37.76
198.00 36.20
199.00 35.70
200.00 36.78
201.00 39.27
202.00 40.60
203.00 39.05
204.00 37.41
205.00 35.95
206.00 34.43
207.00 33.34
208.00 33.33
209.00 34.87
210.00 38.19
211.00 41.62
212.00 41.50
213.00 40.39
214.00 38.78
215.00 36.35
216.00 34.24
217.00 33.21
218.00 33.41
219.00 34.60
220.00 36.24
221.00 38.02
222.00 40.22
223.00 43.50
224.00 48.06
225.00 47.64
226.00 45.33
227.00 45.14
228.00 44.49
229.00 43.45
230.00 43.63
231.00 43.99
232.00 43.58
233.00 42.72
234.00 41.10
235.00 39.35
236.00 38.22
237.00 38.35
238.00 40.52
239.00 45.08
240.00 47.95
241.00 46.12
242.00 42.19
243.00 39.85
244.00 40.93
245.00 47.05
246.00 60.94
247.00 47.99
248.00 44.77
249.00 46.41
250.00 47.20
251.00 37.99
252.00 34.47
253.00 34.72
254.00 37.41
255.00 36.16
256.00 32.06
257.00 29.40
258.00 28.36
259.00 28.96
260.00 30.87
261.00 31.69
262.00 29.45
263.00 27.07
264.00 26.01
265.00 26.48
266.00 28.22
267.00 30.01
268.00 29.86
269.00 28.21
270.00 26.80
271.00 26.22
272.00 26.22
273.00 26.28
274.00 26.10
275.00 25.93
276.00 26.24
277.00 27.24
278.00 28.26
279.00 28.18
280.00 27.37
281.00 26.87
282.00 27.28
283.00 28.93
284.00 31.47
285.00 32.75
286.00 31.72
287.00 30.60
288.00 30.68
289.00 32.51
290.00 36.52
291.00 43.33
292.00 43.48
293.00 38.93
294.00 38.50
295.00 41.66
296.00 40.05
297.00 35.41
298.00 33.16
299.00 32.40
300.00 32.52
301.00 32.59
302.00 31.48
303.00 30.00
304.00 29.26
305.00 29.43
306.00 30.48
307.00 32.42
308.00 34.07
309.00 31.46
310.00 27.22
311.00 24.05
312.00 21.94
313.00 20.52
314.00 19.41
315.00 18.33
316.00 17.26
317.00 16.42
318.00 16.04
319.00 16.19
320.00 16.83
321.00 17.78
322.00 18.70
323.00 19.41
324.00 20.14
325.00 21.30
326.00 23.19
327.00 25.97
328.00 29.37
329.00 32.23
330.00 33.54
331.00 34.08
332.00 35.40
333.00 37.48
334.00 33.89
335.00 29.00
336.00 25.83
337.00 23.80
338.00 22.36
339.00 21.33
340.00 20.80
341.00 21.02
342.00 22.33
343.00 25.27
344.00 31.34
345.00 33.97
346.00 26.31
347.00 22.50
348.00 20.94
349.00 21.13
350.00 22.45
351.00 20.90
352.00 15.93
353.00 11.52
354.00 8.10
355.00 5.44
356.00 3.37
357.00 1.84
358.00 0.78
359.00 0.18
