NAME ATR4518R7_1950_X_CO_P45_07T_yyR
FREQUENCY 1950
GAIN 15.11 dBd
TILT	ELECTRICAL
COMMENT DATE 05.08.2013 +45 degrees polarized system Lever position 07T deg
HORIZONTAL 360
0.00 0.08
1.00 0.05
2.00 0.03
3.00 0.01
4.00 0.00
5.00 0.00
6.00 0.00
7.00 0.01
8.00 0.03
9.00 0.06
10.00 0.09
11.00 0.14
12.00 0.19
13.00 0.25
14.00 0.32
15.00 0.40
16.00 0.49
17.00 0.59
18.00 0.70
19.00 0.83
20.00 0.96
21.00 1.10
22.00 1.26
23.00 1.42
24.00 1.60
25.00 1.79
26.00 1.98
27.00 2.20
28.00 2.41
29.00 2.64
30.00 2.88
31.00 3.13
32.00 3.39
33.00 3.66
34.00 3.93
35.00 4.22
36.00 4.50
37.00 4.80
38.00 5.10
39.00 5.40
40.00 5.70
41.00 6.01
42.00 6.32
43.00 6.63
44.00 6.94
45.00 7.25
46.00 7.56
47.00 7.87
48.00 8.17
49.00 8.48
50.00 8.78
51.00 9.08
52.00 9.39
53.00 9.69
54.00 9.99
55.00 10.29
56.00 10.60
57.00 10.90
58.00 11.21
59.00 11.52
60.00 11.83
61.00 12.14
62.00 12.46
63.00 12.77
64.00 13.08
65.00 13.40
66.00 13.71
67.00 14.02
68.00 14.32
69.00 14.63
70.00 14.92
71.00 15.21
72.00 15.49
73.00 15.76
74.00 16.02
75.00 16.28
76.00 16.53
77.00 16.77
78.00 17.01
79.00 17.24
80.00 17.48
81.00 17.71
82.00 17.95
83.00 18.19
84.00 18.44
85.00 18.70
86.00 18.97
87.00 19.25
88.00 19.55
89.00 19.86
90.00 20.18
91.00 20.53
92.00 20.89
93.00 21.26
94.00 21.66
95.00 22.07
96.00 22.49
97.00 22.93
98.00 23.38
99.00 23.84
100.00 24.32
101.00 24.80
102.00 25.30
103.00 25.80
104.00 26.30
105.00 26.82
106.00 27.35
107.00 27.90
108.00 28.47
109.00 29.06
110.00 29.69
111.00 30.37
112.00 31.09
113.00 31.87
114.00 32.72
115.00 33.65
116.00 34.64
117.00 35.68
118.00 36.71
119.00 37.59
120.00 38.16
121.00 38.25
122.00 37.83
123.00 37.06
124.00 36.12
125.00 35.15
126.00 34.24
127.00 33.42
128.00 32.69
129.00 32.07
130.00 31.56
131.00 31.14
132.00 30.82
133.00 30.59
134.00 30.46
135.00 30.40
136.00 30.45
137.00 30.58
138.00 30.80
139.00 31.12
140.00 31.54
141.00 32.07
142.00 32.72
143.00 33.50
144.00 34.42
145.00 35.52
146.00 36.81
147.00 38.32
148.00 40.05
149.00 41.94
150.00 43.66
151.00 44.48
152.00 43.95
153.00 42.57
154.00 41.05
155.00 39.69
156.00 38.57
157.00 37.67
158.00 36.97
159.00 36.44
160.00 36.08
161.00 35.85
162.00 35.76
163.00 35.80
164.00 35.96
165.00 36.23
166.00 36.64
167.00 37.15
168.00 37.80
169.00 38.57
170.00 39.46
171.00 40.46
172.00 41.52
173.00 42.56
174.00 43.39
175.00 43.80
176.00 43.66
177.00 43.05
178.00 42.16
179.00 41.19
180.00 40.26
181.00 39.42
182.00 38.68
183.00 38.04
184.00 37.51
185.00 37.08
186.00 36.73
187.00 36.47
188.00 36.28
189.00 36.16
190.00 36.10
191.00 36.09
192.00 36.13
193.00 36.20
194.00 36.28
195.00 36.37
196.00 36.43
197.00 36.45
198.00 36.39
199.00 36.25
200.00 36.01
201.00 35.69
202.00 35.28
203.00 34.81
204.00 34.31
205.00 33.79
206.00 33.27
207.00 32.77
208.00 32.30
209.00 31.87
210.00 31.48
211.00 31.14
212.00 30.85
213.00 30.60
214.00 30.40
215.00 30.26
216.00 30.17
217.00 30.12
218.00 30.12
219.00 30.16
220.00 30.24
221.00 30.36
222.00 30.51
223.00 30.67
224.00 30.85
225.00 31.02
226.00 31.18
227.00 31.30
228.00 31.37
229.00 31.38
230.00 31.32
231.00 31.19
232.00 30.99
233.00 30.73
234.00 30.43
235.00 30.10
236.00 29.75
237.00 29.39
238.00 29.04
239.00 28.71
240.00 28.39
241.00 28.10
242.00 27.83
243.00 27.58
244.00 27.36
245.00 27.16
246.00 26.98
247.00 26.82
248.00 26.68
249.00 26.55
250.00 26.43
251.00 26.32
252.00 26.21
253.00 26.10
254.00 25.98
255.00 25.85
256.00 25.70
257.00 25.54
258.00 25.36
259.00 25.16
260.00 24.94
261.00 24.70
262.00 24.43
263.00 24.15
264.00 23.84
265.00 23.52
266.00 23.19
267.00 22.84
268.00 22.48
269.00 22.12
270.00 21.75
271.00 21.37
272.00 20.99
273.00 20.61
274.00 20.24
275.00 19.86
276.00 19.49
277.00 19.12
278.00 18.75
279.00 18.39
280.00 18.04
281.00 17.69
282.00 17.35
283.00 17.01
284.00 16.67
285.00 16.34
286.00 16.02
287.00 15.70
288.00 15.39
289.00 15.08
290.00 14.78
291.00 14.47
292.00 14.17
293.00 13.88
294.00 13.58
295.00 13.29
296.00 13.00
297.00 12.71
298.00 12.42
299.00 12.14
300.00 11.85
301.00 11.56
302.00 11.28
303.00 10.99
304.00 10.71
305.00 10.42
306.00 10.14
307.00 9.85
308.00 9.57
309.00 9.29
310.00 9.00
311.00 8.71
312.00 8.43
313.00 8.14
314.00 7.86
315.00 7.58
316.00 7.29
317.00 7.01
318.00 6.74
319.00 6.46
320.00 6.19
321.00 5.92
322.00 5.65
323.00 5.39
324.00 5.13
325.00 4.88
326.00 4.63
327.00 4.39
328.00 4.15
329.00 3.92
330.00 3.69
331.00 3.48
332.00 3.26
333.00 3.06
334.00 2.86
335.00 2.67
336.00 2.49
337.00 2.31
338.00 2.14
339.00 1.98
340.00 1.83
341.00 1.68
342.00 1.54
343.00 1.41
344.00 1.28
345.00 1.16
346.00 1.05
347.00 0.94
348.00 0.84
349.00 0.75
350.00 0.66
351.00 0.58
352.00 0.50
353.00 0.43
354.00 0.36
355.00 0.30
356.00 0.24
357.00 0.19
358.00 0.15
359.00 0.11
VERTICAL 360
0.00 19.11
1.00 14.00
2.00 9.49
3.00 5.89
4.00 3.21
5.00 1.38
6.00 0.33
7.00 0.00
8.00 0.39
9.00 1.55
10.00 3.63
11.00 7.02
12.00 12.89
13.00 25.36
14.00 19.57
15.00 14.91
16.00 14.55
17.00 17.04
18.00 24.35
19.00 30.53
20.00 19.69
21.00 16.41
22.00 15.84
23.00 17.41
24.00 21.75
25.00 29.03
26.00 24.03
27.00 19.48
28.00 17.83
29.00 17.97
30.00 19.76
31.00 23.89
32.00 33.17
33.00 31.30
34.00 24.53
35.00 22.03
36.00 21.35
37.00 21.82
38.00 23.10
39.00 25.12
40.00 28.20
41.00 32.71
42.00 33.53
43.00 29.75
44.00 27.81
45.00 27.69
46.00 28.63
47.00 29.57
48.00 29.90
49.00 30.37
50.00 31.79
51.00 33.93
52.00 34.72
53.00 33.15
54.00 31.04
55.00 29.37
56.00 28.47
57.00 28.38
58.00 28.78
59.00 29.07
60.00 28.86
61.00 28.47
62.00 28.46
63.00 29.16
64.00 30.52
65.00 32.06
66.00 33.13
67.00 33.64
68.00 34.01
69.00 34.35
70.00 34.35
71.00 33.80
72.00 32.99
73.00 32.36
74.00 32.13
75.00 32.32
76.00 32.76
77.00 33.14
78.00 33.09
79.00 32.30
80.00 30.94
81.00 29.53
82.00 28.39
83.00 27.56
84.00 27.05
85.00 26.93
86.00 27.35
87.00 28.43
88.00 30.03
89.00 31.66
90.00 33.37
91.00 35.96
92.00 37.68
93.00 34.79
94.00 32.06
95.00 30.89
96.00 30.72
97.00 31.23
98.00 32.56
99.00 34.82
100.00 37.35
101.00 38.98
102.00 40.09
103.00 41.38
104.00 43.19
105.00 46.93
106.00 56.36
107.00 58.82
108.00 54.13
109.00 56.01
110.00 59.44
111.00 58.12
112.00 50.49
113.00 45.80
114.00 44.03
115.00 44.42
116.00 46.43
117.00 49.56
118.00 54.24
119.00 64.10
120.00 53.32
121.00 45.34
122.00 40.87
123.00 38.07
124.00 36.18
125.00 34.76
126.00 33.65
127.00 33.00
128.00 33.12
129.00 34.32
130.00 36.84
131.00 40.67
132.00 45.20
133.00 48.49
134.00 45.79
135.00 42.00
136.00 40.43
137.00 40.63
138.00 41.56
139.00 42.36
140.00 43.53
141.00 45.51
142.00 46.17
143.00 44.07
144.00 42.15
145.00 41.45
146.00 41.65
147.00 42.19
148.00 43.18
149.00 45.27
150.00 47.47
151.00 46.20
152.00 43.06
153.00 39.69
154.00 36.80
155.00 35.04
156.00 34.50
157.00 35.00
158.00 36.64
159.00 40.32
160.00 47.88
161.00 44.78
162.00 39.50
163.00 38.13
164.00 39.12
165.00 41.81
166.00 44.15
167.00 42.56
168.00 40.22
169.00 39.02
170.00 38.23
171.00 37.19
172.00 36.52
173.00 37.08
174.00 39.35
175.00 43.36
176.00 47.40
177.00 46.87
178.00 44.43
179.00 43.35
180.00 44.51
181.00 47.67
182.00 48.20
183.00 47.39
184.00 51.82
185.00 51.89
186.00 43.95
187.00 41.44
188.00 40.97
189.00 40.50
190.00 40.77
191.00 43.89
192.00 45.18
193.00 39.43
194.00 36.67
195.00 36.15
196.00 36.32
197.00 36.34
198.00 36.54
199.00 36.61
200.00 35.88
201.00 35.21
202.00 35.38
203.00 36.29
204.00 37.89
205.00 40.63
206.00 42.07
207.00 38.73
208.00 36.05
209.00 35.20
210.00 35.57
211.00 36.16
212.00 35.95
213.00 34.89
214.00 33.65
215.00 32.75
216.00 32.39
217.00 32.54
218.00 32.98
219.00 33.37
220.00 33.51
221.00 33.52
222.00 33.80
223.00 34.67
224.00 36.15
225.00 38.00
226.00 40.15
227.00 43.08
228.00 46.59
229.00 46.24
230.00 43.03
231.00 41.02
232.00 40.30
233.00 40.51
234.00 40.92
235.00 39.94
236.00 37.40
237.00 35.12
238.00 33.90
239.00 33.73
240.00 34.46
241.00 36.03
242.00 38.48
243.00 41.94
244.00 47.17
245.00 51.06
246.00 44.74
247.00 41.21
248.00 40.61
249.00 42.10
250.00 44.48
251.00 45.13
252.00 42.92
253.00 40.35
254.00 39.18
255.00 39.78
256.00 42.04
257.00 45.39
258.00 47.86
259.00 46.68
260.00 44.63
261.00 43.57
262.00 42.63
263.00 41.58
264.00 41.57
265.00 43.04
266.00 43.90
267.00 41.75
268.00 39.80
269.00 39.98
270.00 43.22
271.00 47.40
272.00 42.24
273.00 38.83
274.00 37.53
275.00 36.50
276.00 35.35
277.00 34.75
278.00 34.64
279.00 34.14
280.00 32.65
281.00 30.59
282.00 28.71
283.00 27.43
284.00 26.89
285.00 26.96
286.00 27.31
287.00 27.58
288.00 27.65
289.00 27.90
290.00 28.90
291.00 31.29
292.00 36.31
293.00 43.23
294.00 36.20
295.00 31.53
296.00 29.11
297.00 27.57
298.00 26.41
299.00 25.51
300.00 24.90
301.00 24.65
302.00 24.91
303.00 25.79
304.00 27.38
305.00 29.71
306.00 33.02
307.00 38.56
308.00 47.46
309.00 36.66
310.00 30.37
311.00 26.84
312.00 24.86
313.00 24.04
314.00 24.23
315.00 25.34
316.00 26.88
317.00 26.78
318.00 24.14
319.00 21.34
320.00 19.47
321.00 18.64
322.00 18.91
323.00 20.32
324.00 22.08
325.00 21.15
326.00 18.01
327.00 15.56
328.00 14.29
329.00 14.09
330.00 14.84
331.00 16.53
332.00 19.14
333.00 22.27
334.00 24.00
335.00 23.54
336.00 23.51
337.00 25.76
338.00 34.46
339.00 35.68
340.00 25.39
341.00 22.22
342.00 21.76
343.00 23.61
344.00 29.22
345.00 51.80
346.00 28.09
347.00 23.61
348.00 22.66
349.00 24.56
350.00 29.84
351.00 28.14
352.00 22.08
353.00 19.30
354.00 18.60
355.00 19.58
356.00 22.20
357.00 26.20
358.00 27.74
359.00 24.06
