NAME ATR4518R7_2535_X_CO_P45_04T_yL
FREQUENCY 2535
GAIN 15.61 dBd
TILT	ELECTRICAL
COMMENT DATE 05.08.2013 +45 degrees polarized system Lever position 04T deg
HORIZONTAL 360
0.00 0.05
1.00 0.04
2.00 0.02
3.00 0.01
4.00 0.00
5.00 0.00
6.00 0.00
7.00 0.01
8.00 0.03
9.00 0.06
10.00 0.10
11.00 0.15
12.00 0.22
13.00 0.30
14.00 0.39
15.00 0.49
16.00 0.62
17.00 0.76
18.00 0.92
19.00 1.09
20.00 1.27
21.00 1.47
22.00 1.67
23.00 1.88
24.00 2.10
25.00 2.33
26.00 2.55
27.00 2.78
28.00 3.01
29.00 3.22
30.00 3.44
31.00 3.65
32.00 3.86
33.00 4.05
34.00 4.24
35.00 4.43
36.00 4.61
37.00 4.79
38.00 4.98
39.00 5.17
40.00 5.36
41.00 5.56
42.00 5.77
43.00 5.99
44.00 6.22
45.00 6.46
46.00 6.72
47.00 6.99
48.00 7.26
49.00 7.56
50.00 7.86
51.00 8.17
52.00 8.49
53.00 8.83
54.00 9.16
55.00 9.51
56.00 9.85
57.00 10.20
58.00 10.54
59.00 10.88
60.00 11.23
61.00 11.57
62.00 11.91
63.00 12.23
64.00 12.56
65.00 12.89
66.00 13.21
67.00 13.53
68.00 13.83
69.00 14.13
70.00 14.42
71.00 14.71
72.00 14.98
73.00 15.24
74.00 15.51
75.00 15.75
76.00 15.98
77.00 16.20
78.00 16.42
79.00 16.62
80.00 16.80
81.00 16.98
82.00 17.16
83.00 17.33
84.00 17.51
85.00 17.68
86.00 17.87
87.00 18.06
88.00 18.27
89.00 18.49
90.00 18.75
91.00 19.02
92.00 19.31
93.00 19.63
94.00 19.99
95.00 20.36
96.00 20.75
97.00 21.18
98.00 21.63
99.00 22.09
100.00 22.57
101.00 23.05
102.00 23.55
103.00 24.04
104.00 24.52
105.00 25.00
106.00 25.46
107.00 25.91
108.00 26.36
109.00 26.81
110.00 27.25
111.00 27.72
112.00 28.19
113.00 28.70
114.00 29.23
115.00 29.79
116.00 30.40
117.00 31.04
118.00 31.72
119.00 32.42
120.00 33.15
121.00 33.87
122.00 34.58
123.00 35.23
124.00 35.81
125.00 36.29
126.00 36.62
127.00 36.82
128.00 36.90
129.00 36.86
130.00 36.75
131.00 36.58
132.00 36.38
133.00 36.16
134.00 35.93
135.00 35.69
136.00 35.46
137.00 35.22
138.00 34.97
139.00 34.72
140.00 34.46
141.00 34.20
142.00 33.94
143.00 33.70
144.00 33.48
145.00 33.30
146.00 33.15
147.00 33.06
148.00 33.03
149.00 33.07
150.00 33.18
151.00 33.38
152.00 33.66
153.00 34.04
154.00 34.50
155.00 35.06
156.00 35.70
157.00 36.42
158.00 37.18
159.00 37.94
160.00 38.65
161.00 39.25
162.00 39.67
163.00 39.90
164.00 39.97
165.00 39.95
166.00 39.90
167.00 39.89
168.00 39.97
169.00 40.18
170.00 40.55
171.00 41.10
172.00 41.86
173.00 42.89
174.00 44.23
175.00 45.94
176.00 48.14
177.00 50.82
178.00 53.26
179.00 53.22
180.00 50.84
181.00 48.34
182.00 46.33
183.00 44.79
184.00 43.63
185.00 42.79
186.00 42.20
187.00 41.85
188.00 41.71
189.00 41.77
190.00 42.00
191.00 42.34
192.00 42.68
193.00 42.84
194.00 42.54
195.00 41.67
196.00 40.35
197.00 38.82
198.00 37.28
199.00 35.83
200.00 34.52
201.00 33.37
202.00 32.37
203.00 31.51
204.00 30.80
205.00 30.23
206.00 29.80
207.00 29.50
208.00 29.33
209.00 29.30
210.00 29.41
211.00 29.67
212.00 30.08
213.00 30.67
214.00 31.45
215.00 32.44
216.00 33.66
217.00 35.10
218.00 36.69
219.00 38.10
220.00 38.72
221.00 38.14
222.00 36.77
223.00 35.25
224.00 33.88
225.00 32.73
226.00 31.81
227.00 31.10
228.00 30.58
229.00 30.24
230.00 30.06
231.00 30.03
232.00 30.15
233.00 30.41
234.00 30.81
235.00 31.35
236.00 32.05
237.00 32.89
238.00 33.89
239.00 35.03
240.00 36.29
241.00 37.57
242.00 38.69
243.00 39.37
244.00 39.40
245.00 38.83
246.00 37.91
247.00 36.88
248.00 35.87
249.00 34.90
250.00 33.99
251.00 33.13
252.00 32.29
253.00 31.47
254.00 30.65
255.00 29.83
256.00 29.03
257.00 28.23
258.00 27.46
259.00 26.73
260.00 26.03
261.00 25.39
262.00 24.80
263.00 24.27
264.00 23.80
265.00 23.40
266.00 23.05
267.00 22.77
268.00 22.55
269.00 22.40
270.00 22.29
271.00 22.23
272.00 22.21
273.00 22.22
274.00 22.25
275.00 22.27
276.00 22.26
277.00 22.22
278.00 22.12
279.00 21.94
280.00 21.69
281.00 21.37
282.00 20.99
283.00 20.56
284.00 20.10
285.00 19.63
286.00 19.16
287.00 18.70
288.00 18.25
289.00 17.83
290.00 17.41
291.00 17.03
292.00 16.65
293.00 16.30
294.00 15.96
295.00 15.62
296.00 15.28
297.00 14.94
298.00 14.61
299.00 14.26
300.00 13.91
301.00 13.55
302.00 13.19
303.00 12.82
304.00 12.45
305.00 12.06
306.00 11.69
307.00 11.30
308.00 10.93
309.00 10.54
310.00 10.17
311.00 9.79
312.00 9.41
313.00 9.03
314.00 8.66
315.00 8.28
316.00 7.91
317.00 7.53
318.00 7.17
319.00 6.81
320.00 6.46
321.00 6.12
322.00 5.78
323.00 5.45
324.00 5.13
325.00 4.83
326.00 4.53
327.00 4.24
328.00 3.98
329.00 3.72
330.00 3.47
331.00 3.24
332.00 3.02
333.00 2.81
334.00 2.61
335.00 2.41
336.00 2.23
337.00 2.05
338.00 1.88
339.00 1.71
340.00 1.54
341.00 1.40
342.00 1.25
343.00 1.11
344.00 0.99
345.00 0.86
346.00 0.75
347.00 0.65
348.00 0.56
349.00 0.47
350.00 0.40
351.00 0.34
352.00 0.28
353.00 0.24
354.00 0.20
355.00 0.17
356.00 0.14
357.00 0.11
358.00 0.09
359.00 0.07
VERTICAL 360
0.00 10.03
1.00 5.76
2.00 2.72
3.00 0.82
4.00 0.00
5.00 0.28
6.00 1.81
7.00 5.04
8.00 11.49
9.00 58.60
10.00 15.11
11.00 12.60
12.00 14.53
13.00 20.42
14.00 18.41
15.00 13.72
16.00 12.45
17.00 13.93
18.00 19.14
19.00 27.58
20.00 18.89
21.00 16.26
22.00 17.47
23.00 23.65
24.00 29.43
25.00 18.95
26.00 15.89
27.00 15.87
28.00 18.47
29.00 24.35
30.00 26.52
31.00 22.09
32.00 20.60
33.00 21.23
34.00 23.63
35.00 27.48
36.00 28.10
37.00 25.56
38.00 25.21
39.00 28.15
40.00 33.73
41.00 28.68
42.00 24.70
43.00 23.05
44.00 22.62
45.00 23.26
46.00 25.43
47.00 30.33
48.00 41.89
49.00 32.14
50.00 27.09
51.00 25.15
52.00 25.11
53.00 26.79
54.00 30.03
55.00 33.84
56.00 36.90
57.00 39.44
58.00 42.50
59.00 42.65
60.00 36.34
61.00 33.42
62.00 33.56
63.00 35.84
64.00 38.96
65.00 41.37
66.00 44.04
67.00 45.26
68.00 38.46
69.00 34.67
70.00 33.36
71.00 33.09
72.00 33.17
73.00 33.28
74.00 32.82
75.00 32.34
76.00 32.19
77.00 32.24
78.00 33.34
79.00 36.24
80.00 39.95
81.00 42.17
82.00 44.61
83.00 53.64
84.00 42.42
85.00 35.53
86.00 32.58
87.00 30.77
88.00 29.62
89.00 30.61
90.00 35.51
91.00 39.00
92.00 35.03
93.00 36.79
94.00 47.28
95.00 42.15
96.00 39.77
97.00 42.45
98.00 44.47
99.00 40.04
100.00 35.78
101.00 34.08
102.00 34.86
103.00 37.32
104.00 39.38
105.00 38.88
106.00 36.54
107.00 34.69
108.00 34.17
109.00 34.52
110.00 34.64
111.00 33.76
112.00 32.22
113.00 30.97
114.00 30.60
115.00 31.05
116.00 31.74
117.00 31.86
118.00 31.30
119.00 30.67
120.00 30.33
121.00 30.23
122.00 30.52
123.00 31.51
124.00 33.39
125.00 36.31
126.00 40.76
127.00 44.72
128.00 41.36
129.00 38.94
130.00 38.11
131.00 36.96
132.00 35.56
133.00 35.26
134.00 36.12
135.00 36.93
136.00 37.46
137.00 38.28
138.00 37.20
139.00 34.71
140.00 33.19
141.00 32.73
142.00 32.99
143.00 33.78
144.00 34.57
145.00 35.29
146.00 36.82
147.00 39.70
148.00 41.70
149.00 38.91
150.00 36.05
151.00 35.21
152.00 36.00
153.00 36.83
154.00 35.86
155.00 33.83
156.00 32.54
157.00 32.80
158.00 34.21
159.00 35.45
160.00 36.92
161.00 40.69
162.00 45.58
163.00 43.65
164.00 42.60
165.00 42.60
166.00 42.18
167.00 42.65
168.00 45.01
169.00 49.79
170.00 55.95
171.00 46.19
172.00 42.24
173.00 43.53
174.00 53.67
175.00 46.45
176.00 42.79
177.00 43.99
178.00 45.71
179.00 41.82
180.00 36.46
181.00 33.10
182.00 32.36
183.00 34.25
184.00 37.61
185.00 37.56
186.00 35.42
187.00 34.94
188.00 36.28
189.00 37.65
190.00 37.45
191.00 37.92
192.00 39.74
193.00 41.33
194.00 42.12
195.00 43.14
196.00 42.18
197.00 39.05
198.00 38.08
199.00 40.64
200.00 47.20
201.00 46.59
202.00 42.40
203.00 40.06
204.00 41.84
205.00 70.77
206.00 39.75
207.00 34.98
208.00 33.91
209.00 34.52
210.00 37.02
211.00 44.71
212.00 50.22
213.00 42.01
214.00 41.76
215.00 41.73
216.00 40.67
217.00 40.50
218.00 40.61
219.00 42.20
220.00 46.84
221.00 41.63
222.00 36.23
223.00 33.71
224.00 32.63
225.00 31.95
226.00 31.56
227.00 32.18
228.00 34.31
229.00 37.80
230.00 41.31
231.00 42.59
232.00 42.48
233.00 43.07
234.00 45.12
235.00 48.64
236.00 48.58
237.00 45.31
238.00 44.27
239.00 45.18
240.00 47.56
241.00 53.25
242.00 60.95
243.00 51.33
244.00 48.38
245.00 47.01
246.00 44.47
247.00 40.48
248.00 36.70
249.00 34.05
250.00 32.97
251.00 33.79
252.00 36.84
253.00 41.72
254.00 42.08
255.00 39.21
256.00 38.43
257.00 40.40
258.00 45.70
259.00 50.17
260.00 46.33
261.00 42.28
262.00 39.65
263.00 38.32
264.00 37.03
265.00 35.15
266.00 33.88
267.00 34.66
268.00 38.10
269.00 36.55
270.00 30.98
271.00 27.44
272.00 25.43
273.00 24.77
274.00 25.43
275.00 27.19
276.00 29.82
277.00 33.18
278.00 35.53
279.00 34.82
280.00 33.47
281.00 32.20
282.00 31.48
283.00 31.66
284.00 32.11
285.00 32.16
286.00 32.19
287.00 32.51
288.00 31.98
289.00 29.22
290.00 25.82
291.00 23.11
292.00 21.16
293.00 19.67
294.00 18.26
295.00 16.76
296.00 15.22
297.00 13.82
298.00 12.70
299.00 11.93
300.00 11.54
301.00 11.56
302.00 11.99
303.00 12.86
304.00 14.25
305.00 16.40
306.00 19.73
307.00 24.37
308.00 25.30
309.00 21.88
310.00 19.85
311.00 19.64
312.00 21.48
313.00 27.03
314.00 42.49
315.00 24.76
316.00 20.03
317.00 17.97
318.00 17.53
319.00 18.85
320.00 23.08
321.00 37.98
322.00 25.45
323.00 20.43
324.00 19.41
325.00 21.33
326.00 28.96
327.00 28.76
328.00 19.54
329.00 16.28
330.00 15.59
331.00 16.87
332.00 20.13
333.00 26.32
334.00 44.78
335.00 33.07
336.00 28.69
337.00 25.55
338.00 21.65
339.00 18.88
340.00 17.98
341.00 19.28
342.00 23.70
343.00 28.72
344.00 21.97
345.00 18.57
346.00 18.09
347.00 20.47
348.00 27.55
349.00 27.01
350.00 21.41
351.00 20.91
352.00 25.20
353.00 35.93
354.00 23.24
355.00 19.49
356.00 18.91
357.00 20.14
358.00 20.31
359.00 15.51
