NAME ATR4518R7_2350_X_CO_P45_02T_yyR
FREQUENCY 2350
GAIN 15.60 dBd
TILT	ELECTRICAL
COMMENT DATE 05.08.2013 +45 degrees polarized system Lever position 02T deg
HORIZONTAL 360
0.00 0.00
1.00 0.00
2.00 0.00
3.00 0.01
4.00 0.03
5.00 0.05
6.00 0.08
7.00 0.12
8.00 0.16
9.00 0.21
10.00 0.26
11.00 0.32
12.00 0.39
13.00 0.46
14.00 0.53
15.00 0.61
16.00 0.70
17.00 0.79
18.00 0.88
19.00 0.98
20.00 1.08
21.00 1.19
22.00 1.30
23.00 1.42
24.00 1.54
25.00 1.67
26.00 1.81
27.00 1.95
28.00 2.10
29.00 2.26
30.00 2.42
31.00 2.59
32.00 2.77
33.00 2.96
34.00 3.15
35.00 3.36
36.00 3.57
37.00 3.79
38.00 4.02
39.00 4.26
40.00 4.51
41.00 4.77
42.00 5.04
43.00 5.32
44.00 5.61
45.00 5.90
46.00 6.21
47.00 6.52
48.00 6.85
49.00 7.18
50.00 7.52
51.00 7.87
52.00 8.22
53.00 8.59
54.00 8.96
55.00 9.34
56.00 9.72
57.00 10.12
58.00 10.51
59.00 10.92
60.00 11.33
61.00 11.75
62.00 12.17
63.00 12.60
64.00 13.03
65.00 13.47
66.00 13.92
67.00 14.37
68.00 14.83
69.00 15.30
70.00 15.77
71.00 16.25
72.00 16.75
73.00 17.24
74.00 17.75
75.00 18.26
76.00 18.78
77.00 19.31
78.00 19.86
79.00 20.41
80.00 20.96
81.00 21.53
82.00 22.11
83.00 22.69
84.00 23.28
85.00 23.87
86.00 24.47
87.00 25.07
88.00 25.67
89.00 26.27
90.00 26.86
91.00 27.45
92.00 28.02
93.00 28.57
94.00 29.10
95.00 29.62
96.00 30.10
97.00 30.56
98.00 30.98
99.00 31.38
100.00 31.75
101.00 32.09
102.00 32.41
103.00 32.72
104.00 33.02
105.00 33.32
106.00 33.63
107.00 33.95
108.00 34.30
109.00 34.68
110.00 35.11
111.00 35.58
112.00 36.12
113.00 36.73
114.00 37.44
115.00 38.25
116.00 39.18
117.00 40.24
118.00 41.49
119.00 42.92
120.00 44.53
121.00 46.26
122.00 47.76
123.00 48.47
124.00 47.95
125.00 46.63
126.00 45.11
127.00 43.71
128.00 42.50
129.00 41.50
130.00 40.67
131.00 40.01
132.00 39.49
133.00 39.10
134.00 38.83
135.00 38.67
136.00 38.62
137.00 38.66
138.00 38.80
139.00 39.04
140.00 39.35
141.00 39.76
142.00 40.24
143.00 40.80
144.00 41.40
145.00 42.01
146.00 42.59
147.00 43.07
148.00 43.37
149.00 43.44
150.00 43.26
151.00 42.87
152.00 42.33
153.00 41.73
154.00 41.10
155.00 40.50
156.00 39.94
157.00 39.43
158.00 38.99
159.00 38.60
160.00 38.27
161.00 37.99
162.00 37.77
163.00 37.60
164.00 37.46
165.00 37.36
166.00 37.29
167.00 37.25
168.00 37.23
169.00 37.22
170.00 37.23
171.00 37.25
172.00 37.26
173.00 37.29
174.00 37.30
175.00 37.32
176.00 37.33
177.00 37.33
178.00 37.33
179.00 37.31
180.00 37.27
181.00 37.21
182.00 37.12
183.00 36.99
184.00 36.81
185.00 36.59
186.00 36.33
187.00 36.03
188.00 35.68
189.00 35.32
190.00 34.94
191.00 34.55
192.00 34.18
193.00 33.83
194.00 33.50
195.00 33.22
196.00 32.98
197.00 32.79
198.00 32.67
199.00 32.61
200.00 32.62
201.00 32.71
202.00 32.88
203.00 33.15
204.00 33.51
205.00 33.98
206.00 34.58
207.00 35.31
208.00 36.21
209.00 37.28
210.00 38.56
211.00 40.06
212.00 41.72
213.00 43.31
214.00 44.26
215.00 43.96
216.00 42.67
217.00 41.07
218.00 39.59
219.00 38.30
220.00 37.24
221.00 36.38
222.00 35.70
223.00 35.19
224.00 34.82
225.00 34.58
226.00 34.46
227.00 34.47
228.00 34.58
229.00 34.79
230.00 35.08
231.00 35.44
232.00 35.83
233.00 36.23
234.00 36.56
235.00 36.76
236.00 36.77
237.00 36.56
238.00 36.16
239.00 35.61
240.00 34.97
241.00 34.31
242.00 33.66
243.00 33.05
244.00 32.49
245.00 32.00
246.00 31.58
247.00 31.22
248.00 30.93
249.00 30.70
250.00 30.53
251.00 30.41
252.00 30.35
253.00 30.34
254.00 30.37
255.00 30.45
256.00 30.56
257.00 30.70
258.00 30.86
259.00 31.04
260.00 31.23
261.00 31.41
262.00 31.58
263.00 31.71
264.00 31.80
265.00 31.82
266.00 31.76
267.00 31.62
268.00 31.38
269.00 31.05
270.00 30.64
271.00 30.15
272.00 29.60
273.00 29.01
274.00 28.40
275.00 27.76
276.00 27.12
277.00 26.47
278.00 25.83
279.00 25.19
280.00 24.56
281.00 23.95
282.00 23.34
283.00 22.75
284.00 22.17
285.00 21.60
286.00 21.05
287.00 20.50
288.00 19.96
289.00 19.42
290.00 18.90
291.00 18.38
292.00 17.87
293.00 17.36
294.00 16.85
295.00 16.35
296.00 15.85
297.00 15.36
298.00 14.87
299.00 14.38
300.00 13.89
301.00 13.41
302.00 12.94
303.00 12.47
304.00 12.00
305.00 11.54
306.00 11.09
307.00 10.65
308.00 10.22
309.00 9.79
310.00 9.38
311.00 8.97
312.00 8.57
313.00 8.19
314.00 7.81
315.00 7.45
316.00 7.09
317.00 6.76
318.00 6.42
319.00 6.11
320.00 5.80
321.00 5.50
322.00 5.22
323.00 4.94
324.00 4.68
325.00 4.42
326.00 4.18
327.00 3.94
328.00 3.72
329.00 3.50
330.00 3.29
331.00 3.09
332.00 2.90
333.00 2.71
334.00 2.53
335.00 2.36
336.00 2.19
337.00 2.03
338.00 1.87
339.00 1.73
340.00 1.58
341.00 1.44
342.00 1.31
343.00 1.18
344.00 1.06
345.00 0.94
346.00 0.83
347.00 0.73
348.00 0.63
349.00 0.54
350.00 0.46
351.00 0.38
352.00 0.31
353.00 0.24
354.00 0.19
355.00 0.14
356.00 0.10
357.00 0.06
358.00 0.04
359.00 0.02
VERTICAL 360
0.00 2.15
1.00 0.58
2.00 0.00
3.00 0.42
4.00 2.00
5.00 5.17
6.00 11.28
7.00 21.17
8.00 14.83
9.00 11.41
10.00 11.72
11.00 15.31
12.00 24.76
13.00 20.67
14.00 14.97
15.00 13.85
16.00 15.51
17.00 19.93
18.00 24.19
19.00 21.08
20.00 18.59
21.00 18.82
22.00 22.75
23.00 31.02
24.00 22.40
25.00 17.76
26.00 16.52
27.00 16.81
28.00 17.41
29.00 17.45
30.00 16.98
31.00 16.52
32.00 16.28
33.00 16.22
34.00 16.26
35.00 16.58
36.00 17.54
37.00 19.54
38.00 22.93
39.00 28.68
40.00 36.77
41.00 29.05
42.00 23.74
43.00 21.91
44.00 22.67
45.00 26.55
46.00 41.13
47.00 33.55
48.00 26.32
49.00 23.66
50.00 22.67
51.00 22.75
52.00 23.61
53.00 25.15
54.00 27.55
55.00 31.84
56.00 42.86
57.00 40.65
58.00 34.05
59.00 33.41
60.00 36.17
61.00 43.87
62.00 45.99
63.00 36.81
64.00 32.30
65.00 29.50
66.00 27.84
67.00 27.10
68.00 27.09
69.00 27.54
70.00 28.12
71.00 28.46
72.00 28.61
73.00 28.93
74.00 29.62
75.00 30.27
76.00 30.10
77.00 29.07
78.00 27.97
79.00 27.50
80.00 27.86
81.00 28.75
82.00 29.31
83.00 28.82
84.00 27.95
85.00 27.87
86.00 28.89
87.00 30.41
88.00 31.43
89.00 31.40
90.00 30.68
91.00 30.17
92.00 30.65
93.00 33.04
94.00 39.22
95.00 41.29
96.00 36.17
97.00 35.93
98.00 39.75
99.00 51.05
100.00 44.22
101.00 37.20
102.00 34.95
103.00 35.33
104.00 37.96
105.00 41.92
106.00 40.97
107.00 38.38
108.00 38.67
109.00 41.36
110.00 44.95
111.00 46.65
112.00 45.16
113.00 44.66
114.00 46.67
115.00 48.94
116.00 48.42
117.00 45.26
118.00 42.72
119.00 42.09
120.00 42.19
121.00 41.24
122.00 39.38
123.00 38.44
124.00 39.52
125.00 40.73
126.00 38.54
127.00 37.15
128.00 38.76
129.00 41.28
130.00 39.67
131.00 38.73
132.00 40.67
133.00 42.00
134.00 40.00
135.00 38.49
136.00 37.92
137.00 38.00
138.00 38.70
139.00 39.80
140.00 41.13
141.00 42.66
142.00 43.52
143.00 42.45
144.00 41.82
145.00 44.09
146.00 50.70
147.00 53.80
148.00 45.61
149.00 42.01
150.00 44.56
151.00 48.93
152.00 38.79
153.00 36.10
154.00 37.87
155.00 41.23
156.00 40.29
157.00 38.89
158.00 38.80
159.00 39.75
160.00 40.11
161.00 38.80
162.00 38.94
163.00 40.73
164.00 41.10
165.00 40.83
166.00 41.32
167.00 42.21
168.00 45.07
169.00 46.86
170.00 42.22
171.00 38.44
172.00 36.32
173.00 36.09
174.00 38.10
175.00 40.89
176.00 39.34
177.00 37.10
178.00 37.21
179.00 39.24
180.00 39.32
181.00 36.48
182.00 34.62
183.00 34.82
184.00 36.87
185.00 39.49
186.00 42.80
187.00 51.23
188.00 49.55
189.00 48.25
190.00 52.71
191.00 45.00
192.00 43.92
193.00 47.84
194.00 46.69
195.00 47.96
196.00 50.30
197.00 40.62
198.00 37.54
199.00 37.51
200.00 37.80
201.00 37.36
202.00 38.10
203.00 41.61
204.00 46.38
205.00 45.00
206.00 44.46
207.00 47.33
208.00 47.00
209.00 42.01
210.00 39.84
211.00 41.05
212.00 43.48
213.00 41.49
214.00 39.36
215.00 38.10
216.00 36.78
217.00 36.73
218.00 38.50
219.00 39.72
220.00 38.50
221.00 37.50
222.00 37.46
223.00 37.83
224.00 38.38
225.00 39.35
226.00 40.30
227.00 38.74
228.00 35.72
229.00 34.28
230.00 35.30
231.00 39.58
232.00 51.57
233.00 53.13
234.00 43.75
235.00 39.96
236.00 38.80
237.00 40.19
238.00 43.80
239.00 46.27
240.00 43.93
241.00 40.82
242.00 38.38
243.00 37.29
244.00 37.96
245.00 39.34
246.00 38.45
247.00 36.48
248.00 35.45
249.00 35.22
250.00 35.31
251.00 35.05
252.00 33.77
253.00 31.49
254.00 28.98
255.00 26.98
256.00 25.81
257.00 25.33
258.00 25.20
259.00 25.00
260.00 24.58
261.00 24.15
262.00 24.00
263.00 24.26
264.00 24.78
265.00 25.28
266.00 25.60
267.00 25.80
268.00 26.14
269.00 26.95
270.00 28.45
271.00 30.46
272.00 32.18
273.00 32.71
274.00 32.20
275.00 31.09
276.00 29.40
277.00 27.34
278.00 25.25
279.00 23.46
280.00 22.23
281.00 21.69
282.00 21.68
283.00 21.87
284.00 21.96
285.00 21.95
286.00 22.09
287.00 22.46
288.00 22.72
289.00 22.47
290.00 21.96
291.00 21.79
292.00 22.36
293.00 23.90
294.00 26.80
295.00 32.21
296.00 41.22
297.00 34.72
298.00 29.36
299.00 26.90
300.00 25.77
301.00 25.58
302.00 26.27
303.00 27.76
304.00 29.29
305.00 29.74
306.00 29.88
307.00 31.35
308.00 32.14
309.00 28.46
310.00 25.61
311.00 25.54
312.00 28.94
313.00 34.97
314.00 29.04
315.00 24.16
316.00 22.20
317.00 22.09
318.00 23.87
319.00 28.67
320.00 41.65
321.00 31.75
322.00 25.47
323.00 22.87
324.00 22.17
325.00 23.05
326.00 24.96
327.00 25.98
328.00 24.71
329.00 23.07
330.00 22.30
331.00 22.62
332.00 23.89
333.00 23.83
334.00 21.09
335.00 19.19
336.00 19.64
337.00 23.17
338.00 34.16
339.00 35.28
340.00 27.09
341.00 25.76
342.00 27.53
343.00 33.66
344.00 34.63
345.00 26.69
346.00 23.67
347.00 23.83
348.00 27.37
349.00 34.02
350.00 31.35
351.00 29.08
352.00 32.54
353.00 32.97
354.00 25.74
355.00 24.51
356.00 24.99
357.00 16.11
358.00 9.20
359.00 4.88
