NAME ATR4518R7_2535_X_CO_P45_00T_yyR
FREQUENCY 2535
GAIN 15.42 dBd
TILT	ELECTRICAL
COMMENT DATE 05.08.2013 +45 degrees polarized system Lever position 00T deg
HORIZONTAL 360
0.00 0.01
1.00 0.03
2.00 0.06
3.00 0.09
4.00 0.13
5.00 0.19
6.00 0.24
7.00 0.31
8.00 0.38
9.00 0.46
10.00 0.55
11.00 0.64
12.00 0.73
13.00 0.83
14.00 0.93
15.00 1.03
16.00 1.14
17.00 1.25
18.00 1.35
19.00 1.46
20.00 1.57
21.00 1.68
22.00 1.79
23.00 1.91
24.00 2.02
25.00 2.14
26.00 2.26
27.00 2.38
28.00 2.52
29.00 2.66
30.00 2.80
31.00 2.96
32.00 3.13
33.00 3.31
34.00 3.50
35.00 3.70
36.00 3.92
37.00 4.15
38.00 4.40
39.00 4.67
40.00 4.95
41.00 5.24
42.00 5.56
43.00 5.89
44.00 6.24
45.00 6.61
46.00 7.00
47.00 7.40
48.00 7.83
49.00 8.27
50.00 8.73
51.00 9.22
52.00 9.72
53.00 10.25
54.00 10.81
55.00 11.39
56.00 12.00
57.00 12.63
58.00 13.30
59.00 13.99
60.00 14.73
61.00 15.50
62.00 16.32
63.00 17.18
64.00 18.09
65.00 19.04
66.00 20.06
67.00 21.14
68.00 22.28
69.00 23.50
70.00 24.80
71.00 26.19
72.00 27.68
73.00 29.29
74.00 31.03
75.00 32.93
76.00 35.01
77.00 37.25
78.00 39.59
79.00 41.63
80.00 42.51
81.00 41.88
82.00 40.40
83.00 38.78
84.00 37.30
85.00 36.01
86.00 34.88
87.00 33.91
88.00 33.07
89.00 32.35
90.00 31.74
91.00 31.24
92.00 30.83
93.00 30.53
94.00 30.31
95.00 30.19
96.00 30.15
97.00 30.20
98.00 30.33
99.00 30.55
100.00 30.84
101.00 31.19
102.00 31.60
103.00 32.05
104.00 32.50
105.00 32.94
106.00 33.31
107.00 33.60
108.00 33.77
109.00 33.82
110.00 33.77
111.00 33.66
112.00 33.52
113.00 33.38
114.00 33.28
115.00 33.22
116.00 33.23
117.00 33.29
118.00 33.41
119.00 33.55
120.00 33.70
121.00 33.82
122.00 33.87
123.00 33.82
124.00 33.66
125.00 33.40
126.00 33.05
127.00 32.68
128.00 32.32
129.00 32.00
130.00 31.75
131.00 31.61
132.00 31.58
133.00 31.69
134.00 31.95
135.00 32.38
136.00 33.02
137.00 33.89
138.00 35.07
139.00 36.62
140.00 38.69
141.00 41.43
142.00 44.74
143.00 46.15
144.00 43.45
145.00 40.24
146.00 37.74
147.00 35.87
148.00 34.45
149.00 33.39
150.00 32.62
151.00 32.08
152.00 31.76
153.00 31.62
154.00 31.67
155.00 31.88
156.00 32.26
157.00 32.79
158.00 33.45
159.00 34.20
160.00 34.96
161.00 35.63
162.00 36.03
163.00 36.07
164.00 35.75
165.00 35.19
166.00 34.54
167.00 33.92
168.00 33.40
169.00 33.01
170.00 32.78
171.00 32.72
172.00 32.82
173.00 33.10
174.00 33.59
175.00 34.28
176.00 35.22
177.00 36.44
178.00 38.01
179.00 40.00
180.00 42.46
181.00 45.13
182.00 46.46
183.00 45.08
184.00 42.73
185.00 40.69
186.00 39.13
187.00 37.98
188.00 37.16
189.00 36.63
190.00 36.34
191.00 36.26
192.00 36.38
193.00 36.69
194.00 37.17
195.00 37.80
196.00 38.57
197.00 39.43
198.00 40.30
199.00 41.04
200.00 41.53
201.00 41.67
202.00 41.49
203.00 41.11
204.00 40.67
205.00 40.27
206.00 39.98
207.00 39.82
208.00 39.81
209.00 39.94
210.00 40.19
211.00 40.55
212.00 40.95
213.00 41.31
214.00 41.53
215.00 41.51
216.00 41.19
217.00 40.63
218.00 39.92
219.00 39.14
220.00 38.38
221.00 37.68
222.00 37.06
223.00 36.53
224.00 36.09
225.00 35.72
226.00 35.43
227.00 35.21
228.00 35.03
229.00 34.89
230.00 34.77
231.00 34.68
232.00 34.58
233.00 34.49
234.00 34.39
235.00 34.30
236.00 34.20
237.00 34.11
238.00 34.05
239.00 34.01
240.00 34.02
241.00 34.07
242.00 34.19
243.00 34.39
244.00 34.66
245.00 35.04
246.00 35.52
247.00 36.12
248.00 36.87
249.00 37.76
250.00 38.83
251.00 40.08
252.00 41.49
253.00 42.92
254.00 44.03
255.00 44.27
256.00 43.43
257.00 41.99
258.00 40.42
259.00 38.94
260.00 37.63
261.00 36.47
262.00 35.44
263.00 34.53
264.00 33.70
265.00 32.95
266.00 32.25
267.00 31.58
268.00 30.93
269.00 30.30
270.00 29.67
271.00 29.04
272.00 28.41
273.00 27.77
274.00 27.13
275.00 26.50
276.00 25.86
277.00 25.23
278.00 24.61
279.00 23.99
280.00 23.39
281.00 22.80
282.00 22.23
283.00 21.67
284.00 21.12
285.00 20.58
286.00 20.05
287.00 19.54
288.00 19.04
289.00 18.54
290.00 18.05
291.00 17.57
292.00 17.09
293.00 16.62
294.00 16.15
295.00 15.68
296.00 15.22
297.00 14.76
298.00 14.30
299.00 13.84
300.00 13.38
301.00 12.92
302.00 12.47
303.00 12.02
304.00 11.57
305.00 11.13
306.00 10.69
307.00 10.26
308.00 9.83
309.00 9.41
310.00 9.00
311.00 8.59
312.00 8.19
313.00 7.80
314.00 7.42
315.00 7.05
316.00 6.69
317.00 6.33
318.00 5.99
319.00 5.66
320.00 5.34
321.00 5.03
322.00 4.73
323.00 4.44
324.00 4.17
325.00 3.90
326.00 3.65
327.00 3.40
328.00 3.17
329.00 2.94
330.00 2.73
331.00 2.52
332.00 2.33
333.00 2.15
334.00 1.97
335.00 1.81
336.00 1.65
337.00 1.50
338.00 1.36
339.00 1.23
340.00 1.11
341.00 0.99
342.00 0.89
343.00 0.78
344.00 0.69
345.00 0.60
346.00 0.52
347.00 0.44
348.00 0.37
349.00 0.30
350.00 0.24
351.00 0.19
352.00 0.14
353.00 0.10
354.00 0.07
355.00 0.04
356.00 0.02
357.00 0.01
358.00 0.00
359.00 0.00
VERTICAL 360
0.00 0.00
1.00 0.56
2.00 2.52
3.00 6.54
4.00 15.12
5.00 24.92
6.00 14.68
7.00 13.65
8.00 16.52
9.00 19.33
10.00 15.46
11.00 12.79
12.00 12.96
13.00 15.66
14.00 19.34
15.00 18.78
16.00 16.74
17.00 16.19
18.00 17.56
19.00 22.37
20.00 27.31
21.00 20.12
22.00 16.86
23.00 16.37
24.00 17.01
25.00 17.56
26.00 17.37
27.00 16.33
28.00 14.92
29.00 13.68
30.00 13.04
31.00 13.40
32.00 15.24
33.00 19.33
34.00 25.86
35.00 23.97
36.00 19.75
37.00 18.36
38.00 19.31
39.00 23.09
40.00 28.86
41.00 25.59
42.00 21.93
43.00 20.64
44.00 20.72
45.00 22.40
46.00 27.62
47.00 33.50
48.00 25.12
49.00 21.90
50.00 21.87
51.00 23.59
52.00 25.89
53.00 28.66
54.00 31.86
55.00 28.31
56.00 23.84
57.00 22.42
58.00 23.59
59.00 26.87
60.00 30.73
61.00 30.75
62.00 27.52
63.00 24.93
64.00 23.33
65.00 22.41
66.00 22.12
67.00 22.34
68.00 22.90
69.00 23.65
70.00 24.46
71.00 25.34
72.00 26.38
73.00 27.20
74.00 27.69
75.00 28.09
76.00 28.37
77.00 29.39
78.00 32.74
79.00 40.21
80.00 39.42
81.00 34.79
82.00 32.98
83.00 31.67
84.00 30.14
85.00 28.88
86.00 28.42
87.00 28.57
88.00 29.07
89.00 31.06
90.00 35.82
91.00 31.42
92.00 26.49
93.00 25.83
94.00 28.75
95.00 31.80
96.00 30.74
97.00 32.29
98.00 35.48
99.00 34.51
100.00 37.25
101.00 37.42
102.00 32.16
103.00 32.46
104.00 37.16
105.00 37.06
106.00 36.17
107.00 41.84
108.00 52.54
109.00 38.07
110.00 33.87
111.00 32.57
112.00 32.44
113.00 32.30
114.00 32.81
115.00 33.75
116.00 33.55
117.00 33.55
118.00 35.27
119.00 37.89
120.00 38.31
121.00 37.17
122.00 37.79
123.00 37.92
124.00 34.72
125.00 32.76
126.00 32.88
127.00 34.65
128.00 38.90
129.00 44.03
130.00 41.38
131.00 39.81
132.00 36.66
133.00 34.22
134.00 35.83
135.00 40.55
136.00 35.71
137.00 31.80
138.00 31.02
139.00 32.49
140.00 36.50
141.00 41.86
142.00 42.76
143.00 42.46
144.00 37.77
145.00 33.98
146.00 32.87
147.00 33.18
148.00 33.23
149.00 32.24
150.00 31.76
151.00 33.42
152.00 37.13
153.00 37.94
154.00 37.57
155.00 39.47
156.00 40.98
157.00 42.77
158.00 42.47
159.00 39.85
160.00 39.09
161.00 35.90
162.00 33.52
163.00 35.32
164.00 45.41
165.00 45.42
166.00 42.90
167.00 54.35
168.00 43.54
169.00 40.95
170.00 40.52
171.00 37.89
172.00 37.61
173.00 40.77
174.00 44.76
175.00 44.59
176.00 42.60
177.00 41.28
178.00 40.07
179.00 38.57
180.00 38.95
181.00 40.99
182.00 39.03
183.00 36.55
184.00 37.44
185.00 40.89
186.00 39.43
187.00 36.53
188.00 36.62
189.00 39.69
190.00 44.96
191.00 43.62
192.00 39.26
193.00 36.66
194.00 35.51
195.00 35.81
196.00 37.63
197.00 41.37
198.00 51.50
199.00 51.76
200.00 42.92
201.00 41.92
202.00 44.87
203.00 57.56
204.00 50.61
205.00 45.40
206.00 49.33
207.00 50.79
208.00 44.42
209.00 45.41
210.00 52.23
211.00 60.38
212.00 48.34
213.00 42.33
214.00 43.48
215.00 46.10
216.00 39.42
217.00 37.25
218.00 37.66
219.00 36.57
220.00 35.43
221.00 35.95
222.00 37.15
223.00 38.57
224.00 40.63
225.00 41.46
226.00 38.25
227.00 34.87
228.00 33.98
229.00 35.97
230.00 38.76
231.00 36.90
232.00 34.93
233.00 34.96
234.00 35.91
235.00 36.27
236.00 35.98
237.00 36.68
238.00 39.90
239.00 47.53
240.00 63.32
241.00 65.97
242.00 57.07
243.00 45.07
244.00 38.22
245.00 34.74
246.00 33.01
247.00 30.98
248.00 28.64
249.00 27.22
250.00 27.00
251.00 27.68
252.00 28.57
253.00 28.66
254.00 28.05
255.00 27.94
256.00 29.19
257.00 32.11
258.00 36.00
259.00 38.52
260.00 38.34
261.00 37.97
262.00 42.46
263.00 52.33
264.00 38.17
265.00 36.48
266.00 40.14
267.00 48.68
268.00 56.21
269.00 42.79
270.00 35.40
271.00 32.73
272.00 32.49
273.00 33.06
274.00 34.38
275.00 38.15
276.00 39.67
277.00 36.75
278.00 36.72
279.00 37.04
280.00 36.66
281.00 38.02
282.00 37.04
283.00 32.89
284.00 28.79
285.00 25.46
286.00 23.15
287.00 21.39
288.00 19.82
289.00 18.49
290.00 17.49
291.00 16.78
292.00 16.28
293.00 16.03
294.00 16.27
295.00 17.31
296.00 19.37
297.00 22.59
298.00 27.35
299.00 38.42
300.00 35.69
301.00 25.74
302.00 22.20
303.00 21.06
304.00 21.36
305.00 22.44
306.00 23.86
307.00 25.59
308.00 27.41
309.00 28.03
310.00 26.97
311.00 25.41
312.00 24.15
313.00 23.95
314.00 25.26
315.00 26.27
316.00 24.34
317.00 22.73
318.00 23.34
319.00 26.13
320.00 29.86
321.00 29.66
322.00 25.05
323.00 21.64
324.00 20.34
325.00 20.85
326.00 22.57
327.00 23.94
328.00 23.23
329.00 21.74
330.00 20.82
331.00 20.27
332.00 19.32
333.00 17.93
334.00 16.97
335.00 17.18
336.00 19.31
337.00 25.44
338.00 34.99
339.00 23.36
340.00 19.68
341.00 19.60
342.00 22.83
343.00 36.31
344.00 29.41
345.00 22.36
346.00 21.04
347.00 22.40
348.00 24.26
349.00 24.15
350.00 24.85
351.00 28.28
352.00 26.34
353.00 22.96
354.00 24.57
355.00 19.99
356.00 11.16
357.00 5.78
358.00 2.50
359.00 0.65
