NAME ATR4518R7_0947_X_CO_P45_05T
FREQUENCY 0947
GAIN 14.92 dBd
TILT	ELECTRICAL
COMMENT DATE 05.08.2013 +45 degrees polarized system Lever position 05T deg
HORIZONTAL 360
0.00 0.02
1.00 0.01
2.00 0.00
3.00 0.00
4.00 0.01
5.00 0.02
6.00 0.04
7.00 0.07
8.00 0.10
9.00 0.14
10.00 0.19
11.00 0.24
12.00 0.30
13.00 0.37
14.00 0.44
15.00 0.52
16.00 0.61
17.00 0.70
18.00 0.80
19.00 0.91
20.00 1.02
21.00 1.14
22.00 1.26
23.00 1.39
24.00 1.53
25.00 1.67
26.00 1.82
27.00 1.98
28.00 2.14
29.00 2.31
30.00 2.48
31.00 2.66
32.00 2.85
33.00 3.04
34.00 3.23
35.00 3.44
36.00 3.65
37.00 3.86
38.00 4.08
39.00 4.30
40.00 4.53
41.00 4.77
42.00 5.01
43.00 5.26
44.00 5.51
45.00 5.77
46.00 6.03
47.00 6.30
48.00 6.56
49.00 6.84
50.00 7.12
51.00 7.41
52.00 7.70
53.00 8.00
54.00 8.30
55.00 8.61
56.00 8.92
57.00 9.24
58.00 9.56
59.00 9.89
60.00 10.22
61.00 10.56
62.00 10.90
63.00 11.25
64.00 11.60
65.00 11.97
66.00 12.33
67.00 12.70
68.00 13.08
69.00 13.47
70.00 13.86
71.00 14.26
72.00 14.67
73.00 15.08
74.00 15.50
75.00 15.93
76.00 16.37
77.00 16.81
78.00 17.26
79.00 17.73
80.00 18.19
81.00 18.67
82.00 19.16
83.00 19.66
84.00 20.16
85.00 20.67
86.00 21.19
87.00 21.72
88.00 22.26
89.00 22.81
90.00 23.36
91.00 23.92
92.00 24.49
93.00 25.06
94.00 25.64
95.00 26.22
96.00 26.80
97.00 27.38
98.00 27.96
99.00 28.54
100.00 29.11
101.00 29.67
102.00 30.22
103.00 30.76
104.00 31.27
105.00 31.75
106.00 32.21
107.00 32.63
108.00 33.02
109.00 33.37
110.00 33.66
111.00 33.92
112.00 34.12
113.00 34.28
114.00 34.39
115.00 34.46
116.00 34.49
117.00 34.48
118.00 34.44
119.00 34.37
120.00 34.29
121.00 34.18
122.00 34.06
123.00 33.93
124.00 33.80
125.00 33.66
126.00 33.52
127.00 33.39
128.00 33.26
129.00 33.14
130.00 33.03
131.00 32.93
132.00 32.84
133.00 32.77
134.00 32.70
135.00 32.66
136.00 32.64
137.00 32.63
138.00 32.63
139.00 32.67
140.00 32.71
141.00 32.78
142.00 32.88
143.00 32.99
144.00 33.13
145.00 33.29
146.00 33.49
147.00 33.70
148.00 33.95
149.00 34.22
150.00 34.53
151.00 34.87
152.00 35.24
153.00 35.65
154.00 36.09
155.00 36.56
156.00 37.07
157.00 37.62
158.00 38.19
159.00 38.79
160.00 39.40
161.00 40.01
162.00 40.58
163.00 41.10
164.00 41.52
165.00 41.80
166.00 41.92
167.00 41.88
168.00 41.68
169.00 41.36
170.00 40.95
171.00 40.50
172.00 40.03
173.00 39.57
174.00 39.12
175.00 38.71
176.00 38.33
177.00 37.99
178.00 37.69
179.00 37.43
180.00 37.21
181.00 37.03
182.00 36.89
183.00 36.79
184.00 36.72
185.00 36.68
186.00 36.68
187.00 36.70
188.00 36.75
189.00 36.82
190.00 36.90
191.00 36.99
192.00 37.08
193.00 37.16
194.00 37.22
195.00 37.25
196.00 37.25
197.00 37.19
198.00 37.08
199.00 36.92
200.00 36.70
201.00 36.43
202.00 36.11
203.00 35.76
204.00 35.39
205.00 35.00
206.00 34.60
207.00 34.20
208.00 33.81
209.00 33.44
210.00 33.07
211.00 32.73
212.00 32.40
213.00 32.11
214.00 31.83
215.00 31.57
216.00 31.35
217.00 31.14
218.00 30.96
219.00 30.81
220.00 30.68
221.00 30.58
222.00 30.50
223.00 30.45
224.00 30.42
225.00 30.41
226.00 30.43
227.00 30.48
228.00 30.54
229.00 30.63
230.00 30.74
231.00 30.87
232.00 31.02
233.00 31.19
234.00 31.39
235.00 31.59
236.00 31.81
237.00 32.04
238.00 32.29
239.00 32.54
240.00 32.80
241.00 33.05
242.00 33.29
243.00 33.53
244.00 33.75
245.00 33.96
246.00 34.13
247.00 34.28
248.00 34.40
249.00 34.48
250.00 34.51
251.00 34.52
252.00 34.48
253.00 34.40
254.00 34.29
255.00 34.15
256.00 33.96
257.00 33.74
258.00 33.48
259.00 33.19
260.00 32.86
261.00 32.49
262.00 32.09
263.00 31.66
264.00 31.19
265.00 30.69
266.00 30.16
267.00 29.61
268.00 29.04
269.00 28.46
270.00 27.86
271.00 27.25
272.00 26.64
273.00 26.04
274.00 25.42
275.00 24.82
276.00 24.22
277.00 23.62
278.00 23.04
279.00 22.46
280.00 21.89
281.00 21.33
282.00 20.78
283.00 20.25
284.00 19.72
285.00 19.20
286.00 18.69
287.00 18.20
288.00 17.71
289.00 17.23
290.00 16.76
291.00 16.30
292.00 15.85
293.00 15.41
294.00 14.98
295.00 14.55
296.00 14.13
297.00 13.72
298.00 13.32
299.00 12.92
300.00 12.53
301.00 12.14
302.00 11.76
303.00 11.39
304.00 11.02
305.00 10.66
306.00 10.31
307.00 9.96
308.00 9.62
309.00 9.28
310.00 8.94
311.00 8.62
312.00 8.30
313.00 7.98
314.00 7.67
315.00 7.37
316.00 7.07
317.00 6.77
318.00 6.49
319.00 6.20
320.00 5.93
321.00 5.66
322.00 5.39
323.00 5.14
324.00 4.88
325.00 4.64
326.00 4.40
327.00 4.16
328.00 3.93
329.00 3.71
330.00 3.50
331.00 3.28
332.00 3.08
333.00 2.88
334.00 2.69
335.00 2.51
336.00 2.33
337.00 2.16
338.00 1.99
339.00 1.83
340.00 1.68
341.00 1.54
342.00 1.40
343.00 1.26
344.00 1.14
345.00 1.02
346.00 0.90
347.00 0.80
348.00 0.70
349.00 0.61
350.00 0.52
351.00 0.44
352.00 0.37
353.00 0.30
354.00 0.24
355.00 0.19
356.00 0.14
357.00 0.10
358.00 0.07
359.00 0.04
VERTICAL 360
0.00 5.56
1.00 3.54
2.00 2.03
3.00 0.96
4.00 0.29
5.00 0.00
6.00 0.10
7.00 0.60
8.00 1.51
9.00 2.88
10.00 4.77
11.00 7.27
12.00 10.55
13.00 14.81
14.00 19.82
15.00 22.55
16.00 21.72
17.00 21.35
18.00 22.63
19.00 26.33
20.00 37.12
21.00 33.06
22.00 25.46
23.00 22.57
24.00 21.63
25.00 22.09
26.00 23.97
27.00 27.85
28.00 36.57
29.00 41.06
30.00 31.51
31.00 28.54
32.00 27.38
33.00 27.01
34.00 26.98
35.00 26.47
36.00 24.52
37.00 21.91
38.00 19.70
39.00 18.22
40.00 17.41
41.00 17.14
42.00 17.20
43.00 17.50
44.00 18.00
45.00 18.80
46.00 20.03
47.00 21.80
48.00 24.24
49.00 27.38
50.00 30.90
51.00 33.56
52.00 34.71
53.00 35.47
54.00 35.50
55.00 34.04
56.00 32.57
57.00 32.18
58.00 33.15
59.00 35.66
60.00 38.59
61.00 37.74
62.00 35.88
63.00 35.83
64.00 37.60
65.00 38.83
66.00 35.62
67.00 32.37
68.00 31.03
69.00 31.88
70.00 36.04
71.00 55.34
72.00 37.91
73.00 32.86
74.00 31.66
75.00 32.97
76.00 37.33
77.00 38.43
78.00 32.59
79.00 30.05
80.00 30.10
81.00 32.01
82.00 32.39
83.00 29.22
84.00 26.36
85.00 25.28
86.00 26.30
87.00 29.37
88.00 33.24
89.00 30.93
90.00 27.56
91.00 25.64
92.00 25.68
93.00 27.66
94.00 31.50
95.00 37.86
96.00 34.97
97.00 29.17
98.00 27.89
99.00 30.00
100.00 37.07
101.00 46.78
102.00 35.05
103.00 32.40
104.00 33.11
105.00 38.20
106.00 47.67
107.00 36.19
108.00 33.49
109.00 34.65
110.00 40.45
111.00 47.65
112.00 36.96
113.00 33.87
114.00 34.00
115.00 37.08
116.00 41.30
117.00 37.00
118.00 33.79
119.00 33.27
120.00 35.03
121.00 38.39
122.00 36.88
123.00 33.26
124.00 32.06
125.00 33.17
126.00 36.13
127.00 38.62
128.00 37.09
129.00 35.29
130.00 35.67
131.00 39.50
132.00 54.93
133.00 43.67
134.00 38.73
135.00 37.70
136.00 37.90
137.00 36.97
138.00 34.89
139.00 33.43
140.00 33.02
141.00 33.54
142.00 35.02
143.00 37.60
144.00 40.93
145.00 44.04
146.00 47.17
147.00 50.88
148.00 53.83
149.00 54.11
150.00 49.84
151.00 45.57
152.00 42.22
153.00 39.65
154.00 37.90
155.00 36.75
156.00 35.80
157.00 35.01
158.00 34.49
159.00 34.02
160.00 33.51
161.00 33.37
162.00 33.89
163.00 34.94
164.00 36.34
165.00 38.12
166.00 40.67
167.00 45.35
168.00 48.30
169.00 41.50
170.00 37.67
171.00 35.65
172.00 34.56
173.00 34.32
174.00 35.03
175.00 36.84
176.00 39.40
177.00 39.24
178.00 36.65
179.00 35.38
180.00 35.77
181.00 37.24
182.00 39.17
183.00 41.67
184.00 47.01
185.00 60.76
186.00 44.03
187.00 40.37
188.00 40.59
189.00 43.60
190.00 45.88
191.00 42.78
192.00 39.30
193.00 36.34
194.00 33.99
195.00 32.65
196.00 32.66
197.00 34.22
198.00 37.36
199.00 41.39
200.00 42.78
201.00 40.43
202.00 37.87
203.00 36.24
204.00 35.93
205.00 36.95
206.00 38.18
207.00 37.68
208.00 36.21
209.00 34.65
210.00 32.84
211.00 31.04
212.00 29.84
213.00 29.60
214.00 30.35
215.00 31.54
216.00 32.30
217.00 32.55
218.00 32.87
219.00 33.59
220.00 34.64
221.00 35.63
222.00 36.66
223.00 38.43
224.00 41.08
225.00 43.10
226.00 42.87
227.00 41.18
228.00 39.07
229.00 37.49
230.00 37.00
231.00 37.45
232.00 37.84
233.00 37.06
234.00 35.38
235.00 33.85
236.00 33.21
237.00 33.72
238.00 35.35
239.00 38.05
240.00 41.05
241.00 41.60
242.00 40.36
243.00 39.87
244.00 41.42
245.00 43.88
246.00 38.77
247.00 34.74
248.00 33.36
249.00 33.43
250.00 33.30
251.00 31.93
252.00 30.38
253.00 29.93
254.00 31.06
255.00 33.42
256.00 34.94
257.00 33.47
258.00 31.31
259.00 30.65
260.00 32.20
261.00 35.86
262.00 38.99
263.00 37.73
264.00 35.85
265.00 36.90
266.00 46.19
267.00 39.85
268.00 33.98
269.00 33.23
270.00 34.47
271.00 36.90
272.00 44.02
273.00 37.80
274.00 32.49
275.00 31.84
276.00 34.38
277.00 40.29
278.00 52.34
279.00 37.15
280.00 32.79
281.00 32.34
282.00 34.53
283.00 38.48
284.00 46.55
285.00 49.02
286.00 40.81
287.00 40.00
288.00 37.75
289.00 34.37
290.00 33.55
291.00 35.52
292.00 40.58
293.00 38.33
294.00 32.12
295.00 29.34
296.00 29.09
297.00 30.90
298.00 33.95
299.00 33.84
300.00 30.83
301.00 29.29
302.00 29.86
303.00 32.70
304.00 38.59
305.00 45.54
306.00 40.75
307.00 38.54
308.00 36.02
309.00 32.56
310.00 30.43
311.00 30.00
312.00 31.30
313.00 34.71
314.00 41.07
315.00 47.69
316.00 40.46
317.00 32.03
318.00 26.56
319.00 23.13
320.00 21.12
321.00 20.22
322.00 20.16
323.00 20.48
324.00 20.61
325.00 20.52
326.00 20.75
327.00 21.84
328.00 24.17
329.00 28.03
330.00 33.15
331.00 37.81
332.00 42.33
333.00 45.61
334.00 40.99
335.00 38.54
336.00 38.74
337.00 40.34
338.00 38.96
339.00 35.42
340.00 31.93
341.00 28.42
342.00 25.45
343.00 23.29
344.00 21.81
345.00 20.78
346.00 20.14
347.00 20.03
348.00 20.73
349.00 22.55
350.00 25.61
351.00 27.89
352.00 25.95
353.00 23.60
354.00 22.63
355.00 22.53
356.00 20.64
357.00 16.11
358.00 11.71
359.00 8.23
