NAME ATR4518R7_1950_X_CO_P45_04T_yL
FREQUENCY 1950
GAIN 15.33 dBd
TILT	ELECTRICAL
COMMENT DATE 05.08.2013 +45 degrees polarized system Lever position 04T deg
HORIZONTAL 360
0.00 0.09
1.00 0.06
2.00 0.04
3.00 0.02
4.00 0.01
5.00 0.00
6.00 0.00
7.00 0.01
8.00 0.02
9.00 0.03
10.00 0.06
11.00 0.09
12.00 0.13
13.00 0.17
14.00 0.23
15.00 0.29
16.00 0.35
17.00 0.43
18.00 0.51
19.00 0.60
20.00 0.70
21.00 0.81
22.00 0.92
23.00 1.04
24.00 1.17
25.00 1.30
26.00 1.44
27.00 1.59
28.00 1.75
29.00 1.91
30.00 2.07
31.00 2.24
32.00 2.42
33.00 2.61
34.00 2.79
35.00 2.99
36.00 3.19
37.00 3.39
38.00 3.59
39.00 3.80
40.00 4.01
41.00 4.22
42.00 4.44
43.00 4.66
44.00 4.87
45.00 5.09
46.00 5.31
47.00 5.53
48.00 5.75
49.00 5.97
50.00 6.19
51.00 6.40
52.00 6.62
53.00 6.84
54.00 7.06
55.00 7.27
56.00 7.49
57.00 7.71
58.00 7.93
59.00 8.16
60.00 8.38
61.00 8.61
62.00 8.85
63.00 9.08
64.00 9.33
65.00 9.57
66.00 9.82
67.00 10.08
68.00 10.35
69.00 10.62
70.00 10.90
71.00 11.18
72.00 11.47
73.00 11.77
74.00 12.08
75.00 12.39
76.00 12.71
77.00 13.03
78.00 13.36
79.00 13.69
80.00 14.04
81.00 14.38
82.00 14.72
83.00 15.08
84.00 15.43
85.00 15.79
86.00 16.14
87.00 16.51
88.00 16.87
89.00 17.23
90.00 17.60
91.00 17.97
92.00 18.34
93.00 18.72
94.00 19.09
95.00 19.48
96.00 19.86
97.00 20.24
98.00 20.64
99.00 21.03
100.00 21.42
101.00 21.82
102.00 22.21
103.00 22.60
104.00 23.00
105.00 23.39
106.00 23.77
107.00 24.16
108.00 24.54
109.00 24.92
110.00 25.30
111.00 25.69
112.00 26.08
113.00 26.49
114.00 26.91
115.00 27.36
116.00 27.84
117.00 28.35
118.00 28.89
119.00 29.49
120.00 30.13
121.00 30.83
122.00 31.59
123.00 32.41
124.00 33.31
125.00 34.30
126.00 35.36
127.00 36.51
128.00 37.76
129.00 39.11
130.00 40.56
131.00 42.13
132.00 43.80
133.00 45.57
134.00 47.33
135.00 48.88
136.00 49.76
137.00 49.62
138.00 48.59
139.00 47.15
140.00 45.64
141.00 44.24
142.00 42.97
143.00 41.85
144.00 40.88
145.00 40.05
146.00 39.34
147.00 38.77
148.00 38.31
149.00 37.97
150.00 37.73
151.00 37.58
152.00 37.52
153.00 37.52
154.00 37.58
155.00 37.65
156.00 37.71
157.00 37.72
158.00 37.65
159.00 37.45
160.00 37.14
161.00 36.73
162.00 36.25
163.00 35.73
164.00 35.21
165.00 34.72
166.00 34.27
167.00 33.88
168.00 33.56
169.00 33.31
170.00 33.13
171.00 33.03
172.00 32.98
173.00 33.00
174.00 33.07
175.00 33.17
176.00 33.29
177.00 33.42
178.00 33.53
179.00 33.60
180.00 33.62
181.00 33.59
182.00 33.51
183.00 33.39
184.00 33.24
185.00 33.09
186.00 32.97
187.00 32.88
188.00 32.86
189.00 32.91
190.00 33.06
191.00 33.31
192.00 33.69
193.00 34.20
194.00 34.89
195.00 35.76
196.00 36.87
197.00 38.26
198.00 39.99
199.00 42.04
200.00 44.13
201.00 45.04
202.00 43.83
203.00 41.62
204.00 39.47
205.00 37.67
206.00 36.20
207.00 35.00
208.00 34.03
209.00 33.26
210.00 32.65
211.00 32.19
212.00 31.87
213.00 31.67
214.00 31.59
215.00 31.61
216.00 31.76
217.00 32.01
218.00 32.37
219.00 32.85
220.00 33.45
221.00 34.18
222.00 35.04
223.00 36.04
224.00 37.16
225.00 38.37
226.00 39.55
227.00 40.49
228.00 40.91
229.00 40.64
230.00 39.83
231.00 38.76
232.00 37.66
233.00 36.63
234.00 35.71
235.00 34.91
236.00 34.22
237.00 33.63
238.00 33.13
239.00 32.72
240.00 32.37
241.00 32.08
242.00 31.84
243.00 31.63
244.00 31.46
245.00 31.31
246.00 31.17
247.00 31.02
248.00 30.86
249.00 30.67
250.00 30.44
251.00 30.17
252.00 29.86
253.00 29.50
254.00 29.10
255.00 28.66
256.00 28.19
257.00 27.70
258.00 27.20
259.00 26.70
260.00 26.20
261.00 25.71
262.00 25.22
263.00 24.76
264.00 24.31
265.00 23.88
266.00 23.46
267.00 23.07
268.00 22.70
269.00 22.34
270.00 22.00
271.00 21.67
272.00 21.36
273.00 21.06
274.00 20.77
275.00 20.48
276.00 20.20
277.00 19.92
278.00 19.64
279.00 19.36
280.00 19.08
281.00 18.79
282.00 18.49
283.00 18.19
284.00 17.88
285.00 17.56
286.00 17.24
287.00 16.91
288.00 16.57
289.00 16.23
290.00 15.89
291.00 15.54
292.00 15.19
293.00 14.84
294.00 14.50
295.00 14.15
296.00 13.81
297.00 13.47
298.00 13.13
299.00 12.80
300.00 12.47
301.00 12.15
302.00 11.82
303.00 11.50
304.00 11.18
305.00 10.86
306.00 10.53
307.00 10.21
308.00 9.88
309.00 9.56
310.00 9.23
311.00 8.90
312.00 8.57
313.00 8.23
314.00 7.90
315.00 7.57
316.00 7.23
317.00 6.90
318.00 6.58
319.00 6.26
320.00 5.94
321.00 5.63
322.00 5.32
323.00 5.03
324.00 4.74
325.00 4.47
326.00 4.20
327.00 3.95
328.00 3.70
329.00 3.46
330.00 3.24
331.00 3.03
332.00 2.82
333.00 2.63
334.00 2.45
335.00 2.27
336.00 2.11
337.00 1.95
338.00 1.81
339.00 1.67
340.00 1.54
341.00 1.41
342.00 1.30
343.00 1.19
344.00 1.09
345.00 0.99
346.00 0.90
347.00 0.81
348.00 0.73
349.00 0.65
350.00 0.58
351.00 0.51
352.00 0.45
353.00 0.39
354.00 0.34
355.00 0.28
356.00 0.24
357.00 0.19
358.00 0.15
359.00 0.12
VERTICAL 360
0.00 5.71
1.00 3.05
2.00 1.29
3.00 0.29
4.00 0.00
5.00 0.44
6.00 1.68
7.00 3.92
8.00 7.60
9.00 14.15
10.00 30.39
11.00 17.27
12.00 13.87
13.00 14.02
14.00 17.15
15.00 25.66
16.00 22.26
17.00 15.91
18.00 13.39
19.00 12.78
20.00 13.62
21.00 15.97
22.00 20.52
23.00 28.20
24.00 24.65
25.00 20.43
26.00 19.07
27.00 19.50
28.00 21.36
29.00 24.68
30.00 28.90
31.00 28.22
32.00 24.41
33.00 21.89
34.00 20.58
35.00 20.10
36.00 20.13
37.00 20.37
38.00 20.57
39.00 20.56
40.00 20.38
41.00 20.21
42.00 20.23
43.00 20.46
44.00 20.70
45.00 20.77
46.00 20.75
47.00 20.93
48.00 21.52
49.00 22.55
50.00 23.97
51.00 25.78
52.00 28.21
53.00 31.98
54.00 39.23
55.00 40.36
56.00 33.11
57.00 29.91
58.00 28.55
59.00 28.24
60.00 28.54
61.00 29.20
62.00 30.05
63.00 31.04
64.00 32.28
65.00 34.01
66.00 36.48
67.00 39.81
68.00 43.76
69.00 47.18
70.00 49.40
71.00 49.73
72.00 46.91
73.00 44.32
74.00 43.27
75.00 43.01
76.00 41.97
77.00 39.88
78.00 37.99
79.00 36.92
80.00 36.81
81.00 37.69
82.00 39.00
83.00 38.77
84.00 37.14
85.00 36.39
86.00 37.49
87.00 41.02
88.00 47.29
89.00 49.00
90.00 48.67
91.00 51.39
92.00 46.67
93.00 42.65
94.00 41.82
95.00 43.72
96.00 48.82
97.00 59.28
98.00 53.99
99.00 48.20
100.00 45.01
101.00 43.74
102.00 44.29
103.00 46.39
104.00 48.73
105.00 49.04
106.00 48.15
107.00 47.90
108.00 49.19
109.00 51.85
110.00 51.06
111.00 48.00
112.00 46.85
113.00 47.61
114.00 49.61
115.00 52.59
116.00 57.47
117.00 51.94
118.00 45.01
119.00 40.88
120.00 38.45
121.00 37.25
122.00 37.04
123.00 37.73
124.00 39.26
125.00 41.65
126.00 44.70
127.00 46.81
128.00 45.49
129.00 43.08
130.00 41.36
131.00 40.37
132.00 39.58
133.00 38.33
134.00 36.63
135.00 34.98
136.00 33.75
137.00 33.00
138.00 32.53
139.00 31.94
140.00 31.16
141.00 30.66
142.00 30.94
143.00 32.30
144.00 34.81
145.00 38.27
146.00 41.68
147.00 42.96
148.00 42.35
149.00 42.09
150.00 42.53
151.00 41.06
152.00 37.94
153.00 35.99
154.00 35.93
155.00 38.05
156.00 43.35
157.00 55.48
158.00 47.00
159.00 41.86
160.00 38.60
161.00 36.53
162.00 35.99
163.00 37.16
164.00 39.54
165.00 40.32
166.00 38.82
167.00 37.91
168.00 37.82
169.00 37.73
170.00 37.66
171.00 38.70
172.00 42.26
173.00 48.50
174.00 40.78
175.00 35.57
176.00 33.02
177.00 32.05
178.00 32.20
179.00 33.05
180.00 34.04
181.00 34.82
182.00 35.50
183.00 36.40
184.00 37.66
185.00 38.97
186.00 39.24
187.00 38.11
188.00 37.00
189.00 36.65
190.00 36.84
191.00 37.06
192.00 37.37
193.00 38.50
194.00 41.17
195.00 45.69
196.00 50.26
197.00 56.25
198.00 52.51
199.00 41.59
200.00 36.61
201.00 34.27
202.00 33.79
203.00 34.88
204.00 37.19
205.00 39.56
206.00 40.35
207.00 40.28
208.00 39.83
209.00 37.89
210.00 35.02
211.00 32.65
212.00 31.33
213.00 31.18
214.00 32.25
215.00 34.49
216.00 37.18
217.00 38.54
218.00 38.88
219.00 39.77
220.00 40.05
221.00 38.14
222.00 36.18
223.00 35.45
224.00 35.83
225.00 36.81
226.00 37.85
227.00 38.74
228.00 38.71
229.00 37.07
230.00 35.25
231.00 34.37
232.00 34.63
233.00 35.81
234.00 37.47
235.00 39.11
236.00 40.70
237.00 42.82
238.00 46.38
239.00 53.14
240.00 66.27
241.00 53.71
242.00 48.39
243.00 44.88
244.00 42.70
245.00 41.73
246.00 41.79
247.00 42.82
248.00 45.02
249.00 48.91
250.00 52.93
251.00 50.08
252.00 46.08
253.00 42.52
254.00 39.21
255.00 36.57
256.00 34.82
257.00 33.92
258.00 33.62
259.00 33.60
260.00 33.50
261.00 33.24
262.00 33.02
263.00 33.14
264.00 33.83
265.00 35.10
266.00 36.56
267.00 37.41
268.00 36.90
269.00 35.19
270.00 33.12
271.00 31.29
272.00 29.96
273.00 29.18
274.00 28.84
275.00 28.78
276.00 28.85
277.00 29.05
278.00 29.48
279.00 30.34
280.00 31.82
281.00 34.16
282.00 37.77
283.00 43.19
284.00 45.04
285.00 40.53
286.00 38.37
287.00 39.02
288.00 44.14
289.00 52.17
290.00 37.67
291.00 32.23
292.00 29.03
293.00 26.99
294.00 25.79
295.00 25.36
296.00 25.68
297.00 26.72
298.00 28.37
299.00 30.50
300.00 33.22
301.00 36.47
302.00 36.38
303.00 32.08
304.00 28.44
305.00 25.97
306.00 24.42
307.00 23.65
308.00 23.65
309.00 24.59
310.00 26.85
311.00 31.22
312.00 36.22
313.00 31.20
314.00 26.91
315.00 24.51
316.00 23.21
317.00 22.76
318.00 23.09
319.00 24.24
320.00 26.14
321.00 27.98
322.00 27.94
323.00 26.37
324.00 24.78
325.00 23.42
326.00 22.04
327.00 20.58
328.00 19.26
329.00 18.38
330.00 18.15
331.00 18.74
332.00 20.38
333.00 23.71
334.00 30.91
335.00 32.45
336.00 24.11
337.00 20.44
338.00 18.94
339.00 19.12
340.00 21.18
341.00 26.62
342.00 44.57
343.00 26.04
344.00 21.75
345.00 20.93
346.00 23.01
347.00 30.79
348.00 31.60
349.00 22.24
350.00 19.00
351.00 18.20
352.00 19.18
353.00 21.58
354.00 24.13
355.00 25.40
356.00 28.06
357.00 23.78
358.00 15.17
359.00 9.55
