NAME ATR4518R7_2350_X_CO_M45_06T_yyR
FREQUENCY 2350
GAIN 15.11 dBd
TILT	ELECTRICAL
COMMENT DATE 05.08.2013 -45 degrees polarized system Lever position 06T deg
HORIZONTAL 360
0.00 0.00
1.00 0.01
2.00 0.03
3.00 0.06
4.00 0.09
5.00 0.14
6.00 0.19
7.00 0.24
8.00 0.31
9.00 0.38
10.00 0.46
11.00 0.54
12.00 0.63
13.00 0.72
14.00 0.81
15.00 0.91
16.00 1.02
17.00 1.12
18.00 1.23
19.00 1.35
20.00 1.46
21.00 1.58
22.00 1.71
23.00 1.84
24.00 1.97
25.00 2.11
26.00 2.26
27.00 2.42
28.00 2.58
29.00 2.75
30.00 2.94
31.00 3.13
32.00 3.33
33.00 3.55
34.00 3.78
35.00 4.02
36.00 4.28
37.00 4.55
38.00 4.83
39.00 5.13
40.00 5.44
41.00 5.77
42.00 6.11
43.00 6.47
44.00 6.84
45.00 7.22
46.00 7.62
47.00 8.03
48.00 8.45
49.00 8.89
50.00 9.33
51.00 9.79
52.00 10.25
53.00 10.72
54.00 11.20
55.00 11.69
56.00 12.18
57.00 12.68
58.00 13.18
59.00 13.70
60.00 14.21
61.00 14.73
62.00 15.26
63.00 15.79
64.00 16.33
65.00 16.88
66.00 17.44
67.00 18.01
68.00 18.59
69.00 19.19
70.00 19.80
71.00 20.43
72.00 21.07
73.00 21.72
74.00 22.39
75.00 23.07
76.00 23.75
77.00 24.44
78.00 25.12
79.00 25.79
80.00 26.44
81.00 27.05
82.00 27.62
83.00 28.14
84.00 28.60
85.00 29.00
86.00 29.34
87.00 29.62
88.00 29.86
89.00 30.05
90.00 30.21
91.00 30.34
92.00 30.44
93.00 30.51
94.00 30.55
95.00 30.56
96.00 30.52
97.00 30.45
98.00 30.34
99.00 30.19
100.00 30.01
101.00 29.81
102.00 29.60
103.00 29.39
104.00 29.20
105.00 29.03
106.00 28.89
107.00 28.80
108.00 28.76
109.00 28.77
110.00 28.84
111.00 28.98
112.00 29.19
113.00 29.47
114.00 29.83
115.00 30.28
116.00 30.82
117.00 31.45
118.00 32.17
119.00 32.98
120.00 33.88
121.00 34.86
122.00 35.86
123.00 36.85
124.00 37.71
125.00 38.34
126.00 38.66
127.00 38.66
128.00 38.45
129.00 38.11
130.00 37.77
131.00 37.47
132.00 37.26
133.00 37.15
134.00 37.15
135.00 37.26
136.00 37.46
137.00 37.73
138.00 38.06
139.00 38.40
140.00 38.71
141.00 38.93
142.00 39.01
143.00 38.95
144.00 38.75
145.00 38.46
146.00 38.12
147.00 37.79
148.00 37.51
149.00 37.30
150.00 37.20
151.00 37.21
152.00 37.36
153.00 37.65
154.00 38.12
155.00 38.79
156.00 39.69
157.00 40.89
158.00 42.48
159.00 44.65
160.00 47.76
161.00 52.67
162.00 58.93
163.00 53.10
164.00 47.91
165.00 44.61
166.00 42.30
167.00 40.57
168.00 39.24
169.00 38.21
170.00 37.40
171.00 36.79
172.00 36.34
173.00 36.03
174.00 35.85
175.00 35.78
176.00 35.83
177.00 35.98
178.00 36.23
179.00 36.56
180.00 36.99
181.00 37.51
182.00 38.10
183.00 38.76
184.00 39.48
185.00 40.22
186.00 40.96
187.00 41.68
188.00 42.30
189.00 42.78
190.00 43.10
191.00 43.22
192.00 43.18
193.00 43.02
194.00 42.77
195.00 42.46
196.00 42.14
197.00 41.81
198.00 41.50
199.00 41.20
200.00 40.93
201.00 40.69
202.00 40.49
203.00 40.32
204.00 40.20
205.00 40.13
206.00 40.11
207.00 40.14
208.00 40.24
209.00 40.40
210.00 40.62
211.00 40.93
212.00 41.30
213.00 41.75
214.00 42.29
215.00 42.90
216.00 43.60
217.00 44.38
218.00 45.24
219.00 46.19
220.00 47.23
221.00 48.35
222.00 49.58
223.00 50.90
224.00 52.31
225.00 53.72
226.00 54.83
227.00 55.07
228.00 54.14
229.00 52.33
230.00 50.32
231.00 48.36
232.00 46.57
233.00 44.97
234.00 43.55
235.00 42.28
236.00 41.16
237.00 40.16
238.00 39.29
239.00 38.52
240.00 37.86
241.00 37.29
242.00 36.81
243.00 36.40
244.00 36.07
245.00 35.80
246.00 35.57
247.00 35.38
248.00 35.21
249.00 35.04
250.00 34.84
251.00 34.59
252.00 34.28
253.00 33.89
254.00 33.42
255.00 32.88
256.00 32.28
257.00 31.63
258.00 30.97
259.00 30.29
260.00 29.62
261.00 28.96
262.00 28.33
263.00 27.71
264.00 27.12
265.00 26.56
266.00 26.01
267.00 25.49
268.00 24.98
269.00 24.49
270.00 24.01
271.00 23.53
272.00 23.06
273.00 22.59
274.00 22.12
275.00 21.65
276.00 21.17
277.00 20.70
278.00 20.22
279.00 19.74
280.00 19.26
281.00 18.78
282.00 18.30
283.00 17.82
284.00 17.35
285.00 16.88
286.00 16.42
287.00 15.96
288.00 15.51
289.00 15.07
290.00 14.63
291.00 14.19
292.00 13.77
293.00 13.35
294.00 12.93
295.00 12.53
296.00 12.12
297.00 11.72
298.00 11.33
299.00 10.93
300.00 10.55
301.00 10.17
302.00 9.79
303.00 9.42
304.00 9.06
305.00 8.69
306.00 8.34
307.00 7.99
308.00 7.65
309.00 7.31
310.00 6.98
311.00 6.66
312.00 6.34
313.00 6.03
314.00 5.73
315.00 5.44
316.00 5.16
317.00 4.89
318.00 4.62
319.00 4.37
320.00 4.13
321.00 3.89
322.00 3.67
323.00 3.45
324.00 3.25
325.00 3.05
326.00 2.87
327.00 2.69
328.00 2.52
329.00 2.36
330.00 2.21
331.00 2.07
332.00 1.93
333.00 1.80
334.00 1.68
335.00 1.56
336.00 1.45
337.00 1.35
338.00 1.25
339.00 1.15
340.00 1.05
341.00 0.96
342.00 0.88
343.00 0.79
344.00 0.71
345.00 0.64
346.00 0.56
347.00 0.49
348.00 0.42
349.00 0.35
350.00 0.29
351.00 0.24
352.00 0.18
353.00 0.14
354.00 0.10
355.00 0.06
356.00 0.04
357.00 0.02
358.00 0.00
359.00 0.00
VERTICAL 360
0.00 22.38
1.00 13.49
2.00 7.94
3.00 4.21
4.00 1.76
5.00 0.38
6.00 0.00
7.00 0.67
8.00 2.60
9.00 6.36
10.00 14.32
11.00 29.07
12.00 13.33
13.00 10.78
14.00 11.44
15.00 14.85
16.00 20.88
17.00 18.93
18.00 14.85
19.00 13.73
20.00 14.67
21.00 17.28
22.00 20.31
23.00 20.45
24.00 19.29
25.00 20.11
26.00 25.01
27.00 45.65
28.00 23.35
29.00 18.79
30.00 17.48
31.00 18.08
32.00 20.29
33.00 24.22
34.00 29.78
35.00 32.09
36.00 30.96
37.00 32.60
38.00 35.32
39.00 30.99
40.00 26.89
41.00 24.91
42.00 24.40
43.00 25.10
44.00 27.18
45.00 30.93
46.00 32.89
47.00 29.36
48.00 26.84
49.00 26.25
50.00 27.15
51.00 29.02
52.00 30.93
53.00 31.54
54.00 30.52
55.00 28.96
56.00 27.83
57.00 27.64
58.00 28.68
59.00 31.22
60.00 35.81
61.00 44.88
62.00 50.57
63.00 40.85
64.00 37.18
65.00 35.35
66.00 34.74
67.00 35.05
68.00 35.92
69.00 37.25
70.00 38.96
71.00 40.33
72.00 40.09
73.00 37.87
74.00 35.54
75.00 34.16
76.00 33.40
77.00 32.62
78.00 31.63
79.00 30.82
80.00 30.56
81.00 30.81
82.00 31.14
83.00 31.07
84.00 30.43
85.00 29.83
86.00 30.11
87.00 31.65
88.00 34.11
89.00 36.73
90.00 36.77
91.00 32.87
92.00 29.95
93.00 29.01
94.00 29.58
95.00 31.00
96.00 32.50
97.00 33.34
98.00 33.32
99.00 33.30
100.00 34.05
101.00 35.54
102.00 37.26
103.00 38.48
104.00 38.90
105.00 39.51
106.00 41.17
107.00 43.15
108.00 43.78
109.00 43.80
110.00 44.08
111.00 45.04
112.00 48.72
113.00 60.06
114.00 50.49
115.00 45.77
116.00 45.18
117.00 46.94
118.00 50.70
119.00 51.04
120.00 46.42
121.00 44.31
122.00 44.81
123.00 47.55
124.00 51.84
125.00 54.54
126.00 52.16
127.00 47.98
128.00 43.83
129.00 40.25
130.00 37.68
131.00 36.16
132.00 35.49
133.00 35.55
134.00 36.52
135.00 38.85
136.00 42.94
137.00 47.18
138.00 46.20
139.00 42.22
140.00 38.61
141.00 36.82
142.00 37.43
143.00 40.70
144.00 42.88
145.00 39.38
146.00 37.32
147.00 37.65
148.00 40.81
149.00 49.17
150.00 45.47
151.00 39.86
152.00 38.87
153.00 40.20
154.00 41.06
155.00 40.44
156.00 42.01
157.00 48.25
158.00 44.35
159.00 39.41
160.00 38.31
161.00 38.37
162.00 38.70
163.00 40.91
164.00 46.67
165.00 45.98
166.00 40.76
167.00 38.37
168.00 37.75
169.00 38.64
170.00 40.35
171.00 42.19
172.00 43.73
173.00 40.79
174.00 36.76
175.00 34.73
176.00 34.54
177.00 35.62
178.00 37.01
179.00 37.77
180.00 38.16
181.00 38.85
182.00 40.16
183.00 42.12
184.00 44.39
185.00 46.36
186.00 45.58
187.00 42.91
188.00 42.20
189.00 43.08
190.00 42.37
191.00 40.73
192.00 40.23
193.00 39.81
194.00 38.47
195.00 37.15
196.00 36.48
197.00 36.37
198.00 36.83
199.00 37.50
200.00 36.04
201.00 32.67
202.00 30.12
203.00 28.85
204.00 28.59
205.00 29.06
206.00 30.08
207.00 31.32
208.00 31.77
209.00 30.80
210.00 29.74
211.00 29.65
212.00 30.66
213.00 32.35
214.00 33.95
215.00 34.92
216.00 36.02
217.00 37.95
218.00 39.98
219.00 42.11
220.00 47.81
221.00 50.73
222.00 44.50
223.00 44.90
224.00 53.76
225.00 53.48
226.00 43.04
227.00 38.52
228.00 36.26
229.00 35.70
230.00 36.38
231.00 37.64
232.00 38.82
233.00 39.92
234.00 40.94
235.00 40.41
236.00 38.54
237.00 37.60
238.00 38.46
239.00 40.81
240.00 41.67
241.00 39.54
242.00 37.70
243.00 36.91
244.00 37.02
245.00 37.82
246.00 39.12
247.00 40.83
248.00 42.60
249.00 44.18
250.00 45.78
251.00 45.13
252.00 41.72
253.00 38.21
254.00 35.81
255.00 35.08
256.00 35.96
257.00 37.77
258.00 39.62
259.00 40.24
260.00 38.92
261.00 38.55
262.00 40.73
263.00 44.48
264.00 44.67
265.00 40.35
266.00 36.79
267.00 35.36
268.00 34.58
269.00 32.92
270.00 31.64
271.00 31.67
272.00 32.31
273.00 32.03
274.00 30.40
275.00 28.60
276.00 27.58
277.00 27.36
278.00 27.46
279.00 27.25
280.00 26.55
281.00 25.73
282.00 25.13
283.00 24.67
284.00 24.11
285.00 23.41
286.00 22.57
287.00 21.50
288.00 20.23
289.00 18.97
290.00 18.02
291.00 17.51
292.00 17.34
293.00 17.25
294.00 17.06
295.00 16.80
296.00 16.66
297.00 16.75
298.00 17.13
299.00 17.84
300.00 19.06
301.00 21.09
302.00 24.64
303.00 32.10
304.00 37.27
305.00 26.90
306.00 22.86
307.00 21.04
308.00 20.49
309.00 20.71
310.00 21.29
311.00 22.08
312.00 23.26
313.00 24.52
314.00 24.50
315.00 23.46
316.00 23.27
317.00 24.72
318.00 26.76
319.00 25.87
320.00 23.44
321.00 22.17
322.00 22.35
323.00 24.22
324.00 29.05
325.00 38.96
326.00 28.56
327.00 23.28
328.00 21.17
329.00 20.96
330.00 21.99
331.00 22.48
332.00 20.51
333.00 17.94
334.00 16.26
335.00 15.60
336.00 15.91
337.00 17.06
338.00 18.71
339.00 20.37
340.00 22.26
341.00 25.54
342.00 28.25
343.00 24.40
344.00 21.19
345.00 20.17
346.00 21.08
347.00 24.66
348.00 36.54
349.00 29.89
350.00 22.57
351.00 19.94
352.00 19.37
353.00 20.39
354.00 23.17
355.00 29.01
356.00 40.12
357.00 31.55
358.00 29.48
359.00 33.83
