NAME ATR4518R7_0832_X_CO_P45_00T
FREQUENCY 0832
GAIN 14.27 dBd
TILT	ELECTRICAL
COMMENT DATE 05.08.2013 +45 degrees polarized system Lever position 00T deg
HORIZONTAL 360
0.00 0.00
1.00 0.00
2.00 0.01
3.00 0.02
4.00 0.04
5.00 0.06
6.00 0.09
7.00 0.12
8.00 0.17
9.00 0.21
10.00 0.27
11.00 0.32
12.00 0.39
13.00 0.46
14.00 0.53
15.00 0.62
16.00 0.70
17.00 0.80
18.00 0.89
19.00 1.00
20.00 1.11
21.00 1.22
22.00 1.34
23.00 1.47
24.00 1.60
25.00 1.74
26.00 1.89
27.00 2.03
28.00 2.19
29.00 2.35
30.00 2.52
31.00 2.69
32.00 2.87
33.00 3.05
34.00 3.24
35.00 3.43
36.00 3.63
37.00 3.84
38.00 4.05
39.00 4.26
40.00 4.49
41.00 4.71
42.00 4.94
43.00 5.18
44.00 5.42
45.00 5.67
46.00 5.92
47.00 6.18
48.00 6.45
49.00 6.71
50.00 6.99
51.00 7.27
52.00 7.55
53.00 7.84
54.00 8.13
55.00 8.43
56.00 8.73
57.00 9.03
58.00 9.34
59.00 9.66
60.00 9.98
61.00 10.30
62.00 10.63
63.00 10.96
64.00 11.29
65.00 11.63
66.00 11.97
67.00 12.31
68.00 12.66
69.00 13.01
70.00 13.37
71.00 13.72
72.00 14.08
73.00 14.44
74.00 14.80
75.00 15.16
76.00 15.53
77.00 15.90
78.00 16.27
79.00 16.64
80.00 17.01
81.00 17.38
82.00 17.76
83.00 18.13
84.00 18.51
85.00 18.89
86.00 19.27
87.00 19.64
88.00 20.02
89.00 20.40
90.00 20.78
91.00 21.17
92.00 21.55
93.00 21.93
94.00 22.31
95.00 22.70
96.00 23.08
97.00 23.46
98.00 23.84
99.00 24.23
100.00 24.61
101.00 24.99
102.00 25.38
103.00 25.76
104.00 26.14
105.00 26.52
106.00 26.90
107.00 27.28
108.00 27.65
109.00 28.03
110.00 28.40
111.00 28.78
112.00 29.14
113.00 29.51
114.00 29.87
115.00 30.23
116.00 30.59
117.00 30.94
118.00 31.29
119.00 31.63
120.00 31.97
121.00 32.31
122.00 32.65
123.00 32.98
124.00 33.31
125.00 33.64
126.00 33.97
127.00 34.30
128.00 34.62
129.00 34.96
130.00 35.29
131.00 35.62
132.00 35.96
133.00 36.29
134.00 36.64
135.00 36.99
136.00 37.35
137.00 37.72
138.00 38.09
139.00 38.47
140.00 38.87
141.00 39.27
142.00 39.68
143.00 40.10
144.00 40.54
145.00 41.00
146.00 41.45
147.00 41.93
148.00 42.42
149.00 42.92
150.00 43.42
151.00 43.96
152.00 44.50
153.00 45.06
154.00 45.61
155.00 46.20
156.00 46.80
157.00 47.39
158.00 48.01
159.00 48.63
160.00 49.23
161.00 49.86
162.00 50.49
163.00 51.06
164.00 51.67
165.00 52.19
166.00 52.67
167.00 53.01
168.00 53.29
169.00 53.35
170.00 53.25
171.00 53.04
172.00 52.65
173.00 52.13
174.00 51.49
175.00 50.83
176.00 50.12
177.00 49.44
178.00 48.71
179.00 48.03
180.00 47.35
181.00 46.72
182.00 46.09
183.00 45.48
184.00 44.91
185.00 44.36
186.00 43.85
187.00 43.36
188.00 42.88
189.00 42.43
190.00 42.01
191.00 41.60
192.00 41.21
193.00 40.85
194.00 40.50
195.00 40.18
196.00 39.87
197.00 39.57
198.00 39.29
199.00 39.03
200.00 38.78
201.00 38.54
202.00 38.32
203.00 38.10
204.00 37.90
205.00 37.71
206.00 37.52
207.00 37.35
208.00 37.19
209.00 37.03
210.00 36.88
211.00 36.75
212.00 36.61
213.00 36.48
214.00 36.37
215.00 36.26
216.00 36.15
217.00 36.05
218.00 35.96
219.00 35.87
220.00 35.78
221.00 35.71
222.00 35.63
223.00 35.56
224.00 35.49
225.00 35.42
226.00 35.35
227.00 35.28
228.00 35.21
229.00 35.13
230.00 35.04
231.00 34.94
232.00 34.82
233.00 34.68
234.00 34.52
235.00 34.34
236.00 34.12
237.00 33.87
238.00 33.59
239.00 33.27
240.00 32.92
241.00 32.54
242.00 32.13
243.00 31.69
244.00 31.23
245.00 30.75
246.00 30.26
247.00 29.75
248.00 29.23
249.00 28.72
250.00 28.20
251.00 27.68
252.00 27.16
253.00 26.65
254.00 26.14
255.00 25.64
256.00 25.15
257.00 24.67
258.00 24.20
259.00 23.73
260.00 23.28
261.00 22.83
262.00 22.40
263.00 21.97
264.00 21.55
265.00 21.14
266.00 20.75
267.00 20.36
268.00 19.98
269.00 19.60
270.00 19.24
271.00 18.88
272.00 18.53
273.00 18.18
274.00 17.84
275.00 17.51
276.00 17.18
277.00 16.86
278.00 16.54
279.00 16.22
280.00 15.91
281.00 15.60
282.00 15.30
283.00 15.00
284.00 14.70
285.00 14.40
286.00 14.10
287.00 13.80
288.00 13.51
289.00 13.21
290.00 12.92
291.00 12.62
292.00 12.33
293.00 12.04
294.00 11.75
295.00 11.46
296.00 11.17
297.00 10.87
298.00 10.58
299.00 10.29
300.00 10.00
301.00 9.72
302.00 9.43
303.00 9.14
304.00 8.86
305.00 8.58
306.00 8.30
307.00 8.02
308.00 7.74
309.00 7.47
310.00 7.20
311.00 6.93
312.00 6.67
313.00 6.41
314.00 6.15
315.00 5.90
316.00 5.65
317.00 5.41
318.00 5.17
319.00 4.93
320.00 4.70
321.00 4.48
322.00 4.26
323.00 4.04
324.00 3.83
325.00 3.62
326.00 3.42
327.00 3.23
328.00 3.04
329.00 2.85
330.00 2.68
331.00 2.50
332.00 2.34
333.00 2.17
334.00 2.02
335.00 1.87
336.00 1.72
337.00 1.58
338.00 1.45
339.00 1.32
340.00 1.20
341.00 1.09
342.00 0.98
343.00 0.87
344.00 0.77
345.00 0.68
346.00 0.60
347.00 0.51
348.00 0.44
349.00 0.37
350.00 0.31
351.00 0.25
352.00 0.20
353.00 0.15
354.00 0.11
355.00 0.08
356.00 0.05
357.00 0.03
358.00 0.01
359.00 0.00
VERTICAL 360
0.00 0.00
1.00 0.17
2.00 0.68
3.00 1.54
4.00 2.80
5.00 4.49
6.00 6.73
7.00 9.67
8.00 13.66
9.00 19.64
10.00 32.61
11.00 29.63
12.00 23.84
13.00 22.77
14.00 24.14
15.00 28.45
16.00 40.13
17.00 29.96
18.00 24.14
19.00 21.41
20.00 20.20
21.00 20.06
22.00 20.82
23.00 22.41
24.00 24.60
25.00 26.26
26.00 25.79
27.00 24.27
28.00 23.24
29.00 23.19
30.00 24.37
31.00 27.46
32.00 35.62
33.00 35.29
34.00 25.62
35.00 21.02
36.00 18.11
37.00 16.09
38.00 14.64
39.00 13.63
40.00 12.96
41.00 12.61
42.00 12.58
43.00 12.86
44.00 13.47
45.00 14.41
46.00 15.67
47.00 17.21
48.00 18.97
49.00 20.87
50.00 22.81
51.00 24.77
52.00 26.83
53.00 29.11
54.00 31.49
55.00 33.12
56.00 33.24
57.00 32.83
58.00 32.93
59.00 33.82
60.00 35.18
61.00 36.06
62.00 35.45
63.00 33.81
64.00 32.12
65.00 30.88
66.00 30.29
67.00 30.30
68.00 30.66
69.00 30.91
70.00 30.77
71.00 30.38
72.00 30.01
73.00 29.71
74.00 29.53
75.00 29.56
76.00 29.81
77.00 29.97
78.00 29.51
79.00 28.45
80.00 27.41
81.00 26.82
82.00 26.82
83.00 27.42
84.00 28.53
85.00 29.94
86.00 31.09
87.00 31.34
88.00 30.83
89.00 30.18
90.00 29.58
91.00 28.91
92.00 28.11
93.00 27.42
94.00 27.09
95.00 27.27
96.00 27.98
97.00 29.13
98.00 30.51
99.00 31.78
100.00 32.52
101.00 32.62
102.00 32.48
103.00 32.56
104.00 33.13
105.00 34.27
106.00 35.92
107.00 37.80
108.00 39.40
109.00 40.08
110.00 39.75
111.00 39.07
112.00 38.65
113.00 38.79
114.00 39.60
115.00 41.02
116.00 42.84
117.00 44.35
118.00 44.34
119.00 42.84
120.00 41.10
121.00 39.86
122.00 39.32
123.00 39.48
124.00 40.27
125.00 41.52
126.00 43.01
127.00 44.53
128.00 46.09
129.00 47.48
130.00 46.83
131.00 43.14
132.00 39.07
133.00 35.73
134.00 33.20
135.00 31.37
136.00 30.16
137.00 29.52
138.00 29.40
139.00 29.80
140.00 30.76
141.00 32.41
142.00 35.03
143.00 39.28
144.00 46.08
145.00 43.88
146.00 38.55
147.00 35.67
148.00 34.16
149.00 33.49
150.00 33.39
151.00 33.68
152.00 34.27
153.00 35.14
154.00 36.42
155.00 38.38
156.00 41.52
157.00 46.79
158.00 49.95
159.00 44.44
160.00 40.95
161.00 39.22
162.00 38.58
163.00 38.65
164.00 39.20
165.00 40.14
166.00 41.55
167.00 43.73
168.00 47.46
169.00 54.02
170.00 51.08
171.00 45.07
172.00 41.80
173.00 40.06
174.00 39.31
175.00 39.38
176.00 40.02
177.00 41.01
178.00 42.45
179.00 44.52
180.00 47.03
181.00 48.39
182.00 47.50
183.00 45.96
184.00 45.01
185.00 44.78
186.00 44.92
187.00 44.77
188.00 43.64
189.00 41.58
190.00 39.19
191.00 36.94
192.00 35.11
193.00 33.83
194.00 33.15
195.00 33.14
196.00 33.77
197.00 34.92
198.00 36.54
199.00 38.56
200.00 40.90
201.00 43.28
202.00 44.87
203.00 44.22
204.00 41.90
205.00 39.77
206.00 38.70
207.00 39.09
208.00 41.57
209.00 48.17
210.00 49.99
211.00 41.80
212.00 38.32
213.00 36.87
214.00 36.52
215.00 36.70
216.00 36.92
217.00 36.92
218.00 36.74
219.00 36.52
220.00 36.25
221.00 35.69
222.00 34.73
223.00 33.66
224.00 32.86
225.00 32.55
226.00 32.75
227.00 33.28
228.00 33.86
229.00 34.23
230.00 34.30
231.00 34.25
232.00 34.43
233.00 35.13
234.00 36.40
235.00 37.64
236.00 37.60
237.00 36.46
238.00 35.47
239.00 35.05
240.00 35.03
241.00 35.09
242.00 35.05
243.00 34.94
244.00 34.87
245.00 34.97
246.00 35.38
247.00 36.23
248.00 37.53
249.00 39.10
250.00 40.53
251.00 41.16
252.00 40.54
253.00 39.15
254.00 37.95
255.00 37.44
256.00 37.75
257.00 38.74
258.00 40.08
259.00 41.18
260.00 41.47
261.00 40.81
262.00 39.77
263.00 39.00
264.00 38.83
265.00 39.18
266.00 39.63
267.00 39.49
268.00 38.53
269.00 37.27
270.00 36.26
271.00 35.77
272.00 35.89
273.00 36.59
274.00 37.69
275.00 38.84
276.00 39.50
277.00 39.02
278.00 37.48
279.00 35.79
280.00 34.61
281.00 34.16
282.00 34.40
283.00 35.11
284.00 35.94
285.00 36.57
286.00 37.02
287.00 37.55
288.00 38.26
289.00 38.90
290.00 38.95
291.00 38.26
292.00 37.28
293.00 36.40
294.00 35.60
295.00 34.48
296.00 32.66
297.00 30.34
298.00 27.98
299.00 25.85
300.00 24.00
301.00 22.41
302.00 21.02
303.00 19.75
304.00 18.58
305.00 17.50
306.00 16.53
307.00 15.69
308.00 15.02
309.00 14.54
310.00 14.27
311.00 14.24
312.00 14.43
313.00 14.88
314.00 15.57
315.00 16.49
316.00 17.63
317.00 18.93
318.00 20.37
319.00 21.94
320.00 23.67
321.00 25.64
322.00 28.02
323.00 31.00
324.00 34.82
325.00 39.54
326.00 44.36
327.00 45.29
328.00 41.02
329.00 36.76
330.00 33.66
331.00 31.43
332.00 29.63
333.00 27.97
334.00 26.44
335.00 25.19
336.00 24.38
337.00 24.09
338.00 24.41
339.00 25.42
340.00 27.27
341.00 29.86
342.00 31.02
343.00 28.31
344.00 25.17
345.00 23.12
346.00 22.32
347.00 23.07
348.00 26.66
349.00 49.31
350.00 23.84
351.00 16.40
352.00 11.82
353.00 8.52
354.00 6.01
355.00 4.05
356.00 2.54
357.00 1.41
358.00 0.61
359.00 0.15
