NAME ATR4518R7_1880_X_CO_M45_07T_yyR
FREQUENCY 1880
GAIN 14.51 dBd
TILT	ELECTRICAL
COMMENT DATE 05.08.2013 -45 degrees polarized system Lever position 07T deg
HORIZONTAL 360
0.00 0.08
1.00 0.06
2.00 0.03
3.00 0.02
4.00 0.00
5.00 0.00
6.00 0.00
7.00 0.00
8.00 0.01
9.00 0.02
10.00 0.04
11.00 0.07
12.00 0.10
13.00 0.14
14.00 0.18
15.00 0.24
16.00 0.29
17.00 0.36
18.00 0.43
19.00 0.52
20.00 0.60
21.00 0.70
22.00 0.81
23.00 0.92
24.00 1.05
25.00 1.18
26.00 1.32
27.00 1.47
28.00 1.64
29.00 1.81
30.00 1.99
31.00 2.18
32.00 2.38
33.00 2.59
34.00 2.81
35.00 3.04
36.00 3.28
37.00 3.53
38.00 3.78
39.00 4.05
40.00 4.32
41.00 4.61
42.00 4.90
43.00 5.20
44.00 5.50
45.00 5.81
46.00 6.14
47.00 6.46
48.00 6.80
49.00 7.14
50.00 7.49
51.00 7.84
52.00 8.20
53.00 8.56
54.00 8.93
55.00 9.30
56.00 9.68
57.00 10.06
58.00 10.45
59.00 10.84
60.00 11.23
61.00 11.62
62.00 12.01
63.00 12.40
64.00 12.79
65.00 13.18
66.00 13.57
67.00 13.95
68.00 14.33
69.00 14.71
70.00 15.08
71.00 15.45
72.00 15.81
73.00 16.17
74.00 16.52
75.00 16.87
76.00 17.22
77.00 17.57
78.00 17.92
79.00 18.26
80.00 18.62
81.00 18.98
82.00 19.35
83.00 19.72
84.00 20.11
85.00 20.52
86.00 20.93
87.00 21.37
88.00 21.82
89.00 22.30
90.00 22.79
91.00 23.30
92.00 23.84
93.00 24.40
94.00 24.97
95.00 25.56
96.00 26.17
97.00 26.78
98.00 27.39
99.00 28.00
100.00 28.58
101.00 29.12
102.00 29.62
103.00 30.05
104.00 30.41
105.00 30.69
106.00 30.87
107.00 30.97
108.00 30.99
109.00 30.95
110.00 30.87
111.00 30.74
112.00 30.59
113.00 30.42
114.00 30.25
115.00 30.08
116.00 29.91
117.00 29.75
118.00 29.61
119.00 29.48
120.00 29.38
121.00 29.29
122.00 29.23
123.00 29.20
124.00 29.20
125.00 29.24
126.00 29.31
127.00 29.43
128.00 29.59
129.00 29.79
130.00 30.05
131.00 30.37
132.00 30.75
133.00 31.19
134.00 31.71
135.00 32.30
136.00 32.99
137.00 33.76
138.00 34.63
139.00 35.59
140.00 36.62
141.00 37.68
142.00 38.69
143.00 39.49
144.00 39.89
145.00 39.82
146.00 39.31
147.00 38.55
148.00 37.71
149.00 36.89
150.00 36.15
151.00 35.51
152.00 34.97
153.00 34.54
154.00 34.22
155.00 34.00
156.00 33.88
157.00 33.85
158.00 33.93
159.00 34.11
160.00 34.39
161.00 34.77
162.00 35.28
163.00 35.90
164.00 36.67
165.00 37.60
166.00 38.72
167.00 40.06
168.00 41.66
169.00 43.57
170.00 45.72
171.00 47.67
172.00 48.30
173.00 47.09
174.00 45.14
175.00 43.27
176.00 41.69
177.00 40.40
178.00 39.35
179.00 38.50
180.00 37.83
181.00 37.30
182.00 36.90
183.00 36.62
184.00 36.44
185.00 36.36
186.00 36.37
187.00 36.47
188.00 36.66
189.00 36.93
190.00 37.28
191.00 37.72
192.00 38.24
193.00 38.84
194.00 39.53
195.00 40.29
196.00 41.13
197.00 42.02
198.00 42.94
199.00 43.85
200.00 44.67
201.00 45.35
202.00 45.80
203.00 46.00
204.00 45.96
205.00 45.77
206.00 45.49
207.00 45.20
208.00 44.94
209.00 44.72
210.00 44.58
211.00 44.51
212.00 44.49
213.00 44.51
214.00 44.56
215.00 44.61
216.00 44.59
217.00 44.50
218.00 44.28
219.00 43.92
220.00 43.43
221.00 42.84
222.00 42.17
223.00 41.45
224.00 40.73
225.00 40.03
226.00 39.34
227.00 38.71
228.00 38.12
229.00 37.58
230.00 37.09
231.00 36.64
232.00 36.25
233.00 35.89
234.00 35.57
235.00 35.29
236.00 35.04
237.00 34.81
238.00 34.60
239.00 34.39
240.00 34.19
241.00 33.98
242.00 33.75
243.00 33.50
244.00 33.22
245.00 32.91
246.00 32.56
247.00 32.17
248.00 31.74
249.00 31.29
250.00 30.80
251.00 30.30
252.00 29.78
253.00 29.26
254.00 28.73
255.00 28.20
256.00 27.68
257.00 27.16
258.00 26.65
259.00 26.15
260.00 25.65
261.00 25.18
262.00 24.71
263.00 24.25
264.00 23.80
265.00 23.36
266.00 22.93
267.00 22.50
268.00 22.09
269.00 21.68
270.00 21.28
271.00 20.88
272.00 20.49
273.00 20.10
274.00 19.72
275.00 19.33
276.00 18.96
277.00 18.59
278.00 18.22
279.00 17.85
280.00 17.49
281.00 17.13
282.00 16.78
283.00 16.43
284.00 16.08
285.00 15.74
286.00 15.40
287.00 15.07
288.00 14.74
289.00 14.41
290.00 14.09
291.00 13.77
292.00 13.46
293.00 13.16
294.00 12.85
295.00 12.56
296.00 12.27
297.00 11.98
298.00 11.69
299.00 11.41
300.00 11.13
301.00 10.86
302.00 10.59
303.00 10.32
304.00 10.05
305.00 9.79
306.00 9.53
307.00 9.27
308.00 9.01
309.00 8.75
310.00 8.50
311.00 8.25
312.00 7.99
313.00 7.74
314.00 7.49
315.00 7.24
316.00 7.00
317.00 6.75
318.00 6.50
319.00 6.26
320.00 6.02
321.00 5.78
322.00 5.54
323.00 5.30
324.00 5.06
325.00 4.83
326.00 4.60
327.00 4.38
328.00 4.16
329.00 3.94
330.00 3.72
331.00 3.51
332.00 3.31
333.00 3.11
334.00 2.92
335.00 2.73
336.00 2.54
337.00 2.37
338.00 2.20
339.00 2.03
340.00 1.87
341.00 1.72
342.00 1.58
343.00 1.44
344.00 1.31
345.00 1.19
346.00 1.07
347.00 0.96
348.00 0.85
349.00 0.75
350.00 0.66
351.00 0.58
352.00 0.50
353.00 0.43
354.00 0.36
355.00 0.30
356.00 0.25
357.00 0.20
358.00 0.15
359.00 0.12
VERTICAL 360
0.00 21.69
1.00 14.29
2.00 9.12
3.00 5.49
4.00 2.94
5.00 1.25
6.00 0.28
7.00 0.00
8.00 0.42
9.00 1.62
10.00 3.76
11.00 7.26
12.00 13.35
13.00 25.22
14.00 17.30
15.00 12.70
16.00 11.54
17.00 12.49
18.00 15.86
19.00 24.03
20.00 24.37
21.00 17.09
22.00 14.71
23.00 14.74
24.00 16.85
25.00 22.07
26.00 32.72
27.00 23.77
28.00 18.88
29.00 17.10
30.00 17.00
31.00 18.31
32.00 21.39
33.00 27.93
34.00 31.78
35.00 23.39
36.00 19.70
37.00 18.35
38.00 18.64
39.00 20.53
40.00 24.45
41.00 32.73
42.00 41.32
43.00 30.09
44.00 26.42
45.00 24.49
46.00 23.48
47.00 23.45
48.00 24.62
49.00 27.19
50.00 30.39
51.00 30.35
52.00 27.71
53.00 25.81
54.00 24.91
55.00 24.79
56.00 25.39
57.00 26.82
58.00 29.30
59.00 33.19
60.00 37.92
61.00 38.01
62.00 34.82
63.00 32.53
64.00 30.99
65.00 29.92
66.00 29.27
67.00 28.99
68.00 28.95
69.00 28.96
70.00 28.93
71.00 28.93
72.00 29.12
73.00 29.54
74.00 30.03
75.00 30.24
76.00 29.97
77.00 29.36
78.00 28.81
79.00 28.59
80.00 28.68
81.00 28.77
82.00 28.48
83.00 27.65
84.00 26.64
85.00 25.99
86.00 26.01
87.00 26.63
88.00 27.37
89.00 27.64
90.00 27.37
91.00 26.91
92.00 26.55
93.00 26.47
94.00 26.79
95.00 27.47
96.00 28.35
97.00 29.26
98.00 30.20
99.00 31.37
100.00 32.94
101.00 34.87
102.00 36.59
103.00 37.30
104.00 37.06
105.00 36.82
106.00 37.33
107.00 38.81
108.00 40.81
109.00 42.09
110.00 42.08
111.00 41.65
112.00 41.46
113.00 41.62
114.00 41.92
115.00 41.88
116.00 41.08
117.00 39.49
118.00 37.53
119.00 35.70
120.00 34.35
121.00 33.72
122.00 33.88
123.00 34.82
124.00 36.35
125.00 38.20
126.00 39.92
127.00 40.73
128.00 39.95
129.00 38.22
130.00 36.55
131.00 35.36
132.00 34.70
133.00 34.50
134.00 34.77
135.00 35.81
136.00 38.10
137.00 41.36
138.00 40.89
139.00 37.46
140.00 35.58
141.00 35.57
142.00 37.35
143.00 40.99
144.00 44.99
145.00 44.67
146.00 42.60
147.00 40.69
148.00 38.68
149.00 37.20
150.00 36.98
151.00 38.65
152.00 43.88
153.00 52.84
154.00 41.96
155.00 37.57
156.00 35.93
157.00 35.65
158.00 36.06
159.00 36.84
160.00 37.86
161.00 38.95
162.00 40.05
163.00 41.98
164.00 45.17
165.00 43.56
166.00 38.78
167.00 36.19
168.00 35.51
169.00 36.18
170.00 37.37
171.00 37.90
172.00 37.36
173.00 36.37
174.00 35.67
175.00 36.03
176.00 38.38
177.00 44.89
178.00 49.68
179.00 40.94
180.00 38.24
181.00 38.34
182.00 40.18
183.00 42.05
184.00 42.15
185.00 42.59
186.00 45.83
187.00 54.93
188.00 55.50
189.00 50.98
190.00 48.10
191.00 43.94
192.00 42.16
193.00 43.72
194.00 50.75
195.00 64.77
196.00 52.00
197.00 53.50
198.00 57.00
199.00 58.74
200.00 56.10
201.00 45.82
202.00 42.65
203.00 45.61
204.00 58.55
205.00 39.01
206.00 34.06
207.00 32.59
208.00 33.58
209.00 37.10
210.00 43.84
211.00 47.13
212.00 42.10
213.00 38.64
214.00 36.22
215.00 34.89
216.00 34.77
217.00 35.90
218.00 38.38
219.00 42.33
220.00 47.53
221.00 51.62
222.00 51.25
223.00 47.97
224.00 45.37
225.00 45.41
226.00 48.86
227.00 46.10
228.00 39.50
229.00 36.27
230.00 35.36
231.00 36.26
232.00 38.69
233.00 42.05
234.00 44.96
235.00 46.53
236.00 47.90
237.00 50.27
238.00 50.14
239.00 44.81
240.00 40.68
241.00 38.50
242.00 38.09
243.00 39.56
244.00 43.17
245.00 45.79
246.00 42.27
247.00 39.24
248.00 37.61
249.00 36.72
250.00 36.23
251.00 36.10
252.00 36.35
253.00 36.84
254.00 37.24
255.00 37.47
256.00 37.76
257.00 38.13
258.00 37.97
259.00 36.76
260.00 35.07
261.00 33.89
262.00 33.78
263.00 34.92
264.00 36.98
265.00 38.59
266.00 38.42
267.00 37.22
268.00 35.81
269.00 34.71
270.00 34.24
271.00 34.31
272.00 34.62
273.00 35.12
274.00 36.02
275.00 37.43
276.00 38.96
277.00 39.50
278.00 38.32
279.00 36.30
280.00 34.34
281.00 32.68
282.00 31.27
283.00 30.10
284.00 29.26
285.00 28.88
286.00 29.06
287.00 29.80
288.00 30.79
289.00 31.32
290.00 30.85
291.00 29.74
292.00 28.57
293.00 27.51
294.00 26.56
295.00 25.70
296.00 24.97
297.00 24.44
298.00 24.19
299.00 24.25
300.00 24.53
301.00 24.84
302.00 24.93
303.00 24.70
304.00 24.36
305.00 24.16
306.00 24.16
307.00 24.22
308.00 24.09
309.00 23.75
310.00 23.43
311.00 23.35
312.00 23.54
313.00 23.83
314.00 23.88
315.00 23.36
316.00 22.38
317.00 21.36
318.00 20.76
319.00 20.78
320.00 21.49
321.00 22.72
322.00 24.03
323.00 24.57
324.00 23.83
325.00 22.46
326.00 21.24
327.00 20.46
328.00 20.09
329.00 19.94
330.00 19.83
331.00 19.73
332.00 19.75
333.00 20.07
334.00 20.88
335.00 22.59
336.00 25.95
337.00 28.68
338.00 23.72
339.00 19.36
340.00 17.13
341.00 16.56
342.00 17.51
343.00 20.07
344.00 23.80
345.00 24.60
346.00 22.29
347.00 21.41
348.00 22.95
349.00 28.45
350.00 32.31
351.00 23.03
352.00 18.82
353.00 17.03
354.00 16.94
355.00 18.57
356.00 22.62
357.00 32.27
358.00 40.03
359.00 30.17
