NAME ATR4518R7_0880_X_CO_P45_10T
FREQUENCY 0880
GAIN 14.78 dBd
TILT	ELECTRICAL
COMMENT DATE 05.08.2013 +45 degrees polarized system Lever position 10T deg
HORIZONTAL 360
0.00 0.01
1.00 0.00
2.00 0.01
3.00 0.02
4.00 0.03
5.00 0.06
6.00 0.09
7.00 0.12
8.00 0.16
9.00 0.21
10.00 0.26
11.00 0.32
12.00 0.39
13.00 0.46
14.00 0.53
15.00 0.62
16.00 0.70
17.00 0.80
18.00 0.90
19.00 1.01
20.00 1.12
21.00 1.24
22.00 1.37
23.00 1.49
24.00 1.63
25.00 1.77
26.00 1.92
27.00 2.07
28.00 2.23
29.00 2.40
30.00 2.57
31.00 2.74
32.00 2.92
33.00 3.11
34.00 3.30
35.00 3.50
36.00 3.70
37.00 3.91
38.00 4.12
39.00 4.34
40.00 4.56
41.00 4.78
42.00 5.02
43.00 5.25
44.00 5.50
45.00 5.74
46.00 5.99
47.00 6.25
48.00 6.51
49.00 6.77
50.00 7.04
51.00 7.31
52.00 7.59
53.00 7.87
54.00 8.15
55.00 8.45
56.00 8.74
57.00 9.04
58.00 9.34
59.00 9.65
60.00 9.96
61.00 10.27
62.00 10.59
63.00 10.91
64.00 11.24
65.00 11.57
66.00 11.91
67.00 12.25
68.00 12.60
69.00 12.95
70.00 13.31
71.00 13.67
72.00 14.03
73.00 14.40
74.00 14.78
75.00 15.16
76.00 15.54
77.00 15.93
78.00 16.33
79.00 16.73
80.00 17.14
81.00 17.55
82.00 17.97
83.00 18.39
84.00 18.82
85.00 19.25
86.00 19.69
87.00 20.13
88.00 20.57
89.00 21.02
90.00 21.47
91.00 21.92
92.00 22.37
93.00 22.82
94.00 23.27
95.00 23.71
96.00 24.15
97.00 24.58
98.00 25.01
99.00 25.42
100.00 25.83
101.00 26.21
102.00 26.58
103.00 26.93
104.00 27.27
105.00 27.58
106.00 27.86
107.00 28.13
108.00 28.37
109.00 28.58
110.00 28.78
111.00 28.95
112.00 29.11
113.00 29.24
114.00 29.36
115.00 29.47
116.00 29.56
117.00 29.64
118.00 29.72
119.00 29.79
120.00 29.86
121.00 29.92
122.00 29.98
123.00 30.05
124.00 30.11
125.00 30.18
126.00 30.26
127.00 30.33
128.00 30.42
129.00 30.51
130.00 30.61
131.00 30.72
132.00 30.84
133.00 30.98
134.00 31.12
135.00 31.28
136.00 31.46
137.00 31.65
138.00 31.86
139.00 32.09
140.00 32.34
141.00 32.62
142.00 32.91
143.00 33.24
144.00 33.60
145.00 34.00
146.00 34.42
147.00 34.90
148.00 35.42
149.00 35.99
150.00 36.63
151.00 37.33
152.00 38.11
153.00 39.00
154.00 39.98
155.00 41.08
156.00 42.32
157.00 43.68
158.00 45.10
159.00 46.36
160.00 47.13
161.00 46.99
162.00 46.02
163.00 44.62
164.00 43.15
165.00 41.76
166.00 40.50
167.00 39.37
168.00 38.36
169.00 37.45
170.00 36.64
171.00 35.91
172.00 35.25
173.00 34.66
174.00 34.12
175.00 33.63
176.00 33.19
177.00 32.80
178.00 32.44
179.00 32.13
180.00 31.84
181.00 31.59
182.00 31.38
183.00 31.19
184.00 31.03
185.00 30.90
186.00 30.80
187.00 30.72
188.00 30.67
189.00 30.64
190.00 30.63
191.00 30.66
192.00 30.70
193.00 30.77
194.00 30.86
195.00 30.97
196.00 31.11
197.00 31.26
198.00 31.43
199.00 31.63
200.00 31.84
201.00 32.06
202.00 32.30
203.00 32.56
204.00 32.81
205.00 33.08
206.00 33.34
207.00 33.59
208.00 33.83
209.00 34.05
210.00 34.24
211.00 34.40
212.00 34.52
213.00 34.59
214.00 34.62
215.00 34.59
216.00 34.51
217.00 34.39
218.00 34.23
219.00 34.03
220.00 33.80
221.00 33.56
222.00 33.31
223.00 33.04
224.00 32.77
225.00 32.50
226.00 32.23
227.00 31.97
228.00 31.71
229.00 31.46
230.00 31.21
231.00 30.98
232.00 30.75
233.00 30.52
234.00 30.31
235.00 30.10
236.00 29.90
237.00 29.70
238.00 29.51
239.00 29.32
240.00 29.12
241.00 28.94
242.00 28.75
243.00 28.55
244.00 28.36
245.00 28.17
246.00 27.97
247.00 27.77
248.00 27.56
249.00 27.34
250.00 27.12
251.00 26.89
252.00 26.65
253.00 26.41
254.00 26.15
255.00 25.89
256.00 25.62
257.00 25.34
258.00 25.05
259.00 24.75
260.00 24.44
261.00 24.12
262.00 23.80
263.00 23.46
264.00 23.12
265.00 22.78
266.00 22.42
267.00 22.07
268.00 21.71
269.00 21.34
270.00 20.97
271.00 20.60
272.00 20.22
273.00 19.85
274.00 19.47
275.00 19.09
276.00 18.72
277.00 18.34
278.00 17.96
279.00 17.59
280.00 17.22
281.00 16.85
282.00 16.48
283.00 16.11
284.00 15.75
285.00 15.39
286.00 15.03
287.00 14.67
288.00 14.32
289.00 13.97
290.00 13.63
291.00 13.29
292.00 12.95
293.00 12.61
294.00 12.28
295.00 11.95
296.00 11.62
297.00 11.30
298.00 10.98
299.00 10.67
300.00 10.36
301.00 10.05
302.00 9.74
303.00 9.44
304.00 9.14
305.00 8.85
306.00 8.56
307.00 8.27
308.00 7.99
309.00 7.71
310.00 7.44
311.00 7.16
312.00 6.89
313.00 6.63
314.00 6.37
315.00 6.12
316.00 5.87
317.00 5.62
318.00 5.38
319.00 5.14
320.00 4.90
321.00 4.68
322.00 4.45
323.00 4.23
324.00 4.02
325.00 3.81
326.00 3.61
327.00 3.41
328.00 3.22
329.00 3.03
330.00 2.84
331.00 2.66
332.00 2.49
333.00 2.33
334.00 2.16
335.00 2.01
336.00 1.86
337.00 1.71
338.00 1.57
339.00 1.44
340.00 1.31
341.00 1.19
342.00 1.07
343.00 0.96
344.00 0.86
345.00 0.76
346.00 0.67
347.00 0.58
348.00 0.50
349.00 0.43
350.00 0.36
351.00 0.30
352.00 0.24
353.00 0.19
354.00 0.14
355.00 0.11
356.00 0.07
357.00 0.05
358.00 0.03
359.00 0.01
VERTICAL 360
0.00 39.62
1.00 22.51
2.00 15.61
3.00 11.08
4.00 7.75
5.00 5.22
6.00 3.29
7.00 1.85
8.00 0.85
9.00 0.24
10.00 0.00
11.00 0.12
12.00 0.58
13.00 1.42
14.00 2.64
15.00 4.32
16.00 6.55
17.00 9.52
18.00 13.64
19.00 20.03
20.00 36.86
21.00 26.50
22.00 21.54
23.00 20.17
24.00 20.58
25.00 22.51
26.00 26.49
27.00 33.78
28.00 31.23
29.00 25.73
30.00 23.07
31.00 21.92
32.00 21.77
33.00 22.41
34.00 23.80
35.00 26.00
36.00 29.22
37.00 33.72
38.00 37.76
39.00 37.16
40.00 36.26
41.00 37.36
42.00 40.60
43.00 44.50
44.00 41.82
45.00 36.65
46.00 32.46
47.00 29.36
48.00 27.23
49.00 25.94
50.00 25.41
51.00 25.56
52.00 26.33
53.00 27.66
54.00 29.55
55.00 32.29
56.00 36.91
57.00 49.69
58.00 41.97
59.00 35.01
60.00 32.28
61.00 31.54
62.00 32.21
63.00 33.73
64.00 34.53
65.00 32.95
66.00 30.56
67.00 28.87
68.00 28.20
69.00 28.54
70.00 29.67
71.00 31.20
72.00 32.59
73.00 33.55
74.00 34.42
75.00 35.89
76.00 38.09
77.00 38.76
78.00 36.75
79.00 35.16
80.00 35.07
81.00 37.02
82.00 43.49
83.00 44.97
84.00 35.39
85.00 31.71
86.00 30.64
87.00 31.38
88.00 33.08
89.00 33.27
90.00 30.84
91.00 28.20
92.00 26.45
93.00 25.79
94.00 26.23
95.00 27.66
96.00 29.77
97.00 31.92
98.00 32.95
99.00 32.43
100.00 31.58
101.00 31.54
102.00 32.63
103.00 34.80
104.00 37.94
105.00 41.73
106.00 42.57
107.00 39.56
108.00 37.50
109.00 36.88
110.00 37.25
111.00 38.35
112.00 40.24
113.00 42.80
114.00 44.77
115.00 45.11
116.00 44.83
117.00 44.40
118.00 43.96
119.00 43.73
120.00 43.43
121.00 43.01
122.00 42.89
123.00 43.12
124.00 43.26
125.00 43.11
126.00 42.53
127.00 41.41
128.00 40.24
129.00 39.57
130.00 39.51
131.00 39.83
132.00 40.20
133.00 40.32
134.00 40.06
135.00 39.71
136.00 39.63
137.00 39.99
138.00 40.76
139.00 41.71
140.00 42.43
141.00 42.71
142.00 42.97
143.00 43.68
144.00 44.73
145.00 45.43
146.00 45.09
147.00 44.21
148.00 43.60
149.00 43.20
150.00 42.10
151.00 40.29
152.00 38.79
153.00 38.10
154.00 38.09
155.00 38.43
156.00 38.71
157.00 38.77
158.00 38.88
159.00 39.61
160.00 41.66
161.00 45.64
162.00 46.85
163.00 42.12
164.00 38.77
165.00 36.57
166.00 34.81
167.00 33.28
168.00 32.15
169.00 31.57
170.00 31.59
171.00 31.84
172.00 32.33
173.00 32.82
174.00 33.22
175.00 33.68
176.00 34.46
177.00 35.76
178.00 37.67
179.00 40.12
180.00 42.89
181.00 45.65
182.00 48.17
183.00 51.53
184.00 61.26
185.00 55.94
186.00 47.95
187.00 44.61
188.00 43.01
189.00 42.12
190.00 41.54
191.00 41.34
192.00 41.77
193.00 43.04
194.00 45.28
195.00 48.62
196.00 52.87
197.00 56.94
198.00 58.91
199.00 58.85
200.00 57.26
201.00 54.34
202.00 51.41
203.00 49.15
204.00 47.33
205.00 45.69
206.00 44.41
207.00 43.62
208.00 43.13
209.00 42.61
210.00 42.22
211.00 42.46
212.00 43.72
213.00 45.46
214.00 44.69
215.00 41.60
216.00 39.06
217.00 37.48
218.00 36.53
219.00 35.85
220.00 35.20
221.00 34.57
222.00 34.13
223.00 34.16
224.00 34.82
225.00 35.99
226.00 37.28
227.00 38.55
228.00 40.25
229.00 42.74
230.00 45.91
231.00 49.96
232.00 47.40
233.00 41.19
234.00 37.78
235.00 36.63
236.00 37.32
237.00 39.62
238.00 42.69
239.00 44.59
240.00 45.02
241.00 44.94
242.00 44.27
243.00 43.58
244.00 43.31
245.00 42.68
246.00 40.61
247.00 37.80
248.00 35.32
249.00 33.49
250.00 32.30
251.00 31.65
252.00 31.43
253.00 31.46
254.00 31.52
255.00 31.43
256.00 31.14
257.00 30.80
258.00 30.67
259.00 30.88
260.00 31.41
261.00 32.25
262.00 33.33
263.00 34.05
264.00 33.35
265.00 31.76
266.00 30.46
267.00 29.87
268.00 30.01
269.00 30.95
270.00 32.90
271.00 36.02
272.00 38.94
273.00 37.86
274.00 35.66
275.00 34.62
276.00 34.75
277.00 35.93
278.00 38.33
279.00 42.46
280.00 43.26
281.00 38.10
282.00 34.96
283.00 33.86
284.00 34.45
285.00 36.70
286.00 41.26
287.00 47.62
288.00 40.69
289.00 35.94
290.00 33.96
291.00 33.96
292.00 35.85
293.00 40.35
294.00 54.15
295.00 44.81
296.00 38.12
297.00 35.58
298.00 35.14
299.00 35.92
300.00 36.08
301.00 34.45
302.00 32.72
303.00 31.89
304.00 32.11
305.00 33.40
306.00 35.72
307.00 38.66
308.00 40.37
309.00 39.60
310.00 38.00
311.00 36.48
312.00 35.28
313.00 34.44
314.00 33.78
315.00 32.96
316.00 31.75
317.00 30.23
318.00 28.73
319.00 27.51
320.00 26.68
321.00 26.27
322.00 26.28
323.00 26.78
324.00 27.99
325.00 30.39
326.00 35.29
327.00 40.48
328.00 31.75
329.00 26.52
330.00 23.34
331.00 21.32
332.00 20.11
333.00 19.58
334.00 19.69
335.00 20.44
336.00 21.94
337.00 24.42
338.00 28.49
339.00 36.67
340.00 43.30
341.00 32.35
342.00 29.00
343.00 28.22
344.00 29.60
345.00 34.08
346.00 36.13
347.00 28.37
348.00 23.86
349.00 21.31
350.00 20.04
351.00 19.76
352.00 20.43
353.00 22.16
354.00 25.31
355.00 30.31
356.00 32.27
357.00 28.77
358.00 27.71
359.00 31.23
