NAME ATR4518R7_1880_X_CO_P45_04T_yyR
FREQUENCY 1880
GAIN 14.85 dBd
TILT	ELECTRICAL
COMMENT DATE 05.08.2013 +45 degrees polarized system Lever position 04T deg
HORIZONTAL 360
0.00 0.08
1.00 0.05
2.00 0.03
3.00 0.02
4.00 0.01
5.00 0.00
6.00 0.00
7.00 0.01
8.00 0.02
9.00 0.04
10.00 0.06
11.00 0.10
12.00 0.13
13.00 0.18
14.00 0.24
15.00 0.30
16.00 0.37
17.00 0.45
18.00 0.54
19.00 0.64
20.00 0.75
21.00 0.87
22.00 1.00
23.00 1.14
24.00 1.29
25.00 1.45
26.00 1.62
27.00 1.80
28.00 1.99
29.00 2.19
30.00 2.40
31.00 2.62
32.00 2.85
33.00 3.08
34.00 3.33
35.00 3.58
36.00 3.84
37.00 4.10
38.00 4.37
39.00 4.64
40.00 4.92
41.00 5.21
42.00 5.49
43.00 5.78
44.00 6.07
45.00 6.36
46.00 6.65
47.00 6.94
48.00 7.23
49.00 7.52
50.00 7.81
51.00 8.11
52.00 8.40
53.00 8.69
54.00 8.98
55.00 9.28
56.00 9.57
57.00 9.87
58.00 10.17
59.00 10.47
60.00 10.78
61.00 11.09
62.00 11.40
63.00 11.72
64.00 12.03
65.00 12.36
66.00 12.69
67.00 13.02
68.00 13.35
69.00 13.69
70.00 14.03
71.00 14.38
72.00 14.73
73.00 15.08
74.00 15.43
75.00 15.79
76.00 16.16
77.00 16.52
78.00 16.89
79.00 17.26
80.00 17.64
81.00 18.02
82.00 18.41
83.00 18.80
84.00 19.19
85.00 19.59
86.00 20.00
87.00 20.41
88.00 20.83
89.00 21.25
90.00 21.67
91.00 22.10
92.00 22.53
93.00 22.97
94.00 23.40
95.00 23.83
96.00 24.26
97.00 24.69
98.00 25.11
99.00 25.53
100.00 25.93
101.00 26.33
102.00 26.72
103.00 27.09
104.00 27.45
105.00 27.80
106.00 28.14
107.00 28.46
108.00 28.77
109.00 29.07
110.00 29.36
111.00 29.64
112.00 29.91
113.00 30.17
114.00 30.42
115.00 30.67
116.00 30.91
117.00 31.14
118.00 31.38
119.00 31.61
120.00 31.85
121.00 32.10
122.00 32.35
123.00 32.62
124.00 32.92
125.00 33.24
126.00 33.59
127.00 33.99
128.00 34.42
129.00 34.91
130.00 35.46
131.00 36.08
132.00 36.76
133.00 37.54
134.00 38.41
135.00 39.40
136.00 40.51
137.00 41.75
138.00 43.14
139.00 44.69
140.00 46.36
141.00 48.06
142.00 49.55
143.00 50.46
144.00 50.60
145.00 50.15
146.00 49.49
147.00 48.85
148.00 48.35
149.00 48.02
150.00 47.83
151.00 47.73
152.00 47.66
153.00 47.49
154.00 47.13
155.00 46.51
156.00 45.64
157.00 44.59
158.00 43.46
159.00 42.33
160.00 41.26
161.00 40.27
162.00 39.37
163.00 38.58
164.00 37.90
165.00 37.32
166.00 36.84
167.00 36.46
168.00 36.19
169.00 36.00
170.00 35.92
171.00 35.95
172.00 36.06
173.00 36.28
174.00 36.61
175.00 37.05
176.00 37.59
177.00 38.22
178.00 38.92
179.00 39.64
180.00 40.28
181.00 40.72
182.00 40.80
183.00 40.48
184.00 39.82
185.00 38.96
186.00 38.03
187.00 37.13
188.00 36.29
189.00 35.54
190.00 34.89
191.00 34.35
192.00 33.90
193.00 33.54
194.00 33.28
195.00 33.11
196.00 33.01
197.00 32.99
198.00 33.05
199.00 33.16
200.00 33.33
201.00 33.54
202.00 33.76
203.00 33.98
204.00 34.17
205.00 34.27
206.00 34.28
207.00 34.15
208.00 33.90
209.00 33.53
210.00 33.08
211.00 32.57
212.00 32.03
213.00 31.50
214.00 30.99
215.00 30.51
216.00 30.07
217.00 29.68
218.00 29.33
219.00 29.03
220.00 28.79
221.00 28.59
222.00 28.43
223.00 28.32
224.00 28.25
225.00 28.23
226.00 28.23
227.00 28.27
228.00 28.34
229.00 28.44
230.00 28.56
231.00 28.69
232.00 28.84
233.00 28.99
234.00 29.15
235.00 29.31
236.00 29.46
237.00 29.61
238.00 29.74
239.00 29.87
240.00 29.98
241.00 30.08
242.00 30.18
243.00 30.26
244.00 30.35
245.00 30.42
246.00 30.50
247.00 30.56
248.00 30.64
249.00 30.71
250.00 30.78
251.00 30.85
252.00 30.91
253.00 30.97
254.00 31.02
255.00 31.05
256.00 31.07
257.00 31.06
258.00 31.03
259.00 30.96
260.00 30.86
261.00 30.73
262.00 30.56
263.00 30.35
264.00 30.10
265.00 29.81
266.00 29.48
267.00 29.11
268.00 28.70
269.00 28.26
270.00 27.79
271.00 27.29
272.00 26.77
273.00 26.24
274.00 25.69
275.00 25.13
276.00 24.56
277.00 24.00
278.00 23.43
279.00 22.87
280.00 22.32
281.00 21.77
282.00 21.23
283.00 20.70
284.00 20.17
285.00 19.66
286.00 19.16
287.00 18.66
288.00 18.18
289.00 17.71
290.00 17.24
291.00 16.79
292.00 16.34
293.00 15.90
294.00 15.47
295.00 15.04
296.00 14.62
297.00 14.21
298.00 13.80
299.00 13.39
300.00 12.99
301.00 12.60
302.00 12.21
303.00 11.82
304.00 11.44
305.00 11.06
306.00 10.69
307.00 10.32
308.00 9.95
309.00 9.59
310.00 9.24
311.00 8.89
312.00 8.54
313.00 8.20
314.00 7.86
315.00 7.53
316.00 7.21
317.00 6.89
318.00 6.58
319.00 6.27
320.00 5.97
321.00 5.68
322.00 5.40
323.00 5.12
324.00 4.85
325.00 4.59
326.00 4.34
327.00 4.09
328.00 3.86
329.00 3.63
330.00 3.41
331.00 3.19
332.00 2.99
333.00 2.79
334.00 2.60
335.00 2.43
336.00 2.25
337.00 2.09
338.00 1.93
339.00 1.78
340.00 1.64
341.00 1.51
342.00 1.38
343.00 1.26
344.00 1.14
345.00 1.04
346.00 0.94
347.00 0.84
348.00 0.75
349.00 0.67
350.00 0.59
351.00 0.52
352.00 0.45
353.00 0.39
354.00 0.33
355.00 0.28
356.00 0.23
357.00 0.18
358.00 0.14
359.00 0.11
VERTICAL 360
0.00 5.77
1.00 3.11
2.00 1.34
3.00 0.31
4.00 0.00
5.00 0.40
6.00 1.61
7.00 3.78
8.00 7.25
9.00 12.91
10.00 21.87
11.00 19.36
12.00 15.17
13.00 14.39
14.00 15.91
15.00 20.39
16.00 30.85
17.00 24.55
18.00 18.93
19.00 17.32
20.00 17.94
21.00 20.76
22.00 27.12
23.00 31.41
24.00 24.03
25.00 20.60
26.00 19.55
27.00 20.30
28.00 23.22
29.00 30.56
30.00 33.71
31.00 24.80
32.00 21.23
33.00 19.69
34.00 19.27
35.00 19.63
36.00 20.77
37.00 22.87
38.00 26.24
39.00 30.04
40.00 30.50
41.00 29.21
42.00 29.67
43.00 32.29
44.00 34.54
45.00 32.13
46.00 29.49
47.00 28.40
48.00 28.43
49.00 29.24
50.00 30.72
51.00 33.03
52.00 35.68
53.00 35.25
54.00 31.80
55.00 28.75
56.00 26.60
57.00 25.22
58.00 24.51
59.00 24.46
60.00 25.04
61.00 26.16
62.00 27.58
63.00 29.01
64.00 30.25
65.00 31.35
66.00 32.61
67.00 34.20
68.00 35.81
69.00 36.79
70.00 36.83
71.00 36.17
72.00 35.28
73.00 34.66
74.00 34.36
75.00 33.91
76.00 32.86
77.00 31.31
78.00 29.73
79.00 28.50
80.00 27.63
81.00 26.97
82.00 26.31
83.00 25.68
84.00 25.25
85.00 25.28
86.00 25.89
87.00 27.01
88.00 28.44
89.00 30.11
90.00 31.99
91.00 33.08
92.00 32.27
93.00 30.83
94.00 30.06
95.00 30.20
96.00 31.25
97.00 33.15
98.00 35.77
99.00 38.67
100.00 41.01
101.00 41.83
102.00 41.88
103.00 42.84
104.00 46.04
105.00 52.30
106.00 48.51
107.00 42.52
108.00 39.81
109.00 38.99
110.00 39.32
111.00 39.96
112.00 40.13
113.00 39.81
114.00 39.77
115.00 40.77
116.00 43.36
117.00 48.25
118.00 57.69
119.00 64.32
120.00 55.74
121.00 51.42
122.00 48.07
123.00 45.72
124.00 44.41
125.00 43.98
126.00 44.38
127.00 46.24
128.00 51.33
129.00 62.80
130.00 53.41
131.00 49.61
132.00 50.40
133.00 55.00
134.00 52.02
135.00 44.70
136.00 40.63
137.00 38.46
138.00 37.46
139.00 37.11
140.00 36.92
141.00 36.64
142.00 36.38
143.00 36.38
144.00 36.76
145.00 37.28
146.00 37.59
147.00 37.75
148.00 38.04
149.00 38.14
150.00 37.88
151.00 38.19
152.00 40.26
153.00 44.70
154.00 46.21
155.00 42.03
156.00 39.04
157.00 37.20
158.00 36.02
159.00 34.99
160.00 33.90
161.00 33.34
162.00 34.04
163.00 36.41
164.00 40.65
165.00 46.68
166.00 49.73
167.00 44.02
168.00 39.97
169.00 37.91
170.00 36.31
171.00 34.65
172.00 33.69
173.00 34.02
174.00 35.60
175.00 37.48
176.00 38.50
177.00 39.18
178.00 39.74
179.00 39.86
180.00 41.36
181.00 48.78
182.00 48.06
183.00 39.50
184.00 37.25
185.00 37.95
186.00 40.71
187.00 44.88
188.00 45.10
189.00 39.88
190.00 37.15
191.00 37.72
192.00 42.70
193.00 48.44
194.00 41.84
195.00 39.96
196.00 40.87
197.00 41.85
198.00 41.54
199.00 39.60
200.00 36.64
201.00 34.67
202.00 34.24
203.00 34.94
204.00 35.84
205.00 36.46
206.00 37.24
207.00 38.18
208.00 38.55
209.00 38.57
210.00 39.52
211.00 42.87
212.00 51.70
213.00 45.97
214.00 38.60
215.00 35.00
216.00 33.16
217.00 32.69
218.00 33.61
219.00 36.15
220.00 40.53
221.00 44.93
222.00 45.56
223.00 46.33
224.00 49.18
225.00 52.36
226.00 58.26
227.00 63.29
228.00 49.90
229.00 46.98
230.00 48.98
231.00 55.56
232.00 47.54
233.00 41.63
234.00 39.07
235.00 38.31
236.00 38.91
237.00 40.82
238.00 44.65
239.00 49.08
240.00 43.97
241.00 39.03
242.00 36.68
243.00 36.07
244.00 36.77
245.00 38.52
246.00 41.28
247.00 45.42
248.00 52.70
249.00 61.05
250.00 50.70
251.00 46.06
252.00 44.05
253.00 43.57
254.00 43.83
255.00 43.87
256.00 43.00
257.00 41.19
258.00 39.25
259.00 38.02
260.00 37.70
261.00 38.07
262.00 38.92
263.00 39.74
264.00 38.85
265.00 36.63
266.00 35.29
267.00 35.34
268.00 35.86
269.00 35.49
270.00 34.48
271.00 33.60
272.00 33.05
273.00 33.22
274.00 34.47
275.00 35.61
276.00 34.19
277.00 31.84
278.00 30.23
279.00 29.31
280.00 28.82
281.00 28.64
282.00 28.58
283.00 28.37
284.00 27.80
285.00 26.85
286.00 25.72
287.00 24.71
288.00 23.98
289.00 23.52
290.00 23.24
291.00 23.06
292.00 23.04
293.00 23.30
294.00 23.95
295.00 25.05
296.00 26.60
297.00 28.43
298.00 29.89
299.00 29.90
300.00 28.63
301.00 27.44
302.00 27.06
303.00 27.60
304.00 28.71
305.00 29.76
306.00 30.37
307.00 30.97
308.00 32.32
309.00 34.26
310.00 33.02
311.00 28.50
312.00 24.78
313.00 22.28
314.00 20.69
315.00 19.81
316.00 19.53
317.00 19.78
318.00 20.45
319.00 21.40
320.00 22.41
321.00 23.09
322.00 22.90
323.00 21.78
324.00 20.43
325.00 19.50
326.00 19.15
327.00 19.20
328.00 19.27
329.00 19.32
330.00 19.76
331.00 21.07
332.00 23.61
333.00 27.39
334.00 29.50
335.00 26.93
336.00 24.09
337.00 22.53
338.00 22.36
339.00 24.12
340.00 29.89
341.00 34.58
342.00 24.74
343.00 20.99
344.00 20.41
345.00 22.79
346.00 29.70
347.00 27.61
348.00 20.80
349.00 17.97
350.00 17.32
351.00 18.60
352.00 22.64
353.00 36.04
354.00 29.42
355.00 23.75
356.00 23.98
357.00 22.50
358.00 15.21
359.00 9.60
