NAME ATR4518R7_1950_X_CO_M45_03T_yL
FREQUENCY 1950
GAIN 15.21 dBd
TILT	ELECTRICAL
COMMENT DATE 05.08.2013 -45 degrees polarized system Lever position 03T deg
HORIZONTAL 360
0.00 0.03
1.00 0.04
2.00 0.07
3.00 0.09
4.00 0.12
5.00 0.16
6.00 0.19
7.00 0.23
8.00 0.27
9.00 0.31
10.00 0.36
11.00 0.41
12.00 0.46
13.00 0.52
14.00 0.57
15.00 0.64
16.00 0.70
17.00 0.78
18.00 0.86
19.00 0.94
20.00 1.03
21.00 1.13
22.00 1.23
23.00 1.35
24.00 1.47
25.00 1.60
26.00 1.73
27.00 1.88
28.00 2.04
29.00 2.20
30.00 2.37
31.00 2.56
32.00 2.75
33.00 2.95
34.00 3.17
35.00 3.39
36.00 3.62
37.00 3.87
38.00 4.12
39.00 4.38
40.00 4.65
41.00 4.93
42.00 5.22
43.00 5.51
44.00 5.82
45.00 6.13
46.00 6.45
47.00 6.77
48.00 7.10
49.00 7.43
50.00 7.76
51.00 8.11
52.00 8.45
53.00 8.80
54.00 9.14
55.00 9.49
56.00 9.84
57.00 10.19
58.00 10.55
59.00 10.90
60.00 11.25
61.00 11.61
62.00 11.97
63.00 12.33
64.00 12.69
65.00 13.06
66.00 13.43
67.00 13.81
68.00 14.19
69.00 14.57
70.00 14.95
71.00 15.34
72.00 15.74
73.00 16.13
74.00 16.53
75.00 16.93
76.00 17.33
77.00 17.72
78.00 18.12
79.00 18.51
80.00 18.89
81.00 19.27
82.00 19.65
83.00 20.03
84.00 20.40
85.00 20.77
86.00 21.15
87.00 21.53
88.00 21.92
89.00 22.33
90.00 22.75
91.00 23.20
92.00 23.68
93.00 24.19
94.00 24.74
95.00 25.34
96.00 25.97
97.00 26.66
98.00 27.39
99.00 28.17
100.00 28.96
101.00 29.75
102.00 30.49
103.00 31.13
104.00 31.59
105.00 31.82
106.00 31.82
107.00 31.62
108.00 31.30
109.00 30.90
110.00 30.50
111.00 30.14
112.00 29.83
113.00 29.59
114.00 29.43
115.00 29.35
116.00 29.35
117.00 29.42
118.00 29.55
119.00 29.74
120.00 29.96
121.00 30.20
122.00 30.41
123.00 30.57
124.00 30.64
125.00 30.61
126.00 30.47
127.00 30.22
128.00 29.90
129.00 29.53
130.00 29.15
131.00 28.77
132.00 28.43
133.00 28.13
134.00 27.89
135.00 27.70
136.00 27.58
137.00 27.52
138.00 27.52
139.00 27.57
140.00 27.69
141.00 27.86
142.00 28.08
143.00 28.34
144.00 28.64
145.00 28.99
146.00 29.36
147.00 29.76
148.00 30.18
149.00 30.62
150.00 31.06
151.00 31.49
152.00 31.89
153.00 32.22
154.00 32.47
155.00 32.59
156.00 32.55
157.00 32.35
158.00 32.00
159.00 31.54
160.00 31.00
161.00 30.43
162.00 29.88
163.00 29.36
164.00 28.90
165.00 28.51
166.00 28.20
167.00 27.99
168.00 27.87
169.00 27.85
170.00 27.94
171.00 28.15
172.00 28.48
173.00 28.93
174.00 29.51
175.00 30.21
176.00 31.02
177.00 31.86
178.00 32.65
179.00 33.19
180.00 33.30
181.00 32.90
182.00 32.13
183.00 31.18
184.00 30.21
185.00 29.31
186.00 28.54
187.00 27.90
188.00 27.41
189.00 27.06
190.00 26.85
191.00 26.79
192.00 26.88
193.00 27.13
194.00 27.56
195.00 28.17
196.00 29.02
197.00 30.14
198.00 31.63
199.00 33.63
200.00 36.46
201.00 40.76
202.00 47.17
203.00 44.01
204.00 38.33
205.00 34.74
206.00 32.25
207.00 30.41
208.00 29.00
209.00 27.91
210.00 27.06
211.00 26.41
212.00 25.94
213.00 25.63
214.00 25.46
215.00 25.44
216.00 25.55
217.00 25.80
218.00 26.20
219.00 26.77
220.00 27.51
221.00 28.46
222.00 29.66
223.00 31.20
224.00 33.19
225.00 35.84
226.00 39.43
227.00 43.13
228.00 41.69
229.00 37.67
230.00 34.52
231.00 32.18
232.00 30.38
233.00 28.95
234.00 27.81
235.00 26.87
236.00 26.10
237.00 25.48
238.00 24.97
239.00 24.55
240.00 24.22
241.00 23.96
242.00 23.76
243.00 23.62
244.00 23.50
245.00 23.42
246.00 23.36
247.00 23.30
248.00 23.23
249.00 23.15
250.00 23.05
251.00 22.91
252.00 22.74
253.00 22.54
254.00 22.30
255.00 22.04
256.00 21.75
257.00 21.45
258.00 21.15
259.00 20.85
260.00 20.55
261.00 20.25
262.00 19.97
263.00 19.71
264.00 19.45
265.00 19.21
266.00 18.97
267.00 18.75
268.00 18.53
269.00 18.31
270.00 18.09
271.00 17.87
272.00 17.63
273.00 17.39
274.00 17.14
275.00 16.87
276.00 16.59
277.00 16.29
278.00 15.99
279.00 15.67
280.00 15.34
281.00 15.00
282.00 14.66
283.00 14.31
284.00 13.96
285.00 13.61
286.00 13.27
287.00 12.93
288.00 12.59
289.00 12.26
290.00 11.93
291.00 11.61
292.00 11.30
293.00 11.00
294.00 10.70
295.00 10.40
296.00 10.12
297.00 9.84
298.00 9.57
299.00 9.30
300.00 9.04
301.00 8.78
302.00 8.53
303.00 8.28
304.00 8.04
305.00 7.80
306.00 7.56
307.00 7.33
308.00 7.10
309.00 6.88
310.00 6.65
311.00 6.43
312.00 6.21
313.00 6.00
314.00 5.79
315.00 5.57
316.00 5.37
317.00 5.16
318.00 4.95
319.00 4.75
320.00 4.55
321.00 4.36
322.00 4.16
323.00 3.97
324.00 3.78
325.00 3.59
326.00 3.41
327.00 3.23
328.00 3.06
329.00 2.88
330.00 2.71
331.00 2.54
332.00 2.38
333.00 2.22
334.00 2.06
335.00 1.90
336.00 1.75
337.00 1.60
338.00 1.46
339.00 1.32
340.00 1.19
341.00 1.06
342.00 0.94
343.00 0.82
344.00 0.71
345.00 0.61
346.00 0.51
347.00 0.42
348.00 0.34
349.00 0.27
350.00 0.21
351.00 0.15
352.00 0.11
353.00 0.07
354.00 0.04
355.00 0.02
356.00 0.01
357.00 0.00
358.00 0.01
359.00 0.01
VERTICAL 360
0.00 3.87
1.00 1.83
2.00 0.55
3.00 0.00
4.00 0.21
5.00 1.22
6.00 3.20
7.00 6.48
8.00 12.03
9.00 25.48
10.00 19.35
11.00 14.16
12.00 13.36
13.00 15.23
14.00 19.53
15.00 20.15
16.00 16.06
17.00 13.89
18.00 13.41
19.00 14.19
20.00 16.23
21.00 20.11
22.00 25.55
23.00 22.45
24.00 18.69
25.00 17.49
26.00 18.22
27.00 20.54
28.00 23.41
29.00 23.63
30.00 21.39
31.00 19.41
32.00 18.34
33.00 18.30
34.00 19.39
35.00 21.61
36.00 24.41
37.00 25.11
38.00 22.88
39.00 20.49
40.00 18.76
41.00 17.70
42.00 17.19
43.00 17.12
44.00 17.41
45.00 18.14
46.00 19.47
47.00 21.57
48.00 24.51
49.00 27.88
50.00 30.52
51.00 31.72
52.00 31.27
53.00 28.90
54.00 26.29
55.00 24.50
56.00 23.67
57.00 23.70
58.00 24.46
59.00 25.85
60.00 27.81
61.00 30.28
62.00 33.14
63.00 35.95
64.00 37.87
65.00 38.93
66.00 40.22
67.00 42.39
68.00 45.02
69.00 46.18
70.00 44.55
71.00 41.87
72.00 39.67
73.00 38.30
74.00 37.61
75.00 37.25
76.00 36.72
77.00 35.84
78.00 35.01
79.00 34.66
80.00 34.88
81.00 35.58
82.00 36.46
83.00 37.16
84.00 37.55
85.00 38.18
86.00 39.90
87.00 43.10
88.00 46.14
89.00 45.43
90.00 42.86
91.00 40.00
92.00 37.94
93.00 37.31
94.00 38.15
95.00 40.00
96.00 41.65
97.00 42.21
98.00 42.06
99.00 41.42
100.00 40.77
101.00 40.67
102.00 41.14
103.00 41.66
104.00 41.56
105.00 40.81
106.00 40.31
107.00 40.90
108.00 43.28
109.00 48.38
110.00 54.27
111.00 49.41
112.00 45.95
113.00 43.72
114.00 41.64
115.00 39.57
116.00 37.80
117.00 36.63
118.00 36.20
119.00 36.51
120.00 37.35
121.00 38.27
122.00 38.60
123.00 38.24
124.00 38.00
125.00 38.72
126.00 41.20
127.00 46.85
128.00 50.44
129.00 43.59
130.00 40.35
131.00 39.07
132.00 38.73
133.00 38.82
134.00 39.22
135.00 40.32
136.00 42.90
137.00 47.81
138.00 47.55
139.00 42.77
140.00 40.73
141.00 40.86
142.00 42.61
143.00 45.22
144.00 47.15
145.00 47.22
146.00 46.12
147.00 44.72
148.00 42.50
149.00 39.31
150.00 36.33
151.00 34.19
152.00 32.89
153.00 32.30
154.00 32.33
155.00 32.90
156.00 33.75
157.00 34.28
158.00 34.05
159.00 33.50
160.00 33.17
161.00 33.01
162.00 32.80
163.00 32.66
164.00 33.05
165.00 34.38
166.00 36.55
167.00 38.45
168.00 39.34
169.00 40.77
170.00 44.47
171.00 53.01
172.00 55.45
173.00 44.39
174.00 38.39
175.00 34.74
176.00 32.83
177.00 32.28
178.00 32.73
179.00 33.83
180.00 35.37
181.00 37.20
182.00 38.33
183.00 37.21
184.00 35.24
185.00 33.91
186.00 33.40
187.00 33.47
188.00 33.88
189.00 34.55
190.00 35.58
191.00 37.08
192.00 38.97
193.00 40.70
194.00 41.28
195.00 40.23
196.00 38.21
197.00 36.22
198.00 34.90
199.00 34.51
200.00 35.11
201.00 36.43
202.00 37.34
203.00 36.23
204.00 34.06
205.00 32.51
206.00 32.21
207.00 33.62
208.00 37.69
209.00 45.98
210.00 39.49
211.00 34.63
212.00 32.59
213.00 31.98
214.00 32.29
215.00 33.47
216.00 35.90
217.00 40.74
218.00 53.81
219.00 44.79
220.00 38.98
221.00 36.41
222.00 35.04
223.00 34.24
224.00 33.82
225.00 33.80
226.00 34.22
227.00 35.00
228.00 35.91
229.00 36.61
230.00 36.78
231.00 36.38
232.00 35.74
233.00 35.23
234.00 35.00
235.00 34.94
236.00 34.72
237.00 34.21
238.00 33.73
239.00 33.75
240.00 34.51
241.00 35.99
242.00 38.00
243.00 40.22
244.00 42.49
245.00 44.27
246.00 43.35
247.00 40.35
248.00 38.13
249.00 37.49
250.00 38.49
251.00 40.94
252.00 43.70
253.00 44.53
254.00 43.24
255.00 41.27
256.00 39.58
257.00 38.17
258.00 36.67
259.00 35.37
260.00 34.90
261.00 35.59
262.00 37.23
263.00 38.64
264.00 38.49
265.00 37.50
266.00 36.57
267.00 35.92
268.00 35.62
269.00 35.56
270.00 35.47
271.00 35.14
272.00 34.73
273.00 34.58
274.00 34.88
275.00 35.72
276.00 37.00
277.00 38.33
278.00 38.85
279.00 37.97
280.00 36.22
281.00 34.27
282.00 32.41
283.00 30.71
284.00 29.24
285.00 27.98
286.00 26.91
287.00 25.96
288.00 25.10
289.00 24.31
290.00 23.61
291.00 23.01
292.00 22.52
293.00 22.20
294.00 22.15
295.00 22.48
296.00 23.27
297.00 24.56
298.00 26.24
299.00 27.86
300.00 28.50
301.00 27.72
302.00 26.15
303.00 24.53
304.00 23.17
305.00 22.25
306.00 21.87
307.00 22.13
308.00 23.14
309.00 25.04
310.00 27.75
311.00 29.64
312.00 27.99
313.00 25.18
314.00 22.99
315.00 21.58
316.00 20.97
317.00 21.22
318.00 22.44
319.00 24.81
320.00 28.61
321.00 34.34
322.00 40.36
323.00 38.41
324.00 35.96
325.00 34.68
326.00 32.88
327.00 29.73
328.00 26.68
329.00 24.78
330.00 24.39
331.00 25.91
332.00 30.72
333.00 37.68
334.00 27.20
335.00 22.15
336.00 19.54
337.00 18.52
338.00 18.98
339.00 21.37
340.00 27.40
341.00 33.68
342.00 24.12
343.00 20.72
344.00 20.21
345.00 22.30
346.00 29.35
347.00 33.46
348.00 22.37
349.00 18.36
350.00 16.59
351.00 16.20
352.00 16.83
353.00 18.30
354.00 20.71
355.00 25.09
356.00 25.81
357.00 16.84
358.00 10.89
359.00 6.79
