NAME ATR4518R7_2655_X_CO_P45_07T_yL
FREQUENCY 2655
GAIN 15.81 dBd
TILT	ELECTRICAL
COMMENT DATE 05.08.2013 +45 degrees polarized system Lever position 07T deg
HORIZONTAL 360
0.00 0.01
1.00 0.03
2.00 0.06
3.00 0.10
4.00 0.14
5.00 0.20
6.00 0.26
7.00 0.33
8.00 0.41
9.00 0.49
10.00 0.57
11.00 0.66
12.00 0.75
13.00 0.84
14.00 0.95
15.00 1.04
16.00 1.15
17.00 1.26
18.00 1.37
19.00 1.49
20.00 1.61
21.00 1.73
22.00 1.86
23.00 1.99
24.00 2.13
25.00 2.27
26.00 2.42
27.00 2.58
28.00 2.72
29.00 2.89
30.00 3.06
31.00 3.23
32.00 3.40
33.00 3.58
34.00 3.76
35.00 3.94
36.00 4.14
37.00 4.32
38.00 4.52
39.00 4.71
40.00 4.91
41.00 5.11
42.00 5.31
43.00 5.52
44.00 5.71
45.00 5.91
46.00 6.13
47.00 6.33
48.00 6.53
49.00 6.74
50.00 6.95
51.00 7.15
52.00 7.37
53.00 7.58
54.00 7.79
55.00 8.00
56.00 8.22
57.00 8.43
58.00 8.64
59.00 8.86
60.00 9.09
61.00 9.33
62.00 9.55
63.00 9.78
64.00 10.01
65.00 10.24
66.00 10.47
67.00 10.71
68.00 10.94
69.00 11.18
70.00 11.43
71.00 11.68
72.00 11.94
73.00 12.22
74.00 12.51
75.00 12.80
76.00 13.12
77.00 13.45
78.00 13.79
79.00 14.16
80.00 14.55
81.00 14.96
82.00 15.39
83.00 15.85
84.00 16.33
85.00 16.83
86.00 17.37
87.00 17.92
88.00 18.50
89.00 19.11
90.00 19.72
91.00 20.37
92.00 21.01
93.00 21.67
94.00 22.32
95.00 22.97
96.00 23.60
97.00 24.22
98.00 24.82
99.00 25.38
100.00 25.94
101.00 26.48
102.00 27.01
103.00 27.55
104.00 28.11
105.00 28.69
106.00 29.31
107.00 29.98
108.00 30.69
109.00 31.46
110.00 32.28
111.00 33.17
112.00 34.10
113.00 35.06
114.00 36.01
115.00 36.90
116.00 37.67
117.00 38.22
118.00 38.48
119.00 38.41
120.00 38.06
121.00 37.49
122.00 36.80
123.00 36.05
124.00 35.32
125.00 34.63
126.00 34.01
127.00 33.48
128.00 33.04
129.00 32.71
130.00 32.49
131.00 32.38
132.00 32.39
133.00 32.49
134.00 32.71
135.00 33.00
136.00 33.35
137.00 33.71
138.00 34.03
139.00 34.24
140.00 34.30
141.00 34.17
142.00 33.89
143.00 33.50
144.00 33.08
145.00 32.68
146.00 32.36
147.00 32.13
148.00 32.01
149.00 32.02
150.00 32.16
151.00 32.43
152.00 32.84
153.00 33.37
154.00 34.00
155.00 34.69
156.00 35.38
157.00 35.97
158.00 36.37
159.00 36.49
160.00 36.35
161.00 36.03
162.00 35.62
163.00 35.22
164.00 34.89
165.00 34.66
166.00 34.53
167.00 34.51
168.00 34.59
169.00 34.73
170.00 34.91
171.00 35.07
172.00 35.17
173.00 35.15
174.00 34.98
175.00 34.67
176.00 34.27
177.00 33.82
178.00 33.36
179.00 32.95
180.00 32.60
181.00 32.33
182.00 32.17
183.00 32.11
184.00 32.16
185.00 32.32
186.00 32.59
187.00 32.96
188.00 33.42
189.00 33.93
190.00 34.45
191.00 34.91
192.00 35.22
193.00 35.31
194.00 35.16
195.00 34.81
196.00 34.33
197.00 33.81
198.00 33.32
199.00 32.90
200.00 32.57
201.00 32.37
202.00 32.29
203.00 32.34
204.00 32.53
205.00 32.86
206.00 33.34
207.00 33.97
208.00 34.76
209.00 35.71
210.00 36.82
211.00 38.05
212.00 39.37
213.00 40.62
214.00 41.60
215.00 42.06
216.00 41.94
217.00 41.41
218.00 40.72
219.00 40.02
220.00 39.39
221.00 38.87
222.00 38.44
223.00 38.10
224.00 37.85
225.00 37.66
226.00 37.52
227.00 37.42
228.00 37.36
229.00 37.31
230.00 37.24
231.00 37.13
232.00 36.95
233.00 36.67
234.00 36.28
235.00 35.77
236.00 35.18
237.00 34.54
238.00 33.88
239.00 33.23
240.00 32.64
241.00 32.10
242.00 31.63
243.00 31.25
244.00 30.95
245.00 30.74
246.00 30.61
247.00 30.56
248.00 30.57
249.00 30.64
250.00 30.72
251.00 30.80
252.00 30.83
253.00 30.78
254.00 30.60
255.00 30.30
256.00 29.87
257.00 29.33
258.00 28.74
259.00 28.13
260.00 27.52
261.00 26.95
262.00 26.42
263.00 25.95
264.00 25.54
265.00 25.20
266.00 24.92
267.00 24.69
268.00 24.51
269.00 24.36
270.00 24.24
271.00 24.11
272.00 23.98
273.00 23.82
274.00 23.61
275.00 23.35
276.00 23.05
277.00 22.70
278.00 22.33
279.00 21.94
280.00 21.56
281.00 21.18
282.00 20.84
283.00 20.51
284.00 20.24
285.00 20.00
286.00 19.80
287.00 19.63
288.00 19.50
289.00 19.38
290.00 19.28
291.00 19.17
292.00 19.05
293.00 18.90
294.00 18.71
295.00 18.48
296.00 18.20
297.00 17.86
298.00 17.50
299.00 17.09
300.00 16.67
301.00 16.23
302.00 15.78
303.00 15.32
304.00 14.86
305.00 14.39
306.00 13.94
307.00 13.51
308.00 13.06
309.00 12.60
310.00 12.12
311.00 11.64
312.00 11.13
313.00 10.64
314.00 10.13
315.00 9.63
316.00 9.14
317.00 8.66
318.00 8.20
319.00 7.75
320.00 7.34
321.00 6.94
322.00 6.57
323.00 6.22
324.00 5.90
325.00 5.60
326.00 5.32
327.00 5.06
328.00 4.81
329.00 4.58
330.00 4.36
331.00 4.14
332.00 3.93
333.00 3.73
334.00 3.52
335.00 3.32
336.00 3.12
337.00 2.91
338.00 2.71
339.00 2.51
340.00 2.31
341.00 2.11
342.00 1.92
343.00 1.73
344.00 1.54
345.00 1.35
346.00 1.18
347.00 1.02
348.00 0.86
349.00 0.72
350.00 0.60
351.00 0.47
352.00 0.37
353.00 0.27
354.00 0.19
355.00 0.13
356.00 0.07
357.00 0.04
358.00 0.01
359.00 0.00
VERTICAL 360
0.00 25.76
1.00 28.38
2.00 17.35
3.00 10.12
4.00 5.38
5.00 2.31
6.00 0.54
7.00 0.00
8.00 0.75
9.00 3.11
10.00 8.04
11.00 21.26
12.00 15.97
13.00 10.73
14.00 10.46
15.00 13.58
16.00 23.10
17.00 21.79
18.00 15.86
19.00 15.61
20.00 19.39
21.00 28.51
22.00 22.10
23.00 18.53
24.00 19.01
25.00 24.21
26.00 37.03
27.00 21.59
28.00 18.39
29.00 18.90
30.00 23.09
31.00 35.54
32.00 23.64
33.00 18.43
34.00 16.50
35.00 16.69
36.00 19.01
37.00 24.50
38.00 41.63
39.00 30.07
40.00 25.60
41.00 24.11
42.00 23.99
43.00 25.57
44.00 29.80
45.00 36.61
46.00 34.79
47.00 33.26
48.00 34.38
49.00 34.46
50.00 32.94
51.00 32.91
52.00 35.18
53.00 39.28
54.00 42.03
55.00 39.34
56.00 35.97
57.00 34.77
58.00 35.82
59.00 38.40
60.00 40.54
61.00 40.35
62.00 39.00
63.00 37.91
64.00 36.99
65.00 36.22
66.00 35.97
67.00 36.29
68.00 36.91
69.00 37.34
70.00 37.62
71.00 38.78
72.00 41.51
73.00 44.50
74.00 45.08
75.00 46.01
76.00 49.05
77.00 47.77
78.00 45.10
79.00 45.47
80.00 47.22
81.00 46.26
82.00 43.94
83.00 44.63
84.00 47.55
85.00 40.70
86.00 38.14
87.00 40.77
88.00 39.78
89.00 35.46
90.00 36.01
91.00 40.82
92.00 39.59
93.00 39.26
94.00 47.74
95.00 41.30
96.00 37.56
97.00 39.50
98.00 46.26
99.00 55.59
100.00 53.15
101.00 49.80
102.00 52.31
103.00 51.56
104.00 48.27
105.00 52.12
106.00 54.27
107.00 49.83
108.00 51.16
109.00 49.48
110.00 48.16
111.00 49.93
112.00 48.42
113.00 46.30
114.00 45.75
115.00 44.62
116.00 42.27
117.00 39.82
118.00 38.61
119.00 39.24
120.00 41.09
121.00 41.28
122.00 40.04
123.00 39.99
124.00 41.02
125.00 41.41
126.00 41.02
127.00 41.41
128.00 42.79
129.00 44.34
130.00 44.67
131.00 43.55
132.00 43.08
133.00 41.47
134.00 37.60
135.00 35.05
136.00 34.28
137.00 34.32
138.00 34.11
139.00 33.56
140.00 33.02
141.00 32.71
142.00 32.81
143.00 33.47
144.00 34.52
145.00 35.30
146.00 34.89
147.00 33.16
148.00 31.64
149.00 31.44
150.00 32.30
151.00 33.30
152.00 34.67
153.00 36.73
154.00 36.74
155.00 35.45
156.00 34.89
157.00 34.77
158.00 35.98
159.00 37.64
160.00 34.43
161.00 31.67
162.00 31.60
163.00 33.82
164.00 36.80
165.00 39.11
166.00 44.61
167.00 52.70
168.00 40.50
169.00 35.98
170.00 33.32
171.00 32.05
172.00 32.05
173.00 32.76
174.00 33.45
175.00 33.53
176.00 33.57
177.00 34.57
178.00 36.65
179.00 38.77
180.00 39.68
181.00 39.53
182.00 38.66
183.00 37.07
184.00 36.53
185.00 38.87
186.00 46.43
187.00 53.65
188.00 52.84
189.00 49.58
190.00 39.54
191.00 34.56
192.00 32.27
193.00 32.45
194.00 35.31
195.00 39.16
196.00 37.57
197.00 35.38
198.00 34.37
199.00 33.79
200.00 33.15
201.00 32.78
202.00 33.50
203.00 35.53
204.00 38.28
205.00 39.69
206.00 38.00
207.00 36.77
208.00 38.30
209.00 42.42
210.00 40.16
211.00 37.15
212.00 37.24
213.00 39.06
214.00 40.05
215.00 40.59
216.00 42.24
217.00 44.05
218.00 46.71
219.00 48.45
220.00 43.95
221.00 41.88
222.00 41.99
223.00 41.14
224.00 38.01
225.00 35.41
226.00 34.68
227.00 36.26
228.00 40.39
229.00 43.56
230.00 41.77
231.00 41.51
232.00 43.29
233.00 44.21
234.00 42.04
235.00 40.33
236.00 40.31
237.00 41.67
238.00 42.98
239.00 43.08
240.00 44.00
241.00 47.48
242.00 50.01
243.00 48.07
244.00 47.61
245.00 45.72
246.00 43.29
247.00 42.45
248.00 42.58
249.00 43.89
250.00 48.62
251.00 48.51
252.00 43.77
253.00 44.44
254.00 50.73
255.00 50.08
256.00 45.62
257.00 41.62
258.00 39.08
259.00 39.67
260.00 43.12
261.00 44.63
262.00 46.25
263.00 47.20
264.00 40.26
265.00 37.51
266.00 37.41
267.00 38.59
268.00 41.00
269.00 43.07
270.00 40.34
271.00 37.65
272.00 35.11
273.00 32.71
274.00 31.81
275.00 32.98
276.00 36.49
277.00 42.56
278.00 41.85
279.00 36.33
280.00 34.06
281.00 34.44
282.00 36.79
283.00 39.45
284.00 39.45
285.00 36.99
286.00 35.22
287.00 34.85
288.00 34.75
289.00 33.43
290.00 31.32
291.00 30.04
292.00 30.45
293.00 32.77
294.00 36.61
295.00 40.44
296.00 42.85
297.00 46.18
298.00 41.62
299.00 33.80
300.00 29.08
301.00 25.76
302.00 22.67
303.00 19.38
304.00 16.26
305.00 13.70
306.00 11.81
307.00 10.47
308.00 9.56
309.00 9.06
310.00 9.09
311.00 9.86
312.00 11.69
313.00 15.27
314.00 23.30
315.00 25.29
316.00 16.76
317.00 13.84
318.00 13.39
319.00 15.02
320.00 19.52
321.00 29.91
322.00 21.13
323.00 16.44
324.00 15.27
325.00 16.76
326.00 21.97
327.00 32.86
328.00 21.15
329.00 17.46
330.00 17.31
331.00 20.78
332.00 35.10
333.00 22.32
334.00 17.22
335.00 16.15
336.00 17.73
337.00 22.40
338.00 32.53
339.00 27.81
340.00 25.29
341.00 29.26
342.00 37.15
343.00 23.66
344.00 19.91
345.00 19.67
346.00 22.70
347.00 32.55
348.00 29.40
349.00 23.68
350.00 23.55
351.00 28.04
352.00 37.03
353.00 28.90
354.00 27.45
355.00 29.74
356.00 27.47
357.00 23.20
358.00 21.58
359.00 22.35
