NAME ATR4518R7_1750_X_CO_M45_01T_yyR
FREQUENCY 1750
GAIN 14.89 dBd
TILT	ELECTRICAL
COMMENT DATE 05.08.2013 -45 degrees polarized system Lever position 01T deg
HORIZONTAL 360
0.00 0.00
1.00 0.00
2.00 0.01
3.00 0.02
4.00 0.03
5.00 0.05
6.00 0.08
7.00 0.11
8.00 0.14
9.00 0.19
10.00 0.23
11.00 0.29
12.00 0.35
13.00 0.42
14.00 0.50
15.00 0.58
16.00 0.67
17.00 0.77
18.00 0.88
19.00 1.00
20.00 1.13
21.00 1.26
22.00 1.41
23.00 1.57
24.00 1.73
25.00 1.91
26.00 2.09
27.00 2.29
28.00 2.49
29.00 2.71
30.00 2.94
31.00 3.17
32.00 3.42
33.00 3.68
34.00 3.94
35.00 4.22
36.00 4.50
37.00 4.79
38.00 5.09
39.00 5.39
40.00 5.70
41.00 6.01
42.00 6.33
43.00 6.65
44.00 6.98
45.00 7.30
46.00 7.62
47.00 7.95
48.00 8.27
49.00 8.59
50.00 8.90
51.00 9.21
52.00 9.51
53.00 9.81
54.00 10.11
55.00 10.40
56.00 10.69
57.00 10.97
58.00 11.25
59.00 11.53
60.00 11.80
61.00 12.07
62.00 12.33
63.00 12.60
64.00 12.86
65.00 13.12
66.00 13.39
67.00 13.65
68.00 13.91
69.00 14.17
70.00 14.43
71.00 14.69
72.00 14.95
73.00 15.21
74.00 15.46
75.00 15.72
76.00 15.97
77.00 16.23
78.00 16.48
79.00 16.73
80.00 16.99
81.00 17.24
82.00 17.50
83.00 17.76
84.00 18.02
85.00 18.29
86.00 18.56
87.00 18.85
88.00 19.14
89.00 19.44
90.00 19.74
91.00 20.06
92.00 20.39
93.00 20.73
94.00 21.08
95.00 21.44
96.00 21.81
97.00 22.18
98.00 22.56
99.00 22.93
100.00 23.30
101.00 23.66
102.00 24.00
103.00 24.33
104.00 24.62
105.00 24.88
106.00 25.11
107.00 25.30
108.00 25.46
109.00 25.58
110.00 25.68
111.00 25.75
112.00 25.81
113.00 25.86
114.00 25.91
115.00 25.97
116.00 26.05
117.00 26.14
118.00 26.25
119.00 26.39
120.00 26.56
121.00 26.76
122.00 27.00
123.00 27.27
124.00 27.57
125.00 27.90
126.00 28.26
127.00 28.63
128.00 29.02
129.00 29.40
130.00 29.77
131.00 30.10
132.00 30.39
133.00 30.62
134.00 30.77
135.00 30.85
136.00 30.87
137.00 30.83
138.00 30.75
139.00 30.66
140.00 30.56
141.00 30.49
142.00 30.45
143.00 30.44
144.00 30.50
145.00 30.62
146.00 30.81
147.00 31.09
148.00 31.46
149.00 31.93
150.00 32.53
151.00 33.26
152.00 34.15
153.00 35.24
154.00 36.56
155.00 38.18
156.00 40.14
157.00 42.38
158.00 44.32
159.00 44.51
160.00 42.73
161.00 40.45
162.00 38.41
163.00 36.72
164.00 35.33
165.00 34.19
166.00 33.26
167.00 32.50
168.00 31.88
169.00 31.40
170.00 31.04
171.00 30.78
172.00 30.63
173.00 30.58
174.00 30.63
175.00 30.78
176.00 31.03
177.00 31.38
178.00 31.85
179.00 32.44
180.00 33.17
181.00 34.05
182.00 35.11
183.00 36.38
184.00 37.90
185.00 39.69
186.00 41.69
187.00 43.53
188.00 44.23
189.00 43.27
190.00 41.47
191.00 39.65
192.00 38.08
193.00 36.78
194.00 35.72
195.00 34.86
196.00 34.18
197.00 33.65
198.00 33.25
199.00 32.98
200.00 32.82
201.00 32.77
202.00 32.83
203.00 33.00
204.00 33.27
205.00 33.66
206.00 34.16
207.00 34.79
208.00 35.56
209.00 36.49
210.00 37.60
211.00 38.92
212.00 40.50
213.00 42.36
214.00 44.48
215.00 46.52
216.00 47.55
217.00 46.84
218.00 45.15
219.00 43.41
220.00 41.93
221.00 40.75
222.00 39.83
223.00 39.14
224.00 38.64
225.00 38.33
226.00 38.18
227.00 38.19
228.00 38.35
229.00 38.67
230.00 39.13
231.00 39.76
232.00 40.52
233.00 41.39
234.00 42.26
235.00 42.94
236.00 43.13
237.00 42.67
238.00 41.64
239.00 40.33
240.00 38.97
241.00 37.67
242.00 36.47
243.00 35.41
244.00 34.45
245.00 33.60
246.00 32.85
247.00 32.18
248.00 31.59
249.00 31.07
250.00 30.60
251.00 30.18
252.00 29.81
253.00 29.48
254.00 29.17
255.00 28.89
256.00 28.63
257.00 28.37
258.00 28.11
259.00 27.86
260.00 27.59
261.00 27.31
262.00 27.02
263.00 26.71
264.00 26.38
265.00 26.03
266.00 25.67
267.00 25.29
268.00 24.90
269.00 24.50
270.00 24.09
271.00 23.67
272.00 23.25
273.00 22.83
274.00 22.41
275.00 21.99
276.00 21.57
277.00 21.15
278.00 20.74
279.00 20.32
280.00 19.91
281.00 19.50
282.00 19.09
283.00 18.67
284.00 18.26
285.00 17.85
286.00 17.44
287.00 17.02
288.00 16.61
289.00 16.19
290.00 15.78
291.00 15.36
292.00 14.94
293.00 14.53
294.00 14.11
295.00 13.69
296.00 13.28
297.00 12.87
298.00 12.46
299.00 12.05
300.00 11.64
301.00 11.25
302.00 10.85
303.00 10.46
304.00 10.07
305.00 9.69
306.00 9.32
307.00 8.95
308.00 8.58
309.00 8.23
310.00 7.88
311.00 7.53
312.00 7.20
313.00 6.87
314.00 6.55
315.00 6.24
316.00 5.93
317.00 5.63
318.00 5.34
319.00 5.06
320.00 4.79
321.00 4.52
322.00 4.26
323.00 4.01
324.00 3.77
325.00 3.54
326.00 3.32
327.00 3.10
328.00 2.89
329.00 2.69
330.00 2.50
331.00 2.32
332.00 2.15
333.00 1.98
334.00 1.82
335.00 1.67
336.00 1.53
337.00 1.39
338.00 1.26
339.00 1.14
340.00 1.03
341.00 0.92
342.00 0.82
343.00 0.73
344.00 0.64
345.00 0.56
346.00 0.49
347.00 0.42
348.00 0.36
349.00 0.30
350.00 0.25
351.00 0.20
352.00 0.16
353.00 0.12
354.00 0.09
355.00 0.07
356.00 0.04
357.00 0.03
358.00 0.01
359.00 0.00
VERTICAL 360
0.00 0.42
1.00 0.00
2.00 0.24
3.00 1.21
4.00 2.98
5.00 5.80
6.00 10.20
7.00 18.20
8.00 29.34
9.00 18.86
10.00 15.82
11.00 15.89
12.00 18.53
13.00 25.99
14.00 28.51
15.00 19.60
16.00 16.39
17.00 15.70
18.00 16.91
19.00 20.14
20.00 25.22
21.00 24.78
22.00 20.52
23.00 18.00
24.00 16.94
25.00 17.05
26.00 18.41
27.00 21.54
28.00 28.35
29.00 33.34
30.00 25.05
31.00 21.37
32.00 19.99
33.00 19.92
34.00 20.84
35.00 22.59
36.00 25.11
37.00 28.20
38.00 31.20
39.00 33.06
40.00 33.51
41.00 32.63
42.00 30.57
43.00 28.15
44.00 25.95
45.00 24.08
46.00 22.54
47.00 21.37
48.00 20.66
49.00 20.50
50.00 20.97
51.00 22.15
52.00 24.21
53.00 27.47
54.00 32.41
55.00 35.62
56.00 32.04
57.00 28.84
58.00 27.17
59.00 26.46
60.00 26.32
61.00 26.51
62.00 26.89
63.00 27.39
64.00 28.02
65.00 28.70
66.00 29.26
67.00 29.49
68.00 29.27
69.00 28.70
70.00 27.99
71.00 27.36
72.00 26.90
73.00 26.64
74.00 26.51
75.00 26.38
76.00 26.14
77.00 25.79
78.00 25.49
79.00 25.36
80.00 25.37
81.00 25.39
82.00 25.39
83.00 25.39
84.00 25.39
85.00 25.39
86.00 25.33
87.00 25.54
88.00 26.22
89.00 27.42
90.00 28.86
91.00 29.94
92.00 30.06
93.00 29.34
94.00 28.83
95.00 28.89
96.00 29.51
97.00 30.62
98.00 32.16
99.00 34.04
100.00 36.22
101.00 38.73
102.00 41.63
103.00 44.62
104.00 45.72
105.00 43.78
106.00 41.32
107.00 39.89
108.00 39.73
109.00 40.58
110.00 41.34
111.00 40.55
112.00 38.69
113.00 36.87
114.00 35.55
115.00 34.92
116.00 35.06
117.00 35.91
118.00 37.38
119.00 39.35
120.00 41.80
121.00 44.76
122.00 48.16
123.00 49.43
124.00 45.11
125.00 40.30
126.00 37.18
127.00 35.70
128.00 35.47
129.00 35.63
130.00 35.28
131.00 34.92
132.00 35.66
133.00 38.01
134.00 41.40
135.00 42.58
136.00 40.92
137.00 38.84
138.00 36.69
139.00 34.69
140.00 33.23
141.00 32.58
142.00 32.88
143.00 34.02
144.00 35.44
145.00 36.38
146.00 36.78
147.00 36.93
148.00 36.44
149.00 34.98
150.00 33.24
151.00 32.17
152.00 32.28
153.00 33.74
154.00 35.59
155.00 35.16
156.00 33.24
157.00 32.17
158.00 32.26
159.00 33.09
160.00 33.96
161.00 34.34
162.00 34.28
163.00 34.01
164.00 33.67
165.00 33.50
166.00 33.67
167.00 33.93
168.00 33.72
169.00 33.13
170.00 33.07
171.00 34.32
172.00 37.49
173.00 42.25
174.00 43.16
175.00 41.31
176.00 39.87
177.00 37.13
178.00 34.09
179.00 32.14
180.00 31.43
181.00 31.72
182.00 32.46
183.00 32.79
184.00 32.28
185.00 31.52
186.00 31.10
187.00 31.04
188.00 31.09
189.00 31.17
190.00 31.56
191.00 32.49
192.00 33.80
193.00 34.85
194.00 35.16
195.00 34.96
196.00 34.63
197.00 34.42
198.00 34.51
199.00 34.92
200.00 35.73
201.00 37.41
202.00 41.17
203.00 49.72
204.00 46.20
205.00 40.32
206.00 38.50
207.00 38.67
208.00 39.41
209.00 39.01
210.00 37.36
211.00 35.41
212.00 33.56
213.00 32.04
214.00 31.05
215.00 30.67
216.00 30.82
217.00 31.34
218.00 32.10
219.00 33.09
220.00 34.50
221.00 36.54
222.00 39.29
223.00 42.09
224.00 42.76
225.00 40.94
226.00 38.42
227.00 36.20
228.00 34.67
229.00 34.04
230.00 34.34
231.00 35.54
232.00 37.56
233.00 40.30
234.00 43.47
235.00 45.70
236.00 45.33
237.00 43.72
238.00 42.77
239.00 43.02
240.00 43.47
241.00 42.09
242.00 40.07
243.00 39.22
244.00 39.57
245.00 40.30
246.00 40.94
247.00 42.24
248.00 44.83
249.00 46.29
250.00 44.49
251.00 42.98
252.00 42.88
253.00 44.13
254.00 47.23
255.00 52.27
256.00 50.38
257.00 46.01
258.00 44.11
259.00 43.82
260.00 44.54
261.00 45.83
262.00 46.62
263.00 45.55
264.00 43.34
265.00 41.09
266.00 38.94
267.00 36.83
268.00 34.89
269.00 33.40
270.00 32.63
271.00 32.75
272.00 33.79
273.00 35.47
274.00 36.94
275.00 37.11
276.00 35.64
277.00 33.11
278.00 30.49
279.00 28.42
280.00 27.00
281.00 26.08
282.00 25.39
283.00 24.71
284.00 23.97
285.00 23.17
286.00 22.37
287.00 21.58
288.00 20.82
289.00 20.13
290.00 19.57
291.00 19.19
292.00 19.06
293.00 19.20
294.00 19.60
295.00 20.26
296.00 21.24
297.00 22.73
298.00 25.09
299.00 29.15
300.00 37.90
301.00 38.91
302.00 30.32
303.00 26.54
304.00 24.34
305.00 22.86
306.00 21.82
307.00 21.11
308.00 20.75
309.00 20.75
310.00 21.10
311.00 21.78
312.00 22.72
313.00 23.82
314.00 24.82
315.00 25.35
316.00 25.13
317.00 24.24
318.00 22.99
319.00 21.70
320.00 20.57
321.00 19.72
322.00 19.28
323.00 19.36
324.00 20.11
325.00 21.74
326.00 24.36
327.00 26.70
328.00 25.26
329.00 22.04
330.00 19.65
331.00 18.34
332.00 18.03
333.00 18.73
334.00 20.55
335.00 23.26
336.00 24.71
337.00 22.98
338.00 20.90
339.00 20.04
340.00 20.75
341.00 23.74
342.00 31.21
343.00 28.03
344.00 21.18
345.00 18.29
346.00 17.67
347.00 19.12
348.00 23.38
349.00 29.06
350.00 23.67
351.00 19.65
352.00 19.01
353.00 22.39
354.00 30.98
355.00 17.54
356.00 10.40
357.00 6.19
358.00 3.38
359.00 1.52
