NAME ATR4518R7_0947_X_CO_M45_02T
FREQUENCY 0947
GAIN 15.17 dBd
TILT	ELECTRICAL
COMMENT DATE 05.08.2013 -45 degrees polarized system Lever position 02T deg
HORIZONTAL 360
0.00 0.02
1.00 0.01
2.00 0.00
3.00 0.00
4.00 0.01
5.00 0.03
6.00 0.05
7.00 0.07
8.00 0.11
9.00 0.15
10.00 0.20
11.00 0.25
12.00 0.32
13.00 0.39
14.00 0.46
15.00 0.55
16.00 0.64
17.00 0.73
18.00 0.84
19.00 0.95
20.00 1.07
21.00 1.19
22.00 1.33
23.00 1.46
24.00 1.61
25.00 1.76
26.00 1.93
27.00 2.09
28.00 2.27
29.00 2.45
30.00 2.64
31.00 2.83
32.00 3.04
33.00 3.24
34.00 3.46
35.00 3.69
36.00 3.92
37.00 4.16
38.00 4.40
39.00 4.66
40.00 4.91
41.00 5.18
42.00 5.45
43.00 5.74
44.00 6.02
45.00 6.32
46.00 6.62
47.00 6.93
48.00 7.25
49.00 7.58
50.00 7.91
51.00 8.25
52.00 8.60
53.00 8.96
54.00 9.32
55.00 9.69
56.00 10.07
57.00 10.47
58.00 10.86
59.00 11.27
60.00 11.69
61.00 12.11
62.00 12.55
63.00 12.99
64.00 13.45
65.00 13.92
66.00 14.39
67.00 14.88
68.00 15.38
69.00 15.89
70.00 16.41
71.00 16.94
72.00 17.49
73.00 18.04
74.00 18.61
75.00 19.19
76.00 19.77
77.00 20.37
78.00 20.98
79.00 21.59
80.00 22.21
81.00 22.82
82.00 23.44
83.00 24.06
84.00 24.66
85.00 25.25
86.00 25.83
87.00 26.37
88.00 26.89
89.00 27.38
90.00 27.82
91.00 28.23
92.00 28.59
93.00 28.92
94.00 29.20
95.00 29.45
96.00 29.68
97.00 29.88
98.00 30.07
99.00 30.25
100.00 30.42
101.00 30.60
102.00 30.78
103.00 30.97
104.00 31.17
105.00 31.39
106.00 31.63
107.00 31.88
108.00 32.16
109.00 32.46
110.00 32.78
111.00 33.12
112.00 33.49
113.00 33.88
114.00 34.30
115.00 34.74
116.00 35.21
117.00 35.71
118.00 36.23
119.00 36.77
120.00 37.33
121.00 37.92
122.00 38.52
123.00 39.14
124.00 39.78
125.00 40.41
126.00 41.05
127.00 41.68
128.00 42.29
129.00 42.85
130.00 43.36
131.00 43.80
132.00 44.15
133.00 44.39
134.00 44.50
135.00 44.50
136.00 44.37
137.00 44.16
138.00 43.86
139.00 43.50
140.00 43.09
141.00 42.64
142.00 42.18
143.00 41.70
144.00 41.21
145.00 40.74
146.00 40.27
147.00 39.81
148.00 39.37
149.00 38.94
150.00 38.54
151.00 38.16
152.00 37.79
153.00 37.45
154.00 37.12
155.00 36.81
156.00 36.53
157.00 36.28
158.00 36.04
159.00 35.82
160.00 35.63
161.00 35.46
162.00 35.31
163.00 35.18
164.00 35.07
165.00 34.99
166.00 34.92
167.00 34.88
168.00 34.85
169.00 34.85
170.00 34.87
171.00 34.91
172.00 34.98
173.00 35.06
174.00 35.16
175.00 35.29
176.00 35.44
177.00 35.61
178.00 35.81
179.00 36.03
180.00 36.27
181.00 36.54
182.00 36.83
183.00 37.15
184.00 37.50
185.00 37.87
186.00 38.26
187.00 38.69
188.00 39.14
189.00 39.60
190.00 40.09
191.00 40.58
192.00 41.07
193.00 41.55
194.00 41.98
195.00 42.35
196.00 42.62
197.00 42.78
198.00 42.80
199.00 42.68
200.00 42.42
201.00 42.05
202.00 41.60
203.00 41.09
204.00 40.55
205.00 40.00
206.00 39.44
207.00 38.90
208.00 38.37
209.00 37.86
210.00 37.38
211.00 36.92
212.00 36.49
213.00 36.08
214.00 35.69
215.00 35.33
216.00 34.98
217.00 34.66
218.00 34.36
219.00 34.07
220.00 33.80
221.00 33.55
222.00 33.31
223.00 33.09
224.00 32.88
225.00 32.68
226.00 32.49
227.00 32.31
228.00 32.13
229.00 31.97
230.00 31.81
231.00 31.65
232.00 31.50
233.00 31.35
234.00 31.20
235.00 31.06
236.00 30.90
237.00 30.75
238.00 30.60
239.00 30.44
240.00 30.27
241.00 30.10
242.00 29.92
243.00 29.73
244.00 29.54
245.00 29.33
246.00 29.11
247.00 28.89
248.00 28.65
249.00 28.40
250.00 28.14
251.00 27.86
252.00 27.58
253.00 27.29
254.00 26.98
255.00 26.67
256.00 26.35
257.00 26.02
258.00 25.68
259.00 25.33
260.00 24.98
261.00 24.62
262.00 24.26
263.00 23.90
264.00 23.53
265.00 23.16
266.00 22.79
267.00 22.42
268.00 22.05
269.00 21.67
270.00 21.30
271.00 20.93
272.00 20.56
273.00 20.19
274.00 19.83
275.00 19.47
276.00 19.11
277.00 18.75
278.00 18.39
279.00 18.04
280.00 17.69
281.00 17.34
282.00 17.00
283.00 16.65
284.00 16.32
285.00 15.98
286.00 15.65
287.00 15.31
288.00 14.98
289.00 14.66
290.00 14.34
291.00 14.01
292.00 13.69
293.00 13.37
294.00 13.06
295.00 12.75
296.00 12.43
297.00 12.12
298.00 11.81
299.00 11.51
300.00 11.20
301.00 10.90
302.00 10.60
303.00 10.30
304.00 10.00
305.00 9.71
306.00 9.42
307.00 9.13
308.00 8.84
309.00 8.55
310.00 8.27
311.00 7.99
312.00 7.71
313.00 7.44
314.00 7.17
315.00 6.90
316.00 6.64
317.00 6.38
318.00 6.12
319.00 5.87
320.00 5.62
321.00 5.38
322.00 5.14
323.00 4.90
324.00 4.67
325.00 4.44
326.00 4.22
327.00 4.00
328.00 3.79
329.00 3.58
330.00 3.38
331.00 3.18
332.00 2.99
333.00 2.80
334.00 2.62
335.00 2.44
336.00 2.27
337.00 2.11
338.00 1.95
339.00 1.80
340.00 1.65
341.00 1.51
342.00 1.37
343.00 1.25
344.00 1.12
345.00 1.01
346.00 0.90
347.00 0.79
348.00 0.69
349.00 0.60
350.00 0.52
351.00 0.44
352.00 0.37
353.00 0.30
354.00 0.24
355.00 0.19
356.00 0.14
357.00 0.10
358.00 0.07
359.00 0.04
VERTICAL 360
0.00 0.94
1.00 0.26
2.00 0.00
3.00 0.15
4.00 0.70
5.00 1.70
6.00 3.19
7.00 5.24
8.00 7.99
9.00 11.62
10.00 16.41
11.00 21.70
12.00 22.82
13.00 21.74
14.00 22.32
15.00 25.36
16.00 32.35
17.00 31.56
18.00 25.32
19.00 22.46
20.00 21.37
21.00 21.58
22.00 23.10
23.00 26.43
24.00 33.35
25.00 36.57
26.00 29.39
27.00 26.61
28.00 25.92
29.00 26.55
30.00 28.20
31.00 29.01
32.00 25.73
33.00 21.66
34.00 18.59
35.00 16.43
36.00 15.01
37.00 14.18
38.00 13.88
39.00 14.03
40.00 14.58
41.00 15.46
42.00 16.61
43.00 18.07
44.00 20.07
45.00 23.07
46.00 27.88
47.00 37.15
48.00 42.77
49.00 34.88
50.00 33.18
51.00 32.92
52.00 32.48
53.00 32.34
54.00 33.45
55.00 36.08
56.00 40.24
57.00 46.03
58.00 50.85
59.00 53.04
60.00 45.96
61.00 40.64
62.00 38.08
63.00 36.49
64.00 35.98
65.00 37.76
66.00 43.33
67.00 52.61
68.00 40.19
69.00 33.81
70.00 31.10
71.00 31.57
72.00 36.05
73.00 61.71
74.00 36.49
75.00 30.45
76.00 27.82
77.00 27.75
78.00 30.47
79.00 36.96
80.00 35.17
81.00 29.23
82.00 26.23
83.00 25.69
84.00 27.44
85.00 30.40
86.00 30.49
87.00 28.13
88.00 25.99
89.00 25.21
90.00 26.23
91.00 28.56
92.00 30.99
93.00 30.85
94.00 27.57
95.00 25.89
96.00 26.62
97.00 29.76
98.00 34.56
99.00 40.81
100.00 49.00
101.00 37.22
102.00 34.51
103.00 34.91
104.00 36.14
105.00 39.64
106.00 61.53
107.00 38.90
108.00 34.92
109.00 34.54
110.00 35.37
111.00 37.91
112.00 48.13
113.00 42.58
114.00 36.35
115.00 35.36
116.00 36.87
117.00 40.02
118.00 43.86
119.00 42.88
120.00 40.51
121.00 40.28
122.00 41.09
123.00 41.39
124.00 41.44
125.00 41.40
126.00 39.72
127.00 36.79
128.00 34.39
129.00 32.89
130.00 31.91
131.00 31.05
132.00 30.27
133.00 29.84
134.00 30.10
135.00 31.32
136.00 33.53
137.00 36.55
138.00 40.07
139.00 44.56
140.00 52.37
141.00 46.76
142.00 41.31
143.00 39.57
144.00 40.24
145.00 42.97
146.00 47.96
147.00 53.75
148.00 50.51
149.00 45.44
150.00 41.47
151.00 39.25
152.00 38.75
153.00 39.37
154.00 40.22
155.00 40.93
156.00 41.51
157.00 41.49
158.00 40.67
159.00 39.51
160.00 38.70
161.00 38.50
162.00 38.37
163.00 37.58
164.00 36.11
165.00 34.29
166.00 32.33
167.00 30.47
168.00 28.99
169.00 28.02
170.00 27.53
171.00 27.34
172.00 27.21
173.00 27.20
174.00 27.62
175.00 28.72
176.00 30.72
177.00 33.65
178.00 36.99
179.00 38.43
180.00 36.23
181.00 33.51
182.00 31.61
183.00 30.77
184.00 30.87
185.00 31.72
186.00 33.18
187.00 35.10
188.00 37.74
189.00 41.84
190.00 45.54
191.00 42.70
192.00 40.50
193.00 40.16
194.00 40.51
195.00 40.87
196.00 41.12
197.00 41.43
198.00 42.92
199.00 46.65
200.00 47.65
201.00 43.42
202.00 40.24
203.00 38.36
204.00 37.93
205.00 38.68
206.00 39.19
207.00 38.77
208.00 38.77
209.00 39.75
210.00 40.20
211.00 38.46
212.00 36.66
213.00 36.11
214.00 36.32
215.00 36.03
216.00 34.89
217.00 33.67
218.00 32.86
219.00 32.52
220.00 32.31
221.00 31.77
222.00 30.94
223.00 30.33
224.00 30.33
225.00 31.05
226.00 32.26
227.00 33.44
228.00 34.20
229.00 34.71
230.00 35.62
231.00 37.30
232.00 39.51
233.00 41.79
234.00 43.32
235.00 43.01
236.00 42.12
237.00 41.51
238.00 41.33
239.00 42.36
240.00 44.67
241.00 45.36
242.00 42.00
243.00 38.47
244.00 36.97
245.00 37.90
246.00 40.62
247.00 41.24
248.00 38.44
249.00 35.42
250.00 33.75
251.00 34.13
252.00 36.89
253.00 41.83
254.00 41.03
255.00 36.03
256.00 33.63
257.00 33.79
258.00 36.34
259.00 40.05
260.00 39.49
261.00 36.54
262.00 35.71
263.00 38.37
264.00 47.69
265.00 43.10
266.00 37.47
267.00 35.15
268.00 35.77
269.00 43.60
270.00 40.96
271.00 32.98
272.00 31.21
273.00 31.88
274.00 33.36
275.00 36.90
276.00 44.57
277.00 35.05
278.00 31.36
279.00 31.08
280.00 32.76
281.00 36.79
282.00 48.97
283.00 37.69
284.00 33.26
285.00 32.99
286.00 35.17
287.00 39.72
288.00 44.74
289.00 37.65
290.00 34.27
291.00 33.97
292.00 35.20
293.00 37.06
294.00 40.87
295.00 47.90
296.00 45.41
297.00 43.57
298.00 43.29
299.00 42.96
300.00 44.36
301.00 44.83
302.00 41.27
303.00 38.03
304.00 35.77
305.00 34.53
306.00 34.37
307.00 35.62
308.00 39.41
309.00 51.66
310.00 45.47
311.00 38.20
312.00 33.21
313.00 28.56
314.00 24.75
315.00 21.94
316.00 20.10
317.00 19.04
318.00 18.44
319.00 17.92
320.00 17.29
321.00 16.71
322.00 16.48
323.00 16.80
324.00 17.71
325.00 19.09
326.00 20.74
327.00 22.52
328.00 24.55
329.00 27.15
330.00 30.55
331.00 34.47
332.00 37.91
333.00 39.20
334.00 38.88
335.00 38.91
336.00 36.77
337.00 32.46
338.00 28.78
339.00 25.88
340.00 23.48
341.00 21.54
342.00 20.21
343.00 19.68
344.00 20.13
345.00 21.82
346.00 25.27
347.00 31.37
348.00 30.72
349.00 25.39
350.00 22.89
351.00 22.59
352.00 24.47
353.00 25.00
354.00 18.50
355.00 12.91
356.00 8.88
357.00 5.90
358.00 3.68
359.00 2.06
