NAME ATR4518R7_0806_X_CO_M45_05T
FREQUENCY 0806
GAIN 14.34 dBd
TILT	ELECTRICAL
COMMENT DATE 05.08.2013 -45 degrees polarized system Lever position 05T deg
HORIZONTAL 360
0.00 0.00
1.00 0.01
2.00 0.03
3.00 0.05
4.00 0.07
5.00 0.10
6.00 0.14
7.00 0.18
8.00 0.23
9.00 0.29
10.00 0.35
11.00 0.41
12.00 0.49
13.00 0.57
14.00 0.65
15.00 0.74
16.00 0.84
17.00 0.94
18.00 1.05
19.00 1.17
20.00 1.29
21.00 1.42
22.00 1.55
23.00 1.69
24.00 1.83
25.00 1.98
26.00 2.14
27.00 2.31
28.00 2.48
29.00 2.65
30.00 2.83
31.00 3.02
32.00 3.21
33.00 3.41
34.00 3.62
35.00 3.83
36.00 4.05
37.00 4.27
38.00 4.50
39.00 4.74
40.00 4.98
41.00 5.22
42.00 5.47
43.00 5.73
44.00 5.99
45.00 6.26
46.00 6.53
47.00 6.81
48.00 7.10
49.00 7.38
50.00 7.67
51.00 7.97
52.00 8.27
53.00 8.58
54.00 8.89
55.00 9.20
56.00 9.51
57.00 9.83
58.00 10.15
59.00 10.48
60.00 10.81
61.00 11.14
62.00 11.47
63.00 11.80
64.00 12.14
65.00 12.48
66.00 12.81
67.00 13.15
68.00 13.49
69.00 13.83
70.00 14.16
71.00 14.51
72.00 14.84
73.00 15.18
74.00 15.51
75.00 15.85
76.00 16.18
77.00 16.52
78.00 16.85
79.00 17.18
80.00 17.50
81.00 17.83
82.00 18.15
83.00 18.48
84.00 18.79
85.00 19.11
86.00 19.42
87.00 19.73
88.00 20.04
89.00 20.34
90.00 20.64
91.00 20.93
92.00 21.22
93.00 21.51
94.00 21.78
95.00 22.06
96.00 22.32
97.00 22.59
98.00 22.84
99.00 23.09
100.00 23.34
101.00 23.57
102.00 23.80
103.00 24.03
104.00 24.25
105.00 24.47
106.00 24.68
107.00 24.90
108.00 25.11
109.00 25.31
110.00 25.52
111.00 25.73
112.00 25.94
113.00 26.15
114.00 26.37
115.00 26.59
116.00 26.82
117.00 27.05
118.00 27.29
119.00 27.54
120.00 27.80
121.00 28.07
122.00 28.36
123.00 28.65
124.00 28.96
125.00 29.28
126.00 29.61
127.00 29.96
128.00 30.33
129.00 30.71
130.00 31.11
131.00 31.52
132.00 31.94
133.00 32.38
134.00 32.83
135.00 33.29
136.00 33.76
137.00 34.23
138.00 34.70
139.00 35.16
140.00 35.60
141.00 36.02
142.00 36.39
143.00 36.73
144.00 37.01
145.00 37.23
146.00 37.39
147.00 37.48
148.00 37.51
149.00 37.49
150.00 37.42
151.00 37.32
152.00 37.19
153.00 37.04
154.00 36.88
155.00 36.71
156.00 36.56
157.00 36.40
158.00 36.26
159.00 36.13
160.00 36.01
161.00 35.91
162.00 35.83
163.00 35.76
164.00 35.70
165.00 35.66
166.00 35.64
167.00 35.63
168.00 35.64
169.00 35.66
170.00 35.69
171.00 35.73
172.00 35.77
173.00 35.84
174.00 35.90
175.00 35.98
176.00 36.05
177.00 36.13
178.00 36.21
179.00 36.29
180.00 36.37
181.00 36.45
182.00 36.52
183.00 36.59
184.00 36.66
185.00 36.71
186.00 36.75
187.00 36.79
188.00 36.82
189.00 36.85
190.00 36.86
191.00 36.86
192.00 36.85
193.00 36.83
194.00 36.81
195.00 36.78
196.00 36.74
197.00 36.70
198.00 36.65
199.00 36.59
200.00 36.53
201.00 36.47
202.00 36.40
203.00 36.33
204.00 36.26
205.00 36.19
206.00 36.12
207.00 36.05
208.00 35.98
209.00 35.90
210.00 35.83
211.00 35.76
212.00 35.70
213.00 35.63
214.00 35.56
215.00 35.50
216.00 35.44
217.00 35.38
218.00 35.32
219.00 35.26
220.00 35.20
221.00 35.13
222.00 35.06
223.00 34.98
224.00 34.89
225.00 34.79
226.00 34.67
227.00 34.53
228.00 34.37
229.00 34.19
230.00 33.97
231.00 33.73
232.00 33.46
233.00 33.15
234.00 32.81
235.00 32.45
236.00 32.05
237.00 31.63
238.00 31.19
239.00 30.73
240.00 30.26
241.00 29.77
242.00 29.27
243.00 28.77
244.00 28.27
245.00 27.77
246.00 27.26
247.00 26.77
248.00 26.28
249.00 25.79
250.00 25.31
251.00 24.83
252.00 24.37
253.00 23.91
254.00 23.46
255.00 23.03
256.00 22.60
257.00 22.18
258.00 21.76
259.00 21.36
260.00 20.97
261.00 20.58
262.00 20.20
263.00 19.83
264.00 19.47
265.00 19.11
266.00 18.76
267.00 18.42
268.00 18.09
269.00 17.76
270.00 17.44
271.00 17.12
272.00 16.81
273.00 16.50
274.00 16.20
275.00 15.90
276.00 15.60
277.00 15.31
278.00 15.02
279.00 14.74
280.00 14.45
281.00 14.17
282.00 13.89
283.00 13.62
284.00 13.34
285.00 13.06
286.00 12.79
287.00 12.52
288.00 12.25
289.00 11.98
290.00 11.71
291.00 11.44
292.00 11.17
293.00 10.90
294.00 10.63
295.00 10.37
296.00 10.10
297.00 9.84
298.00 9.57
299.00 9.30
300.00 9.04
301.00 8.78
302.00 8.52
303.00 8.26
304.00 8.00
305.00 7.75
306.00 7.50
307.00 7.24
308.00 6.99
309.00 6.75
310.00 6.50
311.00 6.26
312.00 6.02
313.00 5.79
314.00 5.55
315.00 5.33
316.00 5.10
317.00 4.88
318.00 4.66
319.00 4.45
320.00 4.24
321.00 4.03
322.00 3.83
323.00 3.64
324.00 3.45
325.00 3.26
326.00 3.07
327.00 2.90
328.00 2.72
329.00 2.56
330.00 2.39
331.00 2.23
332.00 2.08
333.00 1.93
334.00 1.79
335.00 1.65
336.00 1.52
337.00 1.39
338.00 1.27
339.00 1.16
340.00 1.05
341.00 0.94
342.00 0.84
343.00 0.75
344.00 0.66
345.00 0.57
346.00 0.50
347.00 0.42
348.00 0.36
349.00 0.30
350.00 0.24
351.00 0.19
352.00 0.15
353.00 0.11
354.00 0.08
355.00 0.05
356.00 0.03
357.00 0.02
358.00 0.01
359.00 0.00
VERTICAL 360
0.00 4.38
1.00 2.78
2.00 1.59
3.00 0.74
4.00 0.22
5.00 0.00
6.00 0.08
7.00 0.44
8.00 1.11
9.00 2.11
10.00 3.46
11.00 5.22
12.00 7.48
13.00 10.42
14.00 14.34
15.00 20.09
16.00 31.46
17.00 32.10
18.00 25.46
19.00 24.11
20.00 25.20
21.00 28.84
22.00 36.23
23.00 31.02
24.00 25.21
25.00 22.10
26.00 20.39
27.00 19.60
28.00 19.51
29.00 20.07
30.00 21.27
31.00 23.21
32.00 26.12
33.00 30.52
34.00 36.91
35.00 36.78
36.00 32.48
37.00 30.37
38.00 29.81
39.00 30.36
40.00 31.28
41.00 30.59
42.00 27.72
43.00 24.62
44.00 22.10
45.00 20.20
46.00 18.85
47.00 17.95
48.00 17.45
49.00 17.31
50.00 17.50
51.00 18.00
52.00 18.79
53.00 19.87
54.00 21.25
55.00 22.92
56.00 24.91
57.00 27.23
58.00 29.79
59.00 32.18
60.00 33.32
61.00 32.71
62.00 31.39
63.00 30.22
64.00 29.43
65.00 29.05
66.00 29.06
67.00 29.42
68.00 30.07
69.00 30.91
70.00 31.81
71.00 32.63
72.00 33.23
73.00 33.60
74.00 33.89
75.00 34.31
76.00 35.04
77.00 36.03
78.00 36.78
79.00 36.29
80.00 34.52
81.00 32.44
82.00 30.63
83.00 29.21
84.00 28.17
85.00 27.45
86.00 27.02
87.00 26.83
88.00 26.84
89.00 27.00
90.00 27.25
91.00 27.57
92.00 27.97
93.00 28.45
94.00 29.04
95.00 29.73
96.00 30.48
97.00 31.28
98.00 32.17
99.00 33.24
100.00 34.56
101.00 36.12
102.00 37.75
103.00 39.14
104.00 40.04
105.00 40.58
106.00 40.93
107.00 41.02
108.00 40.65
109.00 39.92
110.00 39.15
111.00 38.60
112.00 38.37
113.00 38.49
114.00 38.97
115.00 39.82
116.00 41.13
117.00 42.99
118.00 45.60
119.00 49.18
120.00 53.25
121.00 53.19
122.00 49.52
123.00 46.37
124.00 44.03
125.00 42.32
126.00 41.17
127.00 40.54
128.00 40.46
129.00 40.93
130.00 42.03
131.00 43.88
132.00 46.73
133.00 51.20
134.00 58.93
135.00 60.05
136.00 54.01
137.00 51.36
138.00 50.36
139.00 50.29
140.00 50.22
141.00 48.82
142.00 45.92
143.00 42.71
144.00 39.87
145.00 37.51
146.00 35.62
147.00 34.19
148.00 33.19
149.00 32.64
150.00 32.55
151.00 32.98
152.00 34.02
153.00 35.83
154.00 38.62
155.00 41.81
156.00 41.24
157.00 37.64
158.00 34.72
159.00 32.80
160.00 31.67
161.00 31.23
162.00 31.43
163.00 32.29
164.00 33.77
165.00 35.52
166.00 36.22
167.00 34.86
168.00 32.79
169.00 31.10
170.00 30.02
171.00 29.54
172.00 30.22
173.00 31.83
174.00 33.87
175.00 36.33
176.00 37.10
177.00 37.63
178.00 37.05
179.00 36.63
180.00 35.82
181.00 35.26
182.00 35.25
183.00 35.87
184.00 37.31
185.00 39.79
186.00 43.24
187.00 43.83
188.00 39.85
189.00 36.28
190.00 33.73
191.00 31.90
192.00 30.58
193.00 29.62
194.00 28.93
195.00 28.47
196.00 28.21
197.00 28.15
198.00 28.30
199.00 28.70
200.00 29.37
201.00 30.33
202.00 31.60
203.00 33.17
204.00 34.95
205.00 36.66
206.00 37.75
207.00 37.78
208.00 37.07
209.00 36.24
210.00 35.67
211.00 35.52
212.00 35.88
213.00 36.83
214.00 38.47
215.00 40.98
216.00 44.25
217.00 45.97
218.00 43.66
219.00 40.85
220.00 38.87
221.00 37.56
222.00 36.71
223.00 36.13
224.00 35.73
225.00 35.49
226.00 35.45
227.00 35.67
228.00 36.15
229.00 36.85
230.00 37.69
231.00 38.53
232.00 39.30
233.00 39.95
234.00 40.48
235.00 41.01
236.00 41.75
237.00 43.01
238.00 45.19
239.00 48.73
240.00 52.03
241.00 48.72
242.00 44.49
243.00 41.46
244.00 39.22
245.00 37.53
246.00 36.33
247.00 35.70
248.00 35.68
249.00 36.36
250.00 37.78
251.00 39.84
252.00 41.79
253.00 42.09
254.00 40.97
255.00 39.80
256.00 39.02
257.00 38.52
258.00 38.13
259.00 37.79
260.00 37.53
261.00 37.35
262.00 37.18
263.00 36.96
264.00 36.73
265.00 36.58
266.00 36.58
267.00 36.71
268.00 36.82
269.00 36.75
270.00 36.39
271.00 35.74
272.00 34.88
273.00 33.94
274.00 33.06
275.00 32.39
276.00 32.01
277.00 31.95
278.00 32.21
279.00 32.73
280.00 33.39
281.00 34.06
282.00 34.59
283.00 34.90
284.00 34.99
285.00 34.96
286.00 34.88
287.00 34.79
288.00 34.63
289.00 34.30
290.00 33.73
291.00 32.99
292.00 32.23
293.00 31.55
294.00 31.06
295.00 30.79
296.00 30.80
297.00 31.13
298.00 31.89
299.00 33.25
300.00 35.56
301.00 39.78
302.00 50.57
303.00 43.02
304.00 35.32
305.00 30.96
306.00 27.90
307.00 25.57
308.00 23.75
309.00 22.31
310.00 21.21
311.00 20.41
312.00 19.91
313.00 19.70
314.00 19.79
315.00 20.18
316.00 20.89
317.00 21.92
318.00 23.31
319.00 25.10
320.00 27.35
321.00 30.06
322.00 32.90
323.00 34.42
324.00 33.65
325.00 32.25
326.00 31.38
327.00 31.34
328.00 32.28
329.00 34.36
330.00 37.18
331.00 37.12
332.00 33.80
333.00 31.14
334.00 29.78
335.00 29.68
336.00 31.01
337.00 34.34
338.00 38.33
339.00 33.17
340.00 28.13
341.00 25.01
342.00 23.13
343.00 22.17
344.00 22.02
345.00 22.69
346.00 24.25
347.00 26.75
348.00 29.03
349.00 27.97
350.00 25.39
351.00 23.83
352.00 23.84
353.00 26.20
354.00 33.07
355.00 25.21
356.00 17.51
357.00 12.64
358.00 9.13
359.00 6.45
