NAME ATR4518R7_1750_X_CO_M45_02T_yL
FREQUENCY 1750
GAIN 14.95 dBd
TILT	ELECTRICAL
COMMENT DATE 05.08.2013 -45 degrees polarized system Lever position 02T deg
HORIZONTAL 360
0.00 0.00
1.00 0.00
2.00 0.00
3.00 0.01
4.00 0.02
5.00 0.04
6.00 0.06
7.00 0.08
8.00 0.11
9.00 0.15
10.00 0.19
11.00 0.24
12.00 0.29
13.00 0.34
14.00 0.40
15.00 0.46
16.00 0.53
17.00 0.61
18.00 0.68
19.00 0.77
20.00 0.85
21.00 0.94
22.00 1.04
23.00 1.14
24.00 1.24
25.00 1.35
26.00 1.46
27.00 1.58
28.00 1.70
29.00 1.83
30.00 1.96
31.00 2.10
32.00 2.24
33.00 2.39
34.00 2.55
35.00 2.71
36.00 2.87
37.00 3.04
38.00 3.22
39.00 3.40
40.00 3.59
41.00 3.78
42.00 3.98
43.00 4.18
44.00 4.39
45.00 4.60
46.00 4.82
47.00 5.04
48.00 5.26
49.00 5.49
50.00 5.72
51.00 5.96
52.00 6.20
53.00 6.44
54.00 6.68
55.00 6.93
56.00 7.18
57.00 7.44
58.00 7.70
59.00 7.97
60.00 8.24
61.00 8.51
62.00 8.80
63.00 9.08
64.00 9.38
65.00 9.68
66.00 9.99
67.00 10.31
68.00 10.64
69.00 10.97
70.00 11.31
71.00 11.67
72.00 12.03
73.00 12.40
74.00 12.78
75.00 13.17
76.00 13.57
77.00 13.98
78.00 14.39
79.00 14.81
80.00 15.23
81.00 15.65
82.00 16.08
83.00 16.50
84.00 16.92
85.00 17.34
86.00 17.75
87.00 18.15
88.00 18.55
89.00 18.93
90.00 19.30
91.00 19.66
92.00 20.01
93.00 20.35
94.00 20.69
95.00 21.02
96.00 21.34
97.00 21.66
98.00 21.97
99.00 22.29
100.00 22.61
101.00 22.93
102.00 23.25
103.00 23.56
104.00 23.88
105.00 24.19
106.00 24.49
107.00 24.78
108.00 25.06
109.00 25.32
110.00 25.55
111.00 25.77
112.00 25.97
113.00 26.14
114.00 26.31
115.00 26.47
116.00 26.62
117.00 26.78
118.00 26.94
119.00 27.11
120.00 27.29
121.00 27.48
122.00 27.67
123.00 27.86
124.00 28.03
125.00 28.16
126.00 28.25
127.00 28.27
128.00 28.22
129.00 28.09
130.00 27.90
131.00 27.64
132.00 27.35
133.00 27.03
134.00 26.71
135.00 26.41
136.00 26.13
137.00 25.89
138.00 25.70
139.00 25.56
140.00 25.47
141.00 25.44
142.00 25.47
143.00 25.57
144.00 25.71
145.00 25.91
146.00 26.15
147.00 26.43
148.00 26.73
149.00 27.02
150.00 27.30
151.00 27.53
152.00 27.69
153.00 27.77
154.00 27.76
155.00 27.67
156.00 27.51
157.00 27.31
158.00 27.10
159.00 26.91
160.00 26.74
161.00 26.63
162.00 26.58
163.00 26.60
164.00 26.70
165.00 26.89
166.00 27.18
167.00 27.56
168.00 28.05
169.00 28.64
170.00 29.31
171.00 30.05
172.00 30.80
173.00 31.48
174.00 31.95
175.00 32.09
176.00 31.84
177.00 31.28
178.00 30.52
179.00 29.70
180.00 28.90
181.00 28.17
182.00 27.54
183.00 27.01
184.00 26.59
185.00 26.28
186.00 26.07
187.00 25.98
188.00 25.99
189.00 26.11
190.00 26.35
191.00 26.72
192.00 27.21
193.00 27.85
194.00 28.67
195.00 29.68
196.00 30.94
197.00 32.54
198.00 34.61
199.00 37.41
200.00 41.48
201.00 47.55
202.00 46.58
203.00 40.88
204.00 37.19
205.00 34.66
206.00 32.79
207.00 31.38
208.00 30.27
209.00 29.41
210.00 28.74
211.00 28.24
212.00 27.88
213.00 27.66
214.00 27.57
215.00 27.59
216.00 27.74
217.00 28.02
218.00 28.43
219.00 28.99
220.00 29.73
221.00 30.66
222.00 31.85
223.00 33.36
224.00 35.28
225.00 37.74
226.00 40.56
227.00 41.95
228.00 39.90
229.00 36.82
230.00 34.19
231.00 32.07
232.00 30.35
233.00 28.93
234.00 27.73
235.00 26.73
236.00 25.87
237.00 25.14
238.00 24.53
239.00 24.00
240.00 23.56
241.00 23.20
242.00 22.91
243.00 22.67
244.00 22.49
245.00 22.36
246.00 22.26
247.00 22.20
248.00 22.16
249.00 22.13
250.00 22.11
251.00 22.09
252.00 22.05
253.00 21.98
254.00 21.88
255.00 21.74
256.00 21.56
257.00 21.34
258.00 21.09
259.00 20.80
260.00 20.49
261.00 20.16
262.00 19.82
263.00 19.47
264.00 19.12
265.00 18.77
266.00 18.43
267.00 18.10
268.00 17.77
269.00 17.44
270.00 17.13
271.00 16.81
272.00 16.50
273.00 16.20
274.00 15.89
275.00 15.58
276.00 15.26
277.00 14.95
278.00 14.63
279.00 14.30
280.00 13.97
281.00 13.64
282.00 13.30
283.00 12.96
284.00 12.62
285.00 12.28
286.00 11.94
287.00 11.60
288.00 11.27
289.00 10.94
290.00 10.62
291.00 10.31
292.00 10.00
293.00 9.70
294.00 9.40
295.00 9.12
296.00 8.85
297.00 8.58
298.00 8.32
299.00 8.08
300.00 7.84
301.00 7.60
302.00 7.38
303.00 7.16
304.00 6.95
305.00 6.74
306.00 6.54
307.00 6.35
308.00 6.16
309.00 5.97
310.00 5.79
311.00 5.61
312.00 5.44
313.00 5.27
314.00 5.10
315.00 4.94
316.00 4.78
317.00 4.62
318.00 4.46
319.00 4.30
320.00 4.15
321.00 3.99
322.00 3.84
323.00 3.69
324.00 3.54
325.00 3.38
326.00 3.23
327.00 3.08
328.00 2.93
329.00 2.78
330.00 2.63
331.00 2.48
332.00 2.33
333.00 2.18
334.00 2.03
335.00 1.89
336.00 1.75
337.00 1.61
338.00 1.48
339.00 1.35
340.00 1.23
341.00 1.11
342.00 1.00
343.00 0.89
344.00 0.79
345.00 0.70
346.00 0.61
347.00 0.53
348.00 0.45
349.00 0.38
350.00 0.32
351.00 0.26
352.00 0.21
353.00 0.17
354.00 0.13
355.00 0.10
356.00 0.07
357.00 0.04
358.00 0.03
359.00 0.01
VERTICAL 360
0.00 1.81
1.00 0.58
2.00 0.03
3.00 0.13
4.00 0.91
5.00 2.46
6.00 4.99
7.00 9.07
8.00 16.77
9.00 29.13
10.00 15.55
11.00 12.40
12.00 12.01
13.00 13.65
14.00 17.92
15.00 30.10
16.00 24.10
17.00 17.52
18.00 15.15
19.00 14.58
20.00 15.30
21.00 17.25
22.00 20.31
23.00 21.85
24.00 19.29
25.00 16.91
26.00 16.05
27.00 16.75
28.00 19.24
29.00 24.28
30.00 27.62
31.00 22.06
32.00 18.57
33.00 16.81
34.00 16.14
35.00 16.31
36.00 17.27
37.00 19.07
38.00 21.87
39.00 25.73
40.00 28.85
41.00 27.39
42.00 24.93
43.00 23.40
44.00 22.55
45.00 21.89
46.00 21.06
47.00 20.06
48.00 19.14
49.00 18.45
50.00 18.08
51.00 18.02
52.00 18.28
53.00 18.87
54.00 19.81
55.00 21.08
56.00 22.69
57.00 24.66
58.00 27.15
59.00 30.16
60.00 32.06
61.00 30.42
62.00 27.94
63.00 26.30
64.00 25.56
65.00 25.60
66.00 26.24
67.00 27.25
68.00 28.33
69.00 29.28
70.00 30.11
71.00 30.96
72.00 31.95
73.00 33.05
74.00 33.99
75.00 34.61
76.00 35.13
77.00 36.04
78.00 37.71
79.00 40.39
80.00 44.19
81.00 48.88
82.00 53.43
83.00 56.13
84.00 54.91
85.00 51.20
86.00 47.15
87.00 43.76
88.00 41.47
89.00 40.33
90.00 40.30
91.00 41.16
92.00 41.75
93.00 40.24
94.00 38.01
95.00 36.71
96.00 36.65
97.00 37.84
98.00 40.26
99.00 43.43
100.00 44.02
101.00 41.96
102.00 41.17
103.00 42.70
104.00 47.39
105.00 58.54
106.00 69.58
107.00 62.42
108.00 49.59
109.00 44.15
110.00 41.91
111.00 41.42
112.00 41.60
113.00 41.75
114.00 42.05
115.00 42.69
116.00 43.38
117.00 44.19
118.00 45.94
119.00 49.12
120.00 50.50
121.00 47.37
122.00 44.79
123.00 43.43
124.00 42.48
125.00 41.17
126.00 39.92
127.00 39.71
128.00 41.22
129.00 44.81
130.00 48.44
131.00 46.99
132.00 44.15
133.00 41.02
134.00 38.59
135.00 37.67
136.00 38.37
137.00 40.09
138.00 40.91
139.00 40.50
140.00 40.85
141.00 42.93
142.00 47.14
143.00 54.13
144.00 59.94
145.00 52.17
146.00 45.31
147.00 40.71
148.00 38.17
149.00 37.54
150.00 38.64
151.00 39.88
152.00 38.36
153.00 36.53
154.00 36.27
155.00 37.05
156.00 36.77
157.00 35.18
158.00 34.12
159.00 33.60
160.00 32.66
161.00 31.32
162.00 30.45
163.00 30.52
164.00 31.53
165.00 33.36
166.00 36.02
167.00 40.09
168.00 47.43
169.00 56.38
170.00 49.50
171.00 50.85
172.00 48.22
173.00 39.30
174.00 34.09
175.00 30.96
176.00 29.18
177.00 28.33
178.00 28.14
179.00 28.33
180.00 28.73
181.00 29.28
182.00 30.16
183.00 31.67
184.00 33.72
185.00 35.08
186.00 34.78
187.00 34.44
188.00 34.97
189.00 35.54
190.00 34.66
191.00 33.09
192.00 32.00
193.00 31.66
194.00 32.10
195.00 33.47
196.00 36.18
197.00 40.62
198.00 40.12
199.00 35.20
200.00 32.48
201.00 31.84
202.00 33.22
203.00 37.10
204.00 42.70
205.00 39.65
206.00 36.67
207.00 36.16
208.00 37.04
209.00 37.97
210.00 37.83
211.00 37.51
212.00 38.30
213.00 40.45
214.00 40.05
215.00 35.81
216.00 32.36
217.00 30.03
218.00 28.32
219.00 27.00
220.00 26.12
221.00 25.81
222.00 26.15
223.00 27.02
224.00 28.15
225.00 29.27
226.00 30.58
227.00 32.64
228.00 36.11
229.00 41.13
230.00 42.89
231.00 40.60
232.00 39.63
233.00 40.01
234.00 41.15
235.00 42.47
236.00 43.35
237.00 43.35
238.00 42.87
239.00 42.82
240.00 43.59
241.00 44.33
242.00 43.92
243.00 43.73
244.00 45.60
245.00 51.84
246.00 61.87
247.00 48.25
248.00 44.23
249.00 43.06
250.00 44.61
251.00 51.30
252.00 52.23
253.00 44.62
254.00 42.86
255.00 44.07
256.00 46.73
257.00 50.07
258.00 58.73
259.00 46.20
260.00 40.11
261.00 37.84
262.00 38.08
263.00 40.26
264.00 42.85
265.00 42.81
266.00 40.64
267.00 38.00
268.00 35.94
269.00 34.96
270.00 35.05
271.00 35.95
272.00 37.28
273.00 38.25
274.00 37.95
275.00 37.09
276.00 37.02
277.00 38.25
278.00 40.07
279.00 39.63
280.00 37.17
281.00 34.95
282.00 33.13
283.00 31.50
284.00 30.04
285.00 28.83
286.00 27.88
287.00 27.13
288.00 26.46
289.00 25.82
290.00 25.24
291.00 24.89
292.00 24.88
293.00 25.27
294.00 25.95
295.00 26.72
296.00 27.39
297.00 27.90
298.00 28.14
299.00 27.72
300.00 26.40
301.00 24.57
302.00 22.77
303.00 21.23
304.00 20.01
305.00 19.12
306.00 18.61
307.00 18.48
308.00 18.75
309.00 19.37
310.00 20.23
311.00 21.17
312.00 21.89
313.00 21.95
314.00 21.23
315.00 20.20
316.00 19.39
317.00 19.04
318.00 19.20
319.00 19.79
320.00 20.61
321.00 21.28
322.00 21.34
323.00 20.76
324.00 20.07
325.00 19.79
326.00 20.24
327.00 21.65
328.00 24.34
329.00 28.50
330.00 29.49
331.00 25.34
332.00 22.43
333.00 21.15
334.00 21.27
335.00 22.82
336.00 25.89
337.00 28.25
338.00 25.30
339.00 22.09
340.00 20.45
341.00 20.28
342.00 21.54
343.00 23.82
344.00 24.02
345.00 20.96
346.00 18.34
347.00 17.06
348.00 17.16
349.00 18.85
350.00 23.01
351.00 34.04
352.00 30.53
353.00 25.39
354.00 26.51
355.00 25.88
356.00 16.81
357.00 10.76
358.00 6.67
359.00 3.79
