NAME ATR4518R7_1880_X_CO_M45_05T_yL
FREQUENCY 1880
GAIN 15.06 dBd
TILT	ELECTRICAL
COMMENT DATE 05.08.2013 -45 degrees polarized system Lever position 05T deg
HORIZONTAL 360
0.00 0.00
1.00 0.00
2.00 0.00
3.00 0.01
4.00 0.02
5.00 0.04
6.00 0.07
7.00 0.10
8.00 0.15
9.00 0.19
10.00 0.24
11.00 0.30
12.00 0.36
13.00 0.43
14.00 0.50
15.00 0.57
16.00 0.65
17.00 0.74
18.00 0.82
19.00 0.91
20.00 1.01
21.00 1.11
22.00 1.22
23.00 1.32
24.00 1.44
25.00 1.56
26.00 1.68
27.00 1.81
28.00 1.95
29.00 2.09
30.00 2.24
31.00 2.40
32.00 2.57
33.00 2.74
34.00 2.93
35.00 3.12
36.00 3.32
37.00 3.53
38.00 3.75
39.00 3.98
40.00 4.21
41.00 4.46
42.00 4.72
43.00 4.98
44.00 5.26
45.00 5.55
46.00 5.84
47.00 6.14
48.00 6.46
49.00 6.78
50.00 7.10
51.00 7.44
52.00 7.79
53.00 8.14
54.00 8.50
55.00 8.86
56.00 9.23
57.00 9.61
58.00 9.99
59.00 10.38
60.00 10.77
61.00 11.17
62.00 11.56
63.00 11.97
64.00 12.37
65.00 12.78
66.00 13.19
67.00 13.60
68.00 14.01
69.00 14.42
70.00 14.83
71.00 15.24
72.00 15.65
73.00 16.05
74.00 16.46
75.00 16.86
76.00 17.26
77.00 17.65
78.00 18.04
79.00 18.43
80.00 18.82
81.00 19.21
82.00 19.60
83.00 19.99
84.00 20.38
85.00 20.78
86.00 21.18
87.00 21.60
88.00 22.02
89.00 22.45
90.00 22.90
91.00 23.37
92.00 23.84
93.00 24.33
94.00 24.82
95.00 25.32
96.00 25.81
97.00 26.28
98.00 26.71
99.00 27.10
100.00 27.41
101.00 27.65
102.00 27.80
103.00 27.86
104.00 27.84
105.00 27.76
106.00 27.64
107.00 27.49
108.00 27.34
109.00 27.20
110.00 27.08
111.00 27.00
112.00 26.96
113.00 26.96
114.00 27.01
115.00 27.10
116.00 27.24
117.00 27.43
118.00 27.65
119.00 27.89
120.00 28.15
121.00 28.40
122.00 28.64
123.00 28.83
124.00 28.97
125.00 29.05
126.00 29.05
127.00 28.99
128.00 28.87
129.00 28.73
130.00 28.57
131.00 28.42
132.00 28.29
133.00 28.19
134.00 28.14
135.00 28.15
136.00 28.21
137.00 28.34
138.00 28.54
139.00 28.80
140.00 29.14
141.00 29.54
142.00 30.01
143.00 30.54
144.00 31.13
145.00 31.76
146.00 32.43
147.00 33.09
148.00 33.73
149.00 34.29
150.00 34.75
151.00 35.07
152.00 35.23
153.00 35.23
154.00 35.09
155.00 34.85
156.00 34.54
157.00 34.18
158.00 33.81
159.00 33.44
160.00 33.07
161.00 32.73
162.00 32.42
163.00 32.15
164.00 31.93
165.00 31.76
166.00 31.66
167.00 31.62
168.00 31.67
169.00 31.78
170.00 31.98
171.00 32.25
172.00 32.60
173.00 32.99
174.00 33.38
175.00 33.74
176.00 33.96
177.00 34.00
178.00 33.78
179.00 33.33
180.00 32.70
181.00 31.98
182.00 31.24
183.00 30.53
184.00 29.89
185.00 29.34
186.00 28.90
187.00 28.56
188.00 28.34
189.00 28.24
190.00 28.26
191.00 28.42
192.00 28.72
193.00 29.18
194.00 29.83
195.00 30.69
196.00 31.80
197.00 33.24
198.00 35.09
199.00 37.44
200.00 40.13
201.00 41.64
202.00 40.02
203.00 37.19
204.00 34.69
205.00 32.69
206.00 31.11
207.00 29.85
208.00 28.85
209.00 28.06
210.00 27.45
211.00 27.00
212.00 26.70
213.00 26.53
214.00 26.50
215.00 26.60
216.00 26.84
217.00 27.22
218.00 27.76
219.00 28.47
220.00 29.39
221.00 30.56
222.00 32.06
223.00 34.03
224.00 36.73
225.00 40.82
226.00 48.29
227.00 49.06
228.00 41.19
229.00 36.93
230.00 34.13
231.00 32.08
232.00 30.50
233.00 29.25
234.00 28.24
235.00 27.41
236.00 26.74
237.00 26.19
238.00 25.76
239.00 25.41
240.00 25.14
241.00 24.94
242.00 24.80
243.00 24.70
244.00 24.64
245.00 24.61
246.00 24.58
247.00 24.56
248.00 24.52
249.00 24.45
250.00 24.35
251.00 24.20
252.00 24.00
253.00 23.75
254.00 23.46
255.00 23.14
256.00 22.80
257.00 22.44
258.00 22.08
259.00 21.72
260.00 21.38
261.00 21.04
262.00 20.73
263.00 20.43
264.00 20.14
265.00 19.88
266.00 19.63
267.00 19.39
268.00 19.17
269.00 18.94
270.00 18.72
271.00 18.49
272.00 18.26
273.00 18.01
274.00 17.76
275.00 17.48
276.00 17.20
277.00 16.89
278.00 16.57
279.00 16.24
280.00 15.89
281.00 15.54
282.00 15.18
283.00 14.82
284.00 14.45
285.00 14.09
286.00 13.73
287.00 13.37
288.00 13.02
289.00 12.67
290.00 12.33
291.00 12.00
292.00 11.68
293.00 11.36
294.00 11.05
295.00 10.74
296.00 10.44
297.00 10.15
298.00 9.87
299.00 9.59
300.00 9.31
301.00 9.05
302.00 8.78
303.00 8.53
304.00 8.28
305.00 8.03
306.00 7.80
307.00 7.56
308.00 7.33
309.00 7.11
310.00 6.90
311.00 6.68
312.00 6.48
313.00 6.28
314.00 6.08
315.00 5.88
316.00 5.69
317.00 5.50
318.00 5.32
319.00 5.13
320.00 4.95
321.00 4.77
322.00 4.59
323.00 4.41
324.00 4.23
325.00 4.05
326.00 3.87
327.00 3.69
328.00 3.51
329.00 3.34
330.00 3.16
331.00 2.99
332.00 2.82
333.00 2.65
334.00 2.49
335.00 2.33
336.00 2.17
337.00 2.02
338.00 1.87
339.00 1.72
340.00 1.58
341.00 1.45
342.00 1.32
343.00 1.19
344.00 1.07
345.00 0.96
346.00 0.85
347.00 0.74
348.00 0.65
349.00 0.55
350.00 0.47
351.00 0.39
352.00 0.32
353.00 0.25
354.00 0.20
355.00 0.15
356.00 0.10
357.00 0.06
358.00 0.04
359.00 0.02
VERTICAL 360
0.00 9.53
1.00 5.72
2.00 3.07
3.00 1.30
4.00 0.29
5.00 0.00
6.00 0.43
7.00 1.70
8.00 3.98
9.00 7.79
10.00 14.77
11.00 30.70
12.00 15.70
13.00 12.28
14.00 11.88
15.00 13.60
16.00 17.83
17.00 24.27
18.00 20.22
19.00 16.32
20.00 14.90
21.00 15.11
22.00 16.84
23.00 20.66
24.00 28.49
25.00 26.07
26.00 20.41
27.00 18.26
28.00 18.15
29.00 19.67
30.00 23.01
31.00 29.60
32.00 39.00
33.00 27.58
34.00 23.14
35.00 21.16
36.00 20.68
37.00 21.37
38.00 22.81
39.00 23.96
40.00 23.56
41.00 22.03
42.00 20.42
43.00 19.19
44.00 18.40
45.00 18.04
46.00 17.99
47.00 18.17
48.00 18.54
49.00 19.18
50.00 20.18
51.00 21.51
52.00 23.00
53.00 24.42
54.00 25.81
55.00 27.67
56.00 30.65
57.00 35.17
58.00 37.17
59.00 33.70
60.00 30.87
61.00 28.98
62.00 27.55
63.00 26.47
64.00 25.73
65.00 25.33
66.00 25.24
67.00 25.38
68.00 25.67
69.00 26.07
70.00 26.58
71.00 27.24
72.00 28.09
73.00 29.09
74.00 30.18
75.00 31.22
76.00 32.18
77.00 33.14
78.00 34.23
79.00 35.55
80.00 37.27
81.00 39.73
82.00 43.47
83.00 48.16
84.00 49.31
85.00 47.65
86.00 46.27
87.00 45.48
88.00 45.89
89.00 46.16
90.00 43.95
91.00 42.12
92.00 42.32
93.00 43.16
94.00 41.08
95.00 38.50
96.00 37.60
97.00 38.50
98.00 41.03
99.00 44.90
100.00 48.18
101.00 47.78
102.00 46.96
103.00 47.62
104.00 47.85
105.00 45.44
106.00 43.08
107.00 41.90
108.00 41.53
109.00 41.33
110.00 40.71
111.00 39.63
112.00 38.61
113.00 38.06
114.00 38.07
115.00 38.44
116.00 38.85
117.00 38.88
118.00 38.34
119.00 37.52
120.00 37.05
121.00 37.61
122.00 39.93
123.00 45.12
124.00 49.34
125.00 44.82
126.00 43.05
127.00 42.90
128.00 42.90
129.00 43.82
130.00 47.51
131.00 50.17
132.00 44.63
133.00 41.87
134.00 41.35
135.00 42.04
136.00 43.57
137.00 46.18
138.00 49.44
139.00 50.00
140.00 46.22
141.00 41.71
142.00 38.58
143.00 37.11
144.00 37.13
145.00 38.29
146.00 39.84
147.00 40.40
148.00 39.10
149.00 37.19
150.00 35.97
151.00 35.95
152.00 37.22
153.00 39.46
154.00 41.06
155.00 40.28
156.00 38.15
157.00 35.78
158.00 33.75
159.00 32.47
160.00 32.14
161.00 32.78
162.00 34.04
163.00 35.02
164.00 35.13
165.00 35.26
166.00 36.25
167.00 38.12
168.00 40.05
169.00 40.74
170.00 39.11
171.00 36.20
172.00 33.76
173.00 32.29
174.00 31.67
175.00 31.61
176.00 31.81
177.00 32.20
178.00 33.06
179.00 35.08
180.00 38.96
181.00 42.34
182.00 39.74
183.00 38.30
184.00 39.71
185.00 44.65
186.00 59.76
187.00 49.75
188.00 42.71
189.00 38.07
190.00 35.08
191.00 33.73
192.00 34.05
193.00 36.22
194.00 40.55
195.00 43.86
196.00 41.63
197.00 41.04
198.00 43.57
199.00 49.73
200.00 50.02
201.00 44.14
202.00 39.26
203.00 35.56
204.00 33.50
205.00 33.26
206.00 35.19
207.00 40.63
208.00 45.90
209.00 37.71
210.00 34.07
211.00 32.62
212.00 32.25
213.00 32.25
214.00 32.31
215.00 32.62
216.00 33.59
217.00 35.62
218.00 39.22
219.00 45.61
220.00 56.31
221.00 47.45
222.00 42.92
223.00 40.54
224.00 39.42
225.00 39.39
226.00 40.03
227.00 40.36
228.00 39.73
229.00 38.99
230.00 39.07
231.00 40.41
232.00 43.32
233.00 48.56
234.00 60.49
235.00 55.23
236.00 48.34
237.00 45.43
238.00 44.40
239.00 44.57
240.00 45.59
241.00 47.30
242.00 49.61
243.00 53.14
244.00 62.58
245.00 54.35
246.00 47.83
247.00 45.81
248.00 46.83
249.00 51.02
250.00 59.90
251.00 72.57
252.00 60.40
253.00 52.69
254.00 47.87
255.00 44.50
256.00 42.37
257.00 41.72
258.00 42.20
259.00 41.67
260.00 39.09
261.00 36.63
262.00 34.98
263.00 33.97
264.00 33.45
265.00 33.27
266.00 33.11
267.00 32.65
268.00 31.96
269.00 31.30
270.00 30.82
271.00 30.58
272.00 30.56
273.00 30.69
274.00 30.87
275.00 31.01
276.00 31.05
277.00 31.04
278.00 31.04
279.00 31.02
280.00 30.79
281.00 30.07
282.00 28.93
283.00 27.75
284.00 26.81
285.00 26.20
286.00 25.83
287.00 25.58
288.00 25.31
289.00 24.99
290.00 24.63
291.00 24.28
292.00 24.07
293.00 24.13
294.00 24.56
295.00 25.49
296.00 27.06
297.00 29.68
298.00 34.67
299.00 54.11
300.00 35.19
301.00 28.79
302.00 25.40
303.00 23.36
304.00 22.12
305.00 21.43
306.00 21.18
307.00 21.41
308.00 22.24
309.00 23.93
310.00 26.86
311.00 31.26
312.00 31.99
313.00 27.39
314.00 23.85
315.00 21.52
316.00 20.11
317.00 19.54
318.00 19.79
319.00 20.94
320.00 23.16
321.00 26.88
322.00 33.53
323.00 46.80
324.00 34.91
325.00 31.12
326.00 29.99
327.00 29.76
328.00 28.60
329.00 26.30
330.00 24.31
331.00 23.34
332.00 23.43
333.00 24.10
334.00 24.08
335.00 22.72
336.00 21.28
337.00 20.76
338.00 21.61
339.00 24.34
340.00 28.56
341.00 25.73
342.00 21.04
343.00 18.48
344.00 17.56
345.00 18.07
346.00 20.18
347.00 24.83
348.00 37.11
349.00 28.69
350.00 23.05
351.00 21.09
352.00 21.14
353.00 22.78
354.00 24.83
355.00 24.94
356.00 25.25
357.00 32.00
358.00 25.68
359.00 15.25
