NAME ATR4518R7_1850_X_CO_M45_07T_yL
FREQUENCY 1850
GAIN 15.27 dBd
TILT	ELECTRICAL
COMMENT DATE 05.08.2013 -45 degrees polarized system Lever position 07T deg
HORIZONTAL 360
0.00 0.00
1.00 0.01
2.00 0.03
3.00 0.05
4.00 0.07
5.00 0.10
6.00 0.14
7.00 0.18
8.00 0.22
9.00 0.27
10.00 0.32
11.00 0.38
12.00 0.44
13.00 0.50
14.00 0.56
15.00 0.62
16.00 0.69
17.00 0.76
18.00 0.82
19.00 0.89
20.00 0.97
21.00 1.04
22.00 1.12
23.00 1.20
24.00 1.28
25.00 1.37
26.00 1.47
27.00 1.57
28.00 1.68
29.00 1.79
30.00 1.91
31.00 2.04
32.00 2.19
33.00 2.34
34.00 2.50
35.00 2.67
36.00 2.85
37.00 3.04
38.00 3.24
39.00 3.45
40.00 3.68
41.00 3.91
42.00 4.15
43.00 4.39
44.00 4.65
45.00 4.91
46.00 5.17
47.00 5.45
48.00 5.73
49.00 6.01
50.00 6.29
51.00 6.58
52.00 6.87
53.00 7.16
54.00 7.45
55.00 7.75
56.00 8.04
57.00 8.34
58.00 8.64
59.00 8.94
60.00 9.24
61.00 9.54
62.00 9.85
63.00 10.16
64.00 10.47
65.00 10.79
66.00 11.12
67.00 11.45
68.00 11.79
69.00 12.14
70.00 12.49
71.00 12.86
72.00 13.23
73.00 13.62
74.00 14.01
75.00 14.42
76.00 14.83
77.00 15.25
78.00 15.68
79.00 16.12
80.00 16.56
81.00 17.00
82.00 17.45
83.00 17.89
84.00 18.32
85.00 18.75
86.00 19.17
87.00 19.57
88.00 19.95
89.00 20.30
90.00 20.64
91.00 20.95
92.00 21.23
93.00 21.50
94.00 21.74
95.00 21.97
96.00 22.18
97.00 22.39
98.00 22.59
99.00 22.79
100.00 23.00
101.00 23.21
102.00 23.43
103.00 23.66
104.00 23.90
105.00 24.14
106.00 24.40
107.00 24.65
108.00 24.90
109.00 25.14
110.00 25.37
111.00 25.58
112.00 25.77
113.00 25.95
114.00 26.10
115.00 26.24
116.00 26.37
117.00 26.50
118.00 26.63
119.00 26.77
120.00 26.92
121.00 27.09
122.00 27.28
123.00 27.50
124.00 27.72
125.00 27.96
126.00 28.19
127.00 28.40
128.00 28.57
129.00 28.70
130.00 28.76
131.00 28.74
132.00 28.66
133.00 28.51
134.00 28.32
135.00 28.11
136.00 27.90
137.00 27.70
138.00 27.54
139.00 27.43
140.00 27.37
141.00 27.39
142.00 27.48
143.00 27.66
144.00 27.93
145.00 28.29
146.00 28.77
147.00 29.35
148.00 30.07
149.00 30.91
150.00 31.91
151.00 33.04
152.00 34.31
153.00 35.65
154.00 36.93
155.00 37.88
156.00 38.25
157.00 37.97
158.00 37.30
159.00 36.51
160.00 35.78
161.00 35.21
162.00 34.82
163.00 34.63
164.00 34.64
165.00 34.87
166.00 35.34
167.00 36.08
168.00 37.13
169.00 38.54
170.00 40.40
171.00 42.60
172.00 44.31
173.00 43.74
174.00 41.33
175.00 38.77
176.00 36.61
177.00 34.85
178.00 33.43
179.00 32.27
180.00 31.35
181.00 30.61
182.00 30.04
183.00 29.62
184.00 29.35
185.00 29.22
186.00 29.22
187.00 29.36
188.00 29.64
189.00 30.09
190.00 30.70
191.00 31.52
192.00 32.59
193.00 33.98
194.00 35.81
195.00 38.32
196.00 41.96
197.00 47.26
198.00 47.45
199.00 41.91
200.00 37.99
201.00 35.23
202.00 33.15
203.00 31.52
204.00 30.20
205.00 29.12
206.00 28.23
207.00 27.50
208.00 26.90
209.00 26.41
210.00 26.04
211.00 25.77
212.00 25.59
213.00 25.51
214.00 25.52
215.00 25.63
216.00 25.83
217.00 26.15
218.00 26.58
219.00 27.15
220.00 27.87
221.00 28.77
222.00 29.90
223.00 31.34
224.00 33.21
225.00 35.73
226.00 39.45
227.00 45.61
228.00 48.13
229.00 40.92
230.00 36.50
231.00 33.56
232.00 31.41
233.00 29.75
234.00 28.42
235.00 27.33
236.00 26.45
237.00 25.72
238.00 25.13
239.00 24.65
240.00 24.26
241.00 23.97
242.00 23.75
243.00 23.59
244.00 23.49
245.00 23.43
246.00 23.40
247.00 23.38
248.00 23.37
249.00 23.34
250.00 23.28
251.00 23.19
252.00 23.04
253.00 22.85
254.00 22.61
255.00 22.32
256.00 22.00
257.00 21.66
258.00 21.30
259.00 20.95
260.00 20.60
261.00 20.26
262.00 19.93
263.00 19.62
264.00 19.33
265.00 19.06
266.00 18.80
267.00 18.56
268.00 18.33
269.00 18.10
270.00 17.87
271.00 17.65
272.00 17.42
273.00 17.18
274.00 16.93
275.00 16.67
276.00 16.39
277.00 16.10
278.00 15.79
279.00 15.47
280.00 15.14
281.00 14.80
282.00 14.46
283.00 14.11
284.00 13.75
285.00 13.40
286.00 13.05
287.00 12.71
288.00 12.36
289.00 12.03
290.00 11.71
291.00 11.39
292.00 11.08
293.00 10.78
294.00 10.49
295.00 10.21
296.00 9.93
297.00 9.66
298.00 9.39
299.00 9.14
300.00 8.88
301.00 8.64
302.00 8.39
303.00 8.15
304.00 7.92
305.00 7.69
306.00 7.47
307.00 7.25
308.00 7.04
309.00 6.83
310.00 6.62
311.00 6.42
312.00 6.23
313.00 6.05
314.00 5.86
315.00 5.69
316.00 5.52
317.00 5.35
318.00 5.19
319.00 5.02
320.00 4.86
321.00 4.70
322.00 4.54
323.00 4.37
324.00 4.20
325.00 4.03
326.00 3.86
327.00 3.68
328.00 3.49
329.00 3.31
330.00 3.12
331.00 2.92
332.00 2.73
333.00 2.54
334.00 2.35
335.00 2.16
336.00 1.98
337.00 1.80
338.00 1.63
339.00 1.46
340.00 1.31
341.00 1.16
342.00 1.02
343.00 0.89
344.00 0.77
345.00 0.66
346.00 0.56
347.00 0.47
348.00 0.39
349.00 0.32
350.00 0.25
351.00 0.20
352.00 0.15
353.00 0.11
354.00 0.07
355.00 0.05
356.00 0.03
357.00 0.01
358.00 0.00
359.00 0.00
VERTICAL 360
0.00 17.80
1.00 12.02
2.00 7.84
3.00 4.77
4.00 2.56
5.00 1.06
6.00 0.21
7.00 0.00
8.00 0.44
9.00 1.62
10.00 3.67
11.00 6.92
12.00 12.15
13.00 19.90
14.00 17.10
15.00 13.55
16.00 12.78
17.00 14.02
18.00 17.30
19.00 22.09
20.00 20.51
21.00 16.66
22.00 14.72
23.00 14.30
24.00 15.20
25.00 17.52
26.00 21.74
27.00 27.87
28.00 26.27
29.00 22.44
30.00 20.80
31.00 20.79
32.00 22.42
33.00 26.70
34.00 40.05
35.00 28.60
36.00 22.64
37.00 20.10
38.00 19.20
39.00 19.35
40.00 20.14
41.00 21.26
42.00 22.37
43.00 22.90
44.00 22.34
45.00 21.05
46.00 19.79
47.00 18.88
48.00 18.31
49.00 17.94
50.00 17.68
51.00 17.56
52.00 17.67
53.00 18.11
54.00 18.96
55.00 20.23
56.00 21.89
57.00 23.93
58.00 26.44
59.00 29.62
60.00 33.88
61.00 39.96
62.00 45.98
63.00 42.21
64.00 38.80
65.00 36.72
66.00 35.22
67.00 33.98
68.00 32.92
69.00 32.03
70.00 31.30
71.00 30.70
72.00 30.19
73.00 29.81
74.00 29.65
75.00 29.83
76.00 30.43
77.00 31.48
78.00 32.96
79.00 34.77
80.00 36.67
81.00 38.21
82.00 39.16
83.00 39.93
84.00 40.98
85.00 42.69
86.00 46.55
87.00 62.66
88.00 46.54
89.00 40.67
90.00 38.78
91.00 39.35
92.00 42.08
93.00 45.83
94.00 45.55
95.00 43.03
96.00 41.60
97.00 41.44
98.00 42.27
99.00 43.04
100.00 43.00
101.00 43.34
102.00 45.15
103.00 48.47
104.00 51.66
105.00 52.05
106.00 49.43
107.00 46.72
108.00 45.61
109.00 46.09
110.00 47.01
111.00 46.31
112.00 44.47
113.00 43.24
114.00 43.31
115.00 44.93
116.00 48.19
117.00 52.18
118.00 53.25
119.00 51.62
120.00 50.34
121.00 48.89
122.00 45.38
123.00 41.79
124.00 39.66
125.00 39.01
126.00 39.61
127.00 41.30
128.00 44.28
129.00 47.60
130.00 45.36
131.00 42.01
132.00 40.14
133.00 38.90
134.00 38.00
135.00 37.95
136.00 39.36
137.00 42.58
138.00 47.43
139.00 51.76
140.00 51.54
141.00 47.51
142.00 45.19
143.00 45.92
144.00 49.78
145.00 47.93
146.00 42.88
147.00 40.27
148.00 39.11
149.00 38.81
150.00 39.35
151.00 40.71
152.00 41.66
153.00 40.40
154.00 38.46
155.00 37.07
156.00 36.29
157.00 36.22
158.00 36.97
159.00 37.39
160.00 35.58
161.00 33.27
162.00 32.04
163.00 31.92
164.00 32.41
165.00 32.95
166.00 33.64
167.00 34.94
168.00 36.67
169.00 37.08
170.00 35.57
171.00 33.84
172.00 32.69
173.00 32.27
174.00 32.68
175.00 34.04
176.00 36.65
177.00 41.19
178.00 48.68
179.00 46.62
180.00 42.42
181.00 41.24
182.00 42.07
183.00 44.89
184.00 52.18
185.00 51.28
186.00 41.46
187.00 36.85
188.00 34.61
189.00 34.16
190.00 35.24
191.00 37.34
192.00 38.66
193.00 38.44
194.00 38.59
195.00 39.96
196.00 42.19
197.00 44.66
198.00 48.75
199.00 55.02
200.00 44.05
201.00 38.19
202.00 35.11
203.00 33.90
204.00 34.42
205.00 37.21
206.00 44.70
207.00 43.87
208.00 35.89
209.00 32.16
210.00 30.20
211.00 29.22
212.00 28.87
213.00 28.94
214.00 29.42
215.00 30.46
216.00 32.33
217.00 35.41
218.00 40.06
219.00 44.93
220.00 45.02
221.00 44.03
222.00 43.09
223.00 40.90
224.00 38.49
225.00 36.84
226.00 36.06
227.00 36.12
228.00 36.98
229.00 38.63
230.00 40.98
231.00 43.44
232.00 44.01
233.00 42.18
234.00 40.01
235.00 38.39
236.00 37.39
237.00 36.90
238.00 36.64
239.00 36.33
240.00 35.92
241.00 35.61
242.00 35.62
243.00 36.13
244.00 37.16
245.00 38.35
246.00 39.03
247.00 39.03
248.00 38.89
249.00 38.85
250.00 38.64
251.00 38.07
252.00 37.36
253.00 37.08
254.00 37.80
255.00 40.22
256.00 45.94
257.00 76.18
258.00 46.40
259.00 41.58
260.00 39.20
261.00 37.69
262.00 36.55
263.00 35.54
264.00 34.52
265.00 33.42
266.00 32.27
267.00 31.12
268.00 30.08
269.00 29.24
270.00 28.73
271.00 28.60
272.00 28.80
273.00 29.22
274.00 29.64
275.00 29.82
276.00 29.73
277.00 29.60
278.00 29.74
279.00 30.33
280.00 31.38
281.00 32.69
282.00 33.86
283.00 34.39
284.00 33.93
285.00 32.59
286.00 30.84
287.00 29.14
288.00 27.72
289.00 26.57
290.00 25.58
291.00 24.65
292.00 23.73
293.00 22.86
294.00 22.11
295.00 21.57
296.00 21.37
297.00 21.64
298.00 22.52
299.00 24.20
300.00 26.93
301.00 31.00
302.00 34.07
303.00 30.97
304.00 27.39
305.00 24.91
306.00 23.22
307.00 22.16
308.00 21.74
309.00 22.05
310.00 23.26
311.00 25.69
312.00 29.60
313.00 31.50
314.00 27.22
315.00 23.43
316.00 20.93
317.00 19.37
318.00 18.59
319.00 18.62
320.00 19.57
321.00 21.75
322.00 26.00
323.00 35.92
324.00 34.02
325.00 26.88
326.00 24.26
327.00 23.61
328.00 24.47
329.00 27.05
330.00 32.19
331.00 34.58
332.00 29.02
333.00 26.06
334.00 25.24
335.00 26.15
336.00 28.67
337.00 30.88
338.00 28.28
339.00 24.93
340.00 22.96
341.00 22.30
342.00 22.92
343.00 24.93
344.00 27.91
345.00 28.43
346.00 26.16
347.00 24.92
348.00 25.35
349.00 26.66
350.00 25.94
351.00 23.11
352.00 20.88
353.00 19.92
354.00 20.28
355.00 22.04
356.00 25.37
357.00 30.61
358.00 38.91
359.00 26.47
