NAME ATR4518R7_0847_X_CO_P45_08T
FREQUENCY 0847
GAIN 14.53 dBd
TILT	ELECTRICAL
COMMENT DATE 05.08.2013 +45 degrees polarized system Lever position 08T deg
HORIZONTAL 360
0.00 0.01
1.00 0.00
2.00 0.00
3.00 0.01
4.00 0.02
5.00 0.04
6.00 0.07
7.00 0.10
8.00 0.14
9.00 0.18
10.00 0.23
11.00 0.29
12.00 0.35
13.00 0.41
14.00 0.49
15.00 0.57
16.00 0.65
17.00 0.74
18.00 0.84
19.00 0.94
20.00 1.05
21.00 1.16
22.00 1.28
23.00 1.41
24.00 1.54
25.00 1.68
26.00 1.82
27.00 1.97
28.00 2.12
29.00 2.28
30.00 2.44
31.00 2.61
32.00 2.79
33.00 2.97
34.00 3.16
35.00 3.35
36.00 3.54
37.00 3.74
38.00 3.95
39.00 4.16
40.00 4.38
41.00 4.60
42.00 4.83
43.00 5.06
44.00 5.29
45.00 5.53
46.00 5.78
47.00 6.03
48.00 6.28
49.00 6.54
50.00 6.80
51.00 7.07
52.00 7.34
53.00 7.61
54.00 7.89
55.00 8.18
56.00 8.46
57.00 8.75
58.00 9.05
59.00 9.35
60.00 9.65
61.00 9.95
62.00 10.26
63.00 10.57
64.00 10.89
65.00 11.21
66.00 11.53
67.00 11.86
68.00 12.18
69.00 12.52
70.00 12.85
71.00 13.19
72.00 13.53
73.00 13.87
74.00 14.22
75.00 14.57
76.00 14.92
77.00 15.27
78.00 15.62
79.00 15.98
80.00 16.34
81.00 16.70
82.00 17.05
83.00 17.41
84.00 17.77
85.00 18.13
86.00 18.49
87.00 18.85
88.00 19.21
89.00 19.57
90.00 19.92
91.00 20.27
92.00 20.62
93.00 20.97
94.00 21.31
95.00 21.65
96.00 21.98
97.00 22.31
98.00 22.63
99.00 22.95
100.00 23.26
101.00 23.57
102.00 23.87
103.00 24.16
104.00 24.44
105.00 24.72
106.00 24.99
107.00 25.26
108.00 25.51
109.00 25.76
110.00 26.00
111.00 26.23
112.00 26.45
113.00 26.66
114.00 26.87
115.00 27.06
116.00 27.24
117.00 27.41
118.00 27.57
119.00 27.72
120.00 27.85
121.00 27.97
122.00 28.09
123.00 28.19
124.00 28.28
125.00 28.36
126.00 28.44
127.00 28.50
128.00 28.56
129.00 28.61
130.00 28.65
131.00 28.69
132.00 28.73
133.00 28.77
134.00 28.81
135.00 28.85
136.00 28.89
137.00 28.94
138.00 28.99
139.00 29.05
140.00 29.11
141.00 29.19
142.00 29.27
143.00 29.37
144.00 29.47
145.00 29.60
146.00 29.73
147.00 29.88
148.00 30.04
149.00 30.22
150.00 30.41
151.00 30.62
152.00 30.84
153.00 31.08
154.00 31.34
155.00 31.61
156.00 31.90
157.00 32.20
158.00 32.50
159.00 32.82
160.00 33.14
161.00 33.45
162.00 33.76
163.00 34.06
164.00 34.33
165.00 34.58
166.00 34.78
167.00 34.94
168.00 35.06
169.00 35.11
170.00 35.11
171.00 35.07
172.00 34.97
173.00 34.84
174.00 34.67
175.00 34.48
176.00 34.28
177.00 34.07
178.00 33.86
179.00 33.66
180.00 33.47
181.00 33.29
182.00 33.13
183.00 32.99
184.00 32.87
185.00 32.78
186.00 32.71
187.00 32.67
188.00 32.65
189.00 32.67
190.00 32.71
191.00 32.78
192.00 32.89
193.00 33.02
194.00 33.19
195.00 33.40
196.00 33.64
197.00 33.93
198.00 34.26
199.00 34.63
200.00 35.06
201.00 35.53
202.00 36.08
203.00 36.69
204.00 37.38
205.00 38.16
206.00 39.06
207.00 40.09
208.00 41.30
209.00 42.74
210.00 44.48
211.00 46.69
212.00 49.65
213.00 53.86
214.00 58.95
215.00 56.15
216.00 51.22
217.00 47.80
218.00 45.27
219.00 43.32
220.00 41.73
221.00 40.39
222.00 39.24
223.00 38.24
224.00 37.35
225.00 36.55
226.00 35.83
227.00 35.17
228.00 34.56
229.00 34.01
230.00 33.49
231.00 33.00
232.00 32.55
233.00 32.12
234.00 31.71
235.00 31.32
236.00 30.95
237.00 30.59
238.00 30.25
239.00 29.91
240.00 29.59
241.00 29.27
242.00 28.95
243.00 28.65
244.00 28.34
245.00 28.04
246.00 27.74
247.00 27.45
248.00 27.15
249.00 26.85
250.00 26.56
251.00 26.26
252.00 25.96
253.00 25.65
254.00 25.34
255.00 25.03
256.00 24.72
257.00 24.40
258.00 24.07
259.00 23.74
260.00 23.41
261.00 23.08
262.00 22.73
263.00 22.39
264.00 22.04
265.00 21.69
266.00 21.33
267.00 20.97
268.00 20.61
269.00 20.24
270.00 19.88
271.00 19.51
272.00 19.15
273.00 18.78
274.00 18.42
275.00 18.05
276.00 17.69
277.00 17.33
278.00 16.96
279.00 16.61
280.00 16.25
281.00 15.89
282.00 15.54
283.00 15.20
284.00 14.85
285.00 14.51
286.00 14.17
287.00 13.84
288.00 13.51
289.00 13.18
290.00 12.85
291.00 12.53
292.00 12.22
293.00 11.90
294.00 11.59
295.00 11.29
296.00 10.98
297.00 10.68
298.00 10.39
299.00 10.09
300.00 9.80
301.00 9.52
302.00 9.24
303.00 8.96
304.00 8.68
305.00 8.41
306.00 8.14
307.00 7.87
308.00 7.61
309.00 7.35
310.00 7.10
311.00 6.84
312.00 6.59
313.00 6.35
314.00 6.11
315.00 5.87
316.00 5.63
317.00 5.40
318.00 5.18
319.00 4.96
320.00 4.74
321.00 4.52
322.00 4.31
323.00 4.10
324.00 3.90
325.00 3.70
326.00 3.51
327.00 3.32
328.00 3.14
329.00 2.96
330.00 2.78
331.00 2.61
332.00 2.45
333.00 2.29
334.00 2.13
335.00 1.98
336.00 1.84
337.00 1.70
338.00 1.56
339.00 1.43
340.00 1.31
341.00 1.19
342.00 1.08
343.00 0.97
344.00 0.86
345.00 0.77
346.00 0.68
347.00 0.59
348.00 0.51
349.00 0.44
350.00 0.37
351.00 0.31
352.00 0.25
353.00 0.20
354.00 0.15
355.00 0.11
356.00 0.08
357.00 0.05
358.00 0.03
359.00 0.01
VERTICAL 360
0.00 12.98
1.00 9.30
2.00 6.51
3.00 4.36
4.00 2.71
5.00 1.49
6.00 0.65
7.00 0.16
8.00 0.00
9.00 0.16
10.00 0.64
11.00 1.45
12.00 2.61
13.00 4.18
14.00 6.22
15.00 8.85
16.00 12.28
17.00 16.89
18.00 23.42
19.00 29.63
20.00 26.83
21.00 25.17
22.00 25.80
23.00 28.48
24.00 32.03
25.00 29.30
26.00 24.97
27.00 22.23
28.00 20.70
29.00 20.05
30.00 20.11
31.00 20.80
32.00 22.13
33.00 24.15
34.00 26.84
35.00 29.75
36.00 31.25
37.00 30.93
38.00 30.70
39.00 31.69
40.00 34.42
41.00 37.80
42.00 35.03
43.00 30.74
44.00 27.78
45.00 25.65
46.00 24.04
47.00 22.85
48.00 22.10
49.00 21.84
50.00 22.14
51.00 23.06
52.00 24.64
53.00 26.81
54.00 29.35
55.00 31.88
56.00 34.38
57.00 37.76
58.00 45.08
59.00 49.53
60.00 37.68
61.00 32.91
62.00 30.22
63.00 28.67
64.00 27.91
65.00 27.72
66.00 27.97
67.00 28.57
68.00 29.39
69.00 30.15
70.00 30.50
71.00 30.35
72.00 29.99
73.00 29.77
74.00 29.94
75.00 30.74
76.00 32.35
77.00 34.63
78.00 36.11
79.00 35.45
80.00 34.41
81.00 34.27
82.00 35.37
83.00 38.12
84.00 41.61
85.00 37.96
86.00 33.56
87.00 31.29
88.00 30.63
89.00 31.11
90.00 32.09
91.00 32.69
92.00 32.25
93.00 31.01
94.00 29.78
95.00 29.15
96.00 29.41
97.00 30.59
98.00 32.48
99.00 34.56
100.00 36.18
101.00 37.18
102.00 37.98
103.00 39.15
104.00 41.09
105.00 43.66
106.00 45.78
107.00 47.14
108.00 48.66
109.00 50.29
110.00 51.51
111.00 49.35
112.00 44.39
113.00 40.92
114.00 39.31
115.00 39.17
116.00 39.97
117.00 40.97
118.00 41.80
119.00 42.65
120.00 43.33
121.00 43.63
122.00 44.31
123.00 46.32
124.00 49.62
125.00 50.53
126.00 47.84
127.00 44.90
128.00 42.15
129.00 39.89
130.00 38.40
131.00 37.72
132.00 37.77
133.00 38.46
134.00 39.70
135.00 41.48
136.00 43.90
137.00 47.36
138.00 50.93
139.00 47.85
140.00 43.26
141.00 40.14
142.00 38.05
143.00 36.57
144.00 35.38
145.00 34.34
146.00 33.46
147.00 32.82
148.00 32.44
149.00 32.26
150.00 32.19
151.00 32.18
152.00 32.33
153.00 32.83
154.00 33.75
155.00 35.01
156.00 36.36
157.00 37.62
158.00 38.89
159.00 40.46
160.00 42.82
161.00 47.05
162.00 52.61
163.00 46.34
164.00 41.90
165.00 40.21
166.00 40.57
167.00 42.78
168.00 45.30
169.00 42.50
170.00 38.33
171.00 35.30
172.00 33.21
173.00 32.23
174.00 31.83
175.00 31.99
176.00 32.65
177.00 33.72
178.00 34.97
179.00 36.02
180.00 36.48
181.00 36.24
182.00 35.58
183.00 34.91
184.00 34.43
185.00 34.19
186.00 34.15
187.00 34.27
188.00 34.52
189.00 34.96
190.00 35.65
191.00 36.68
192.00 38.08
193.00 39.77
194.00 41.49
195.00 42.82
196.00 43.36
197.00 42.93
198.00 41.93
199.00 40.77
200.00 39.69
201.00 38.69
202.00 37.76
203.00 36.93
204.00 36.38
205.00 36.36
206.00 37.12
207.00 38.94
208.00 41.81
209.00 43.30
210.00 41.02
211.00 38.64
212.00 37.25
213.00 36.47
214.00 35.79
215.00 34.96
216.00 34.05
217.00 33.43
218.00 33.45
219.00 34.36
220.00 36.34
221.00 39.52
222.00 43.94
223.00 47.75
224.00 45.20
225.00 41.46
226.00 39.10
227.00 37.79
228.00 36.98
229.00 36.16
230.00 35.07
231.00 33.70
232.00 32.23
233.00 30.97
234.00 30.18
235.00 29.99
236.00 30.40
237.00 31.24
238.00 32.24
239.00 33.12
240.00 33.62
241.00 33.40
242.00 32.36
243.00 31.14
244.00 30.43
245.00 30.43
246.00 30.88
247.00 31.28
248.00 31.31
249.00 31.02
250.00 30.57
251.00 30.15
252.00 30.03
253.00 30.40
254.00 31.09
255.00 31.48
256.00 30.91
257.00 29.58
258.00 28.29
259.00 27.57
260.00 27.67
261.00 28.63
262.00 30.20
263.00 31.52
264.00 31.57
265.00 30.65
266.00 29.70
267.00 29.15
268.00 29.18
269.00 29.79
270.00 30.77
271.00 31.66
272.00 31.97
273.00 31.88
274.00 31.96
275.00 32.63
276.00 33.85
277.00 34.98
278.00 35.11
279.00 34.37
280.00 33.53
281.00 32.90
282.00 32.53
283.00 32.26
284.00 31.82
285.00 31.13
286.00 30.45
287.00 30.02
288.00 29.90
289.00 30.00
290.00 30.25
291.00 30.56
292.00 30.96
293.00 31.53
294.00 32.32
295.00 33.31
296.00 34.44
297.00 35.69
298.00 37.06
299.00 38.46
300.00 39.60
301.00 39.91
302.00 39.10
303.00 37.99
304.00 37.55
305.00 38.19
306.00 39.93
307.00 41.91
308.00 41.33
309.00 38.45
310.00 35.74
311.00 33.51
312.00 31.30
313.00 28.88
314.00 26.48
315.00 24.40
316.00 22.81
317.00 21.75
318.00 21.23
319.00 21.25
320.00 21.80
321.00 22.81
322.00 24.21
323.00 25.97
324.00 28.22
325.00 31.10
326.00 33.34
327.00 31.23
328.00 27.72
329.00 25.21
330.00 23.74
331.00 23.16
332.00 23.35
333.00 24.23
334.00 25.77
335.00 28.07
336.00 31.50
337.00 37.20
338.00 53.29
339.00 41.90
340.00 36.25
341.00 33.30
342.00 30.51
343.00 27.54
344.00 24.91
345.00 22.94
346.00 21.69
347.00 21.13
348.00 21.28
349.00 22.22
350.00 24.20
351.00 27.81
352.00 33.70
353.00 32.64
354.00 28.04
355.00 26.46
356.00 28.17
357.00 39.78
358.00 26.78
359.00 18.13
