NAME ATR4518R7_2350_X_CO_M45_02T_yL
FREQUENCY 2350
GAIN 15.48 dBd
TILT	ELECTRICAL
COMMENT DATE 05.08.2013 -45 degrees polarized system Lever position 02T deg
HORIZONTAL 360
0.00 0.05
1.00 0.07
2.00 0.10
3.00 0.14
4.00 0.18
5.00 0.23
6.00 0.28
7.00 0.34
8.00 0.41
9.00 0.48
10.00 0.55
11.00 0.63
12.00 0.71
13.00 0.80
14.00 0.89
15.00 0.98
16.00 1.08
17.00 1.18
18.00 1.29
19.00 1.40
20.00 1.51
21.00 1.63
22.00 1.76
23.00 1.90
24.00 2.04
25.00 2.19
26.00 2.35
27.00 2.51
28.00 2.69
29.00 2.87
30.00 3.06
31.00 3.27
32.00 3.48
33.00 3.70
34.00 3.94
35.00 4.18
36.00 4.43
37.00 4.69
38.00 4.95
39.00 5.23
40.00 5.51
41.00 5.79
42.00 6.08
43.00 6.37
44.00 6.67
45.00 6.96
46.00 7.25
47.00 7.54
48.00 7.83
49.00 8.11
50.00 8.38
51.00 8.64
52.00 8.90
53.00 9.15
54.00 9.38
55.00 9.61
56.00 9.83
57.00 10.04
58.00 10.25
59.00 10.45
60.00 10.66
61.00 10.86
62.00 11.06
63.00 11.26
64.00 11.47
65.00 11.69
66.00 11.91
67.00 12.14
68.00 12.38
69.00 12.63
70.00 12.90
71.00 13.17
72.00 13.45
73.00 13.75
74.00 14.06
75.00 14.37
76.00 14.69
77.00 15.03
78.00 15.37
79.00 15.72
80.00 16.07
81.00 16.43
82.00 16.79
83.00 17.16
84.00 17.54
85.00 17.92
86.00 18.30
87.00 18.69
88.00 19.09
89.00 19.50
90.00 19.92
91.00 20.34
92.00 20.78
93.00 21.22
94.00 21.68
95.00 22.15
96.00 22.62
97.00 23.09
98.00 23.56
99.00 24.03
100.00 24.48
101.00 24.91
102.00 25.31
103.00 25.67
104.00 25.98
105.00 26.24
106.00 26.44
107.00 26.59
108.00 26.69
109.00 26.74
110.00 26.76
111.00 26.75
112.00 26.72
113.00 26.68
114.00 26.64
115.00 26.61
116.00 26.59
117.00 26.60
118.00 26.63
119.00 26.69
120.00 26.79
121.00 26.93
122.00 27.11
123.00 27.33
124.00 27.60
125.00 27.91
126.00 28.25
127.00 28.62
128.00 29.00
129.00 29.39
130.00 29.77
131.00 30.11
132.00 30.42
133.00 30.66
134.00 30.86
135.00 31.00
136.00 31.10
137.00 31.18
138.00 31.25
139.00 31.31
140.00 31.37
141.00 31.42
142.00 31.45
143.00 31.42
144.00 31.31
145.00 31.10
146.00 30.78
147.00 30.38
148.00 29.89
149.00 29.38
150.00 28.86
151.00 28.36
152.00 27.92
153.00 27.55
154.00 27.26
155.00 27.06
156.00 26.96
157.00 26.97
158.00 27.09
159.00 27.32
160.00 27.66
161.00 28.12
162.00 28.70
163.00 29.37
164.00 30.11
165.00 30.88
166.00 31.60
167.00 32.16
168.00 32.46
169.00 32.45
170.00 32.20
171.00 31.79
172.00 31.34
173.00 30.94
174.00 30.62
175.00 30.42
176.00 30.36
177.00 30.43
178.00 30.64
179.00 30.97
180.00 31.40
181.00 31.89
182.00 32.39
183.00 32.79
184.00 33.00
185.00 32.95
186.00 32.66
187.00 32.19
188.00 31.64
189.00 31.10
190.00 30.62
191.00 30.25
192.00 30.00
193.00 29.89
194.00 29.92
195.00 30.08
196.00 30.39
197.00 30.82
198.00 31.36
199.00 31.97
200.00 32.58
201.00 33.09
202.00 33.39
203.00 33.39
204.00 33.10
205.00 32.61
206.00 32.04
207.00 31.47
208.00 30.98
209.00 30.60
210.00 30.36
211.00 30.27
212.00 30.33
213.00 30.56
214.00 30.96
215.00 31.55
216.00 32.34
217.00 33.37
218.00 34.67
219.00 36.26
220.00 38.17
221.00 40.27
222.00 41.97
223.00 42.24
224.00 41.00
225.00 39.32
226.00 37.80
227.00 36.59
228.00 35.69
229.00 35.05
230.00 34.66
231.00 34.48
232.00 34.50
233.00 34.71
234.00 35.11
235.00 35.68
236.00 36.44
237.00 37.37
238.00 38.44
239.00 39.56
240.00 40.51
241.00 40.94
242.00 40.60
243.00 39.59
244.00 38.28
245.00 36.92
246.00 35.66
247.00 34.54
248.00 33.56
249.00 32.71
250.00 32.00
251.00 31.41
252.00 30.94
253.00 30.56
254.00 30.29
255.00 30.10
256.00 29.99
257.00 29.93
258.00 29.91
259.00 29.90
260.00 29.84
261.00 29.70
262.00 29.44
263.00 29.05
264.00 28.51
265.00 27.86
266.00 27.14
267.00 26.38
268.00 25.62
269.00 24.88
270.00 24.18
271.00 23.54
272.00 22.94
273.00 22.40
274.00 21.91
275.00 21.47
276.00 21.07
277.00 20.71
278.00 20.38
279.00 20.07
280.00 19.77
281.00 19.47
282.00 19.17
283.00 18.87
284.00 18.55
285.00 18.20
286.00 17.85
287.00 17.46
288.00 17.07
289.00 16.65
290.00 16.23
291.00 15.79
292.00 15.36
293.00 14.91
294.00 14.48
295.00 14.05
296.00 13.62
297.00 13.20
298.00 12.78
299.00 12.37
300.00 11.96
301.00 11.56
302.00 11.16
303.00 10.76
304.00 10.36
305.00 9.96
306.00 9.56
307.00 9.16
308.00 8.77
309.00 8.37
310.00 7.98
311.00 7.59
312.00 7.21
313.00 6.83
314.00 6.47
315.00 6.12
316.00 5.78
317.00 5.45
318.00 5.13
319.00 4.84
320.00 4.55
321.00 4.28
322.00 4.02
323.00 3.77
324.00 3.54
325.00 3.31
326.00 3.09
327.00 2.89
328.00 2.69
329.00 2.49
330.00 2.31
331.00 2.12
332.00 1.95
333.00 1.78
334.00 1.61
335.00 1.46
336.00 1.31
337.00 1.16
338.00 1.03
339.00 0.90
340.00 0.78
341.00 0.67
342.00 0.57
343.00 0.48
344.00 0.40
345.00 0.33
346.00 0.26
347.00 0.21
348.00 0.16
349.00 0.12
350.00 0.09
351.00 0.06
352.00 0.03
353.00 0.02
354.00 0.01
355.00 0.00
356.00 0.00
357.00 0.00
358.00 0.01
359.00 0.03
VERTICAL 360
0.00 2.67
1.00 0.74
2.00 0.00
3.00 0.39
4.00 2.02
5.00 5.34
6.00 12.01
7.00 27.93
8.00 12.38
9.00 9.18
10.00 9.39
11.00 12.51
12.00 20.76
13.00 22.50
14.00 15.89
15.00 14.54
16.00 15.77
17.00 18.85
18.00 21.55
19.00 19.83
20.00 17.79
21.00 17.73
22.00 20.58
23.00 30.37
24.00 24.46
25.00 18.34
26.00 16.54
27.00 16.89
28.00 18.45
29.00 20.12
30.00 20.74
31.00 20.10
32.00 19.46
33.00 19.77
34.00 20.48
35.00 19.72
36.00 18.29
37.00 18.13
38.00 19.87
39.00 23.92
40.00 30.66
41.00 33.70
42.00 30.40
43.00 28.06
44.00 26.82
45.00 26.85
46.00 28.32
47.00 31.72
48.00 38.17
49.00 36.32
50.00 30.89
51.00 28.69
52.00 28.35
53.00 28.84
54.00 29.49
55.00 30.25
56.00 30.89
57.00 31.25
58.00 31.65
59.00 31.69
60.00 31.01
61.00 30.49
62.00 30.48
63.00 30.44
64.00 29.92
65.00 29.32
66.00 29.46
67.00 30.80
68.00 33.20
69.00 35.54
70.00 37.09
71.00 39.01
72.00 43.60
73.00 61.63
74.00 45.38
75.00 42.80
76.00 46.32
77.00 50.75
78.00 46.58
79.00 47.84
80.00 50.64
81.00 48.53
82.00 50.58
83.00 59.35
84.00 61.15
85.00 53.33
86.00 44.66
87.00 41.62
88.00 42.98
89.00 49.68
90.00 45.81
91.00 41.72
92.00 42.11
93.00 45.00
94.00 44.64
95.00 42.68
96.00 42.71
97.00 43.96
98.00 44.68
99.00 43.88
100.00 42.62
101.00 41.88
102.00 41.41
103.00 41.00
104.00 41.24
105.00 42.37
106.00 43.76
107.00 44.84
108.00 45.56
109.00 45.90
110.00 46.05
111.00 45.27
112.00 43.33
113.00 41.96
114.00 42.29
115.00 45.19
116.00 54.08
117.00 51.95
118.00 44.09
119.00 41.51
120.00 41.74
121.00 43.52
122.00 43.59
123.00 42.93
124.00 43.92
125.00 43.13
126.00 39.55
127.00 36.54
128.00 34.32
129.00 33.06
130.00 33.12
131.00 34.62
132.00 37.51
133.00 41.31
134.00 43.74
135.00 42.46
136.00 40.37
137.00 38.98
138.00 38.20
139.00 37.99
140.00 38.62
141.00 40.13
142.00 40.82
143.00 39.47
144.00 38.51
145.00 37.82
146.00 36.02
147.00 34.67
148.00 35.28
149.00 38.15
150.00 42.42
151.00 47.19
152.00 55.50
153.00 44.60
154.00 41.64
155.00 43.05
156.00 41.72
157.00 37.62
158.00 35.97
159.00 36.06
160.00 36.43
161.00 36.85
162.00 38.39
163.00 41.77
164.00 47.02
165.00 52.47
166.00 50.13
167.00 42.85
168.00 37.02
169.00 33.61
170.00 32.65
171.00 34.08
172.00 36.73
173.00 36.34
174.00 34.05
175.00 31.73
176.00 29.84
177.00 29.27
178.00 30.36
179.00 32.83
180.00 35.72
181.00 37.70
182.00 38.92
183.00 41.40
184.00 43.32
185.00 39.11
186.00 37.37
187.00 39.63
188.00 46.88
189.00 51.00
190.00 49.29
191.00 45.27
192.00 40.85
193.00 37.58
194.00 34.83
195.00 33.80
196.00 35.26
197.00 39.28
198.00 44.36
199.00 44.15
200.00 39.10
201.00 36.24
202.00 35.09
203.00 34.06
204.00 33.99
205.00 36.75
206.00 42.70
207.00 41.32
208.00 38.01
209.00 34.64
210.00 32.48
211.00 32.37
212.00 32.62
213.00 31.75
214.00 31.87
215.00 34.47
216.00 40.13
217.00 48.86
218.00 46.31
219.00 40.14
220.00 37.62
221.00 37.61
222.00 39.29
223.00 42.29
224.00 46.55
225.00 45.02
226.00 41.83
227.00 43.37
228.00 59.98
229.00 43.70
230.00 40.38
231.00 45.28
232.00 46.27
233.00 37.75
234.00 36.76
235.00 41.86
236.00 49.47
237.00 36.92
238.00 33.25
239.00 32.34
240.00 33.46
241.00 36.16
242.00 36.07
243.00 32.60
244.00 30.45
245.00 29.80
246.00 29.96
247.00 30.43
248.00 31.47
249.00 33.66
250.00 37.32
251.00 42.15
252.00 50.82
253.00 44.13
254.00 34.47
255.00 29.70
256.00 27.21
257.00 26.00
258.00 25.26
259.00 24.42
260.00 23.51
261.00 22.87
262.00 22.64
263.00 22.61
264.00 22.38
265.00 21.81
266.00 21.04
267.00 20.21
268.00 19.39
269.00 18.61
270.00 17.99
271.00 17.67
272.00 17.72
273.00 18.01
274.00 18.30
275.00 18.37
276.00 18.22
277.00 18.01
278.00 17.91
279.00 17.96
280.00 18.11
281.00 18.27
282.00 18.39
283.00 18.36
284.00 18.15
285.00 17.89
286.00 17.83
287.00 18.26
288.00 19.35
289.00 21.11
290.00 23.24
291.00 24.85
292.00 25.20
293.00 25.06
294.00 25.74
295.00 28.42
296.00 34.52
297.00 32.37
298.00 26.73
299.00 24.19
300.00 23.26
301.00 23.10
302.00 23.25
303.00 23.94
304.00 26.10
305.00 31.64
306.00 41.82
307.00 31.76
308.00 28.75
309.00 27.48
310.00 25.35
311.00 23.35
312.00 22.97
313.00 25.26
314.00 32.71
315.00 29.04
316.00 22.97
317.00 21.11
318.00 21.86
319.00 25.14
320.00 31.79
321.00 34.08
322.00 27.71
323.00 23.18
324.00 19.72
325.00 17.42
326.00 16.47
327.00 16.94
328.00 18.57
329.00 19.85
330.00 19.13
331.00 17.84
332.00 16.90
333.00 16.17
334.00 15.68
335.00 15.78
336.00 17.04
337.00 20.60
338.00 31.04
339.00 27.59
340.00 21.25
341.00 20.12
342.00 21.93
343.00 27.56
344.00 43.51
345.00 25.13
346.00 20.64
347.00 19.53
348.00 20.85
349.00 23.41
350.00 22.87
351.00 20.71
352.00 20.04
353.00 20.81
354.00 22.09
355.00 23.70
356.00 30.38
357.00 20.78
358.00 11.42
359.00 6.03
