NAME ATR4518R7_1750_X_CO_M45_07T_yL
FREQUENCY 1750
GAIN 14.68 dBd
TILT	ELECTRICAL
COMMENT DATE 05.08.2013 -45 degrees polarized system Lever position 07T deg
HORIZONTAL 360
0.00 0.02
1.00 0.01
2.00 0.00
3.00 0.00
4.00 0.00
5.00 0.01
6.00 0.02
7.00 0.03
8.00 0.06
9.00 0.08
10.00 0.12
11.00 0.15
12.00 0.20
13.00 0.25
14.00 0.31
15.00 0.37
16.00 0.44
17.00 0.51
18.00 0.59
19.00 0.68
20.00 0.77
21.00 0.87
22.00 0.97
23.00 1.08
24.00 1.19
25.00 1.31
26.00 1.43
27.00 1.56
28.00 1.69
29.00 1.82
30.00 1.96
31.00 2.10
32.00 2.25
33.00 2.39
34.00 2.55
35.00 2.70
36.00 2.86
37.00 3.02
38.00 3.18
39.00 3.35
40.00 3.52
41.00 3.69
42.00 3.86
43.00 4.04
44.00 4.22
45.00 4.41
46.00 4.59
47.00 4.78
48.00 4.97
49.00 5.17
50.00 5.37
51.00 5.57
52.00 5.77
53.00 5.98
54.00 6.20
55.00 6.41
56.00 6.64
57.00 6.87
58.00 7.10
59.00 7.34
60.00 7.58
61.00 7.83
62.00 8.09
63.00 8.35
64.00 8.62
65.00 8.90
66.00 9.19
67.00 9.48
68.00 9.78
69.00 10.09
70.00 10.41
71.00 10.74
72.00 11.07
73.00 11.41
74.00 11.76
75.00 12.11
76.00 12.47
77.00 12.82
78.00 13.18
79.00 13.55
80.00 13.91
81.00 14.27
82.00 14.62
83.00 14.97
84.00 15.31
85.00 15.64
86.00 15.96
87.00 16.28
88.00 16.58
89.00 16.87
90.00 17.15
91.00 17.42
92.00 17.69
93.00 17.95
94.00 18.21
95.00 18.46
96.00 18.71
97.00 18.97
98.00 19.22
99.00 19.48
100.00 19.73
101.00 19.99
102.00 20.25
103.00 20.51
104.00 20.76
105.00 21.00
106.00 21.24
107.00 21.47
108.00 21.67
109.00 21.87
110.00 22.04
111.00 22.20
112.00 22.35
113.00 22.48
114.00 22.60
115.00 22.72
116.00 22.83
117.00 22.96
118.00 23.08
119.00 23.23
120.00 23.38
121.00 23.55
122.00 23.73
123.00 23.92
124.00 24.11
125.00 24.30
126.00 24.48
127.00 24.64
128.00 24.76
129.00 24.85
130.00 24.89
131.00 24.89
132.00 24.84
133.00 24.76
134.00 24.66
135.00 24.54
136.00 24.42
137.00 24.32
138.00 24.25
139.00 24.21
140.00 24.21
141.00 24.26
142.00 24.36
143.00 24.52
144.00 24.74
145.00 25.01
146.00 25.34
147.00 25.72
148.00 26.14
149.00 26.57
150.00 27.00
151.00 27.40
152.00 27.72
153.00 27.93
154.00 28.01
155.00 27.97
156.00 27.81
157.00 27.57
158.00 27.29
159.00 27.00
160.00 26.73
161.00 26.51
162.00 26.35
163.00 26.26
164.00 26.25
165.00 26.33
166.00 26.50
167.00 26.75
168.00 27.09
169.00 27.50
170.00 27.98
171.00 28.50
172.00 29.03
173.00 29.48
174.00 29.81
175.00 29.93
176.00 29.82
177.00 29.48
178.00 28.98
179.00 28.40
180.00 27.80
181.00 27.23
182.00 26.71
183.00 26.28
184.00 25.93
185.00 25.67
186.00 25.52
187.00 25.46
188.00 25.51
189.00 25.67
190.00 25.94
191.00 26.33
192.00 26.86
193.00 27.53
194.00 28.36
195.00 29.39
196.00 30.63
197.00 32.14
198.00 33.90
199.00 35.83
200.00 37.43
201.00 37.73
202.00 36.49
203.00 34.65
204.00 32.87
205.00 31.34
206.00 30.08
207.00 29.05
208.00 28.21
209.00 27.55
210.00 27.04
211.00 26.68
212.00 26.43
213.00 26.31
214.00 26.31
215.00 26.43
216.00 26.67
217.00 27.05
218.00 27.56
219.00 28.25
220.00 29.12
221.00 30.22
222.00 31.61
223.00 33.38
224.00 35.61
225.00 38.23
226.00 40.10
227.00 38.98
228.00 36.16
229.00 33.50
230.00 31.31
231.00 29.52
232.00 28.05
233.00 26.82
234.00 25.78
235.00 24.91
236.00 24.17
237.00 23.54
238.00 23.01
239.00 22.57
240.00 22.22
241.00 21.94
242.00 21.72
243.00 21.57
244.00 21.47
245.00 21.42
246.00 21.41
247.00 21.43
248.00 21.48
249.00 21.54
250.00 21.61
251.00 21.66
252.00 21.69
253.00 21.69
254.00 21.64
255.00 21.53
256.00 21.37
257.00 21.16
258.00 20.89
259.00 20.59
260.00 20.25
261.00 19.90
262.00 19.54
263.00 19.17
264.00 18.81
265.00 18.46
266.00 18.12
267.00 17.79
268.00 17.47
269.00 17.17
270.00 16.87
271.00 16.58
272.00 16.30
273.00 16.01
274.00 15.73
275.00 15.45
276.00 15.16
277.00 14.86
278.00 14.56
279.00 14.25
280.00 13.93
281.00 13.60
282.00 13.26
283.00 12.92
284.00 12.57
285.00 12.22
286.00 11.87
287.00 11.53
288.00 11.18
289.00 10.83
290.00 10.50
291.00 10.17
292.00 9.85
293.00 9.53
294.00 9.23
295.00 8.93
296.00 8.64
297.00 8.37
298.00 8.10
299.00 7.85
300.00 7.60
301.00 7.36
302.00 7.13
303.00 6.91
304.00 6.70
305.00 6.49
306.00 6.29
307.00 6.10
308.00 5.91
309.00 5.73
310.00 5.56
311.00 5.38
312.00 5.22
313.00 5.06
314.00 4.90
315.00 4.75
316.00 4.60
317.00 4.45
318.00 4.31
319.00 4.17
320.00 4.04
321.00 3.90
322.00 3.77
323.00 3.64
324.00 3.51
325.00 3.38
326.00 3.26
327.00 3.13
328.00 2.99
329.00 2.86
330.00 2.73
331.00 2.60
332.00 2.46
333.00 2.33
334.00 2.19
335.00 2.06
336.00 1.92
337.00 1.79
338.00 1.65
339.00 1.53
340.00 1.40
341.00 1.28
342.00 1.16
343.00 1.05
344.00 0.94
345.00 0.84
346.00 0.74
347.00 0.65
348.00 0.57
349.00 0.49
350.00 0.42
351.00 0.36
352.00 0.30
353.00 0.25
354.00 0.20
355.00 0.16
356.00 0.12
357.00 0.09
358.00 0.06
359.00 0.04
VERTICAL 360
0.00 21.69
1.00 13.88
2.00 8.85
3.00 5.37
4.00 2.93
5.00 1.30
6.00 0.35
7.00 0.00
8.00 0.24
9.00 1.11
10.00 2.70
11.00 5.26
12.00 9.28
13.00 16.14
14.00 22.33
15.00 15.69
16.00 12.95
17.00 12.47
18.00 13.60
19.00 16.37
20.00 21.50
21.00 26.15
22.00 20.88
23.00 17.56
24.00 16.42
25.00 16.97
26.00 19.25
27.00 23.88
28.00 28.65
29.00 23.91
30.00 20.41
31.00 18.94
32.00 18.84
33.00 19.98
34.00 22.74
35.00 28.97
36.00 39.48
37.00 25.56
38.00 20.93
39.00 18.78
40.00 18.05
41.00 18.35
42.00 19.51
43.00 21.44
44.00 24.01
45.00 26.39
46.00 26.38
47.00 24.28
48.00 22.17
49.00 20.57
50.00 19.41
51.00 18.57
52.00 18.00
53.00 17.70
54.00 17.67
55.00 17.91
56.00 18.40
57.00 19.12
58.00 20.09
59.00 21.33
60.00 22.85
61.00 24.55
62.00 26.31
63.00 28.11
64.00 30.19
65.00 33.04
66.00 37.59
67.00 46.54
68.00 49.47
69.00 42.20
70.00 39.69
71.00 38.46
72.00 37.40
73.00 36.29
74.00 35.45
75.00 35.15
76.00 35.49
77.00 36.32
78.00 37.49
79.00 39.17
80.00 41.87
81.00 46.30
82.00 52.91
83.00 52.25
84.00 46.29
85.00 41.39
86.00 37.53
87.00 35.02
88.00 34.13
89.00 35.10
90.00 37.76
91.00 38.46
92.00 36.12
93.00 35.44
94.00 37.32
95.00 39.44
96.00 36.53
97.00 33.80
98.00 32.83
99.00 32.97
100.00 33.59
101.00 34.57
102.00 36.10
103.00 37.77
104.00 38.20
105.00 37.45
106.00 36.86
107.00 37.10
108.00 38.45
109.00 41.25
110.00 45.91
111.00 52.63
112.00 59.53
113.00 55.13
114.00 49.88
115.00 47.09
116.00 45.03
117.00 42.77
118.00 41.06
119.00 40.57
120.00 41.45
121.00 43.68
122.00 46.76
123.00 47.42
124.00 44.65
125.00 42.39
126.00 41.24
127.00 40.53
128.00 39.67
129.00 38.96
130.00 38.82
131.00 39.09
132.00 39.22
133.00 39.12
134.00 39.21
135.00 39.65
136.00 40.41
137.00 41.84
138.00 44.54
139.00 47.80
140.00 46.74
141.00 44.10
142.00 42.72
143.00 42.20
144.00 42.20
145.00 42.78
146.00 44.11
147.00 46.28
148.00 49.96
149.00 59.63
150.00 54.53
151.00 46.05
152.00 42.00
153.00 39.67
154.00 38.20
155.00 36.98
156.00 35.60
157.00 34.16
158.00 33.03
159.00 32.43
160.00 32.41
161.00 32.80
162.00 33.33
163.00 33.72
164.00 33.91
165.00 34.13
166.00 34.60
167.00 34.95
168.00 34.13
169.00 32.13
170.00 29.99
171.00 28.23
172.00 26.92
173.00 26.09
174.00 25.82
175.00 26.19
176.00 27.26
177.00 29.08
178.00 31.67
179.00 35.10
180.00 39.49
181.00 42.48
182.00 39.61
183.00 36.86
184.00 35.80
185.00 35.56
186.00 34.44
187.00 32.33
188.00 30.64
189.00 29.96
190.00 30.31
191.00 31.59
192.00 33.55
193.00 35.38
194.00 35.35
195.00 33.67
196.00 32.14
197.00 31.53
198.00 32.05
199.00 33.81
200.00 36.37
201.00 37.28
202.00 35.71
203.00 34.49
204.00 34.59
205.00 36.18
206.00 39.47
207.00 44.10
208.00 44.91
209.00 41.95
210.00 38.40
211.00 34.47
212.00 31.16
213.00 28.84
214.00 27.47
215.00 26.89
216.00 26.90
217.00 27.27
218.00 27.76
219.00 28.25
220.00 28.82
221.00 29.68
222.00 31.12
223.00 33.41
224.00 36.83
225.00 41.04
226.00 42.68
227.00 41.63
228.00 41.78
229.00 44.24
230.00 50.18
231.00 53.35
232.00 47.46
233.00 44.89
234.00 43.64
235.00 42.29
236.00 40.77
237.00 39.71
238.00 39.48
239.00 40.16
240.00 41.67
241.00 43.79
242.00 45.97
243.00 47.09
244.00 46.46
245.00 45.11
246.00 44.06
247.00 43.43
248.00 42.88
249.00 42.18
250.00 41.67
251.00 41.95
252.00 43.65
253.00 47.61
254.00 54.95
255.00 53.36
256.00 49.22
257.00 47.75
258.00 46.82
259.00 44.48
260.00 41.27
261.00 38.89
262.00 37.96
263.00 38.65
264.00 41.18
265.00 45.69
266.00 50.93
267.00 51.10
268.00 47.88
269.00 45.37
270.00 44.82
271.00 46.78
272.00 51.92
273.00 57.87
274.00 56.83
275.00 50.12
276.00 42.57
277.00 37.47
278.00 34.05
279.00 31.79
280.00 30.38
281.00 29.59
282.00 29.17
283.00 28.87
284.00 28.51
285.00 28.15
286.00 27.99
287.00 28.19
288.00 28.76
289.00 29.55
290.00 30.29
291.00 30.76
292.00 30.95
293.00 30.83
294.00 30.19
295.00 28.90
296.00 27.27
297.00 25.74
298.00 24.52
299.00 23.60
300.00 22.91
301.00 22.40
302.00 22.12
303.00 22.22
304.00 22.86
305.00 24.15
306.00 26.10
307.00 28.00
308.00 27.68
309.00 25.13
310.00 22.47
311.00 20.39
312.00 18.94
313.00 18.10
314.00 17.87
315.00 18.25
316.00 19.32
317.00 21.20
318.00 23.97
319.00 26.39
320.00 24.69
321.00 21.29
322.00 18.75
323.00 17.19
324.00 16.49
325.00 16.61
326.00 17.55
327.00 19.44
328.00 22.54
329.00 27.28
330.00 31.57
331.00 28.97
332.00 26.52
333.00 26.06
334.00 27.63
335.00 32.09
336.00 38.58
337.00 30.87
338.00 26.31
339.00 24.16
340.00 23.39
341.00 23.50
342.00 24.02
343.00 24.28
344.00 23.97
345.00 23.50
346.00 23.50
347.00 24.08
348.00 24.46
349.00 23.21
350.00 21.02
351.00 19.37
352.00 18.80
353.00 19.50
354.00 21.87
355.00 26.86
356.00 33.92
357.00 29.21
358.00 28.06
359.00 31.79
