NAME ATR4518R7_1880_X_CO_P45_10T_yL
FREQUENCY 1880
GAIN 14.37 dBd
TILT	ELECTRICAL
COMMENT DATE 05.08.2013 +45 degrees polarized system Lever position 10T deg
HORIZONTAL 360
0.00 0.08
1.00 0.06
2.00 0.05
3.00 0.04
4.00 0.03
5.00 0.02
6.00 0.01
7.00 0.01
8.00 0.00
9.00 0.01
10.00 0.01
11.00 0.03
12.00 0.04
13.00 0.06
14.00 0.09
15.00 0.13
16.00 0.17
17.00 0.21
18.00 0.27
19.00 0.33
20.00 0.40
21.00 0.48
22.00 0.57
23.00 0.66
24.00 0.76
25.00 0.86
26.00 0.98
27.00 1.10
28.00 1.23
29.00 1.37
30.00 1.51
31.00 1.67
32.00 1.83
33.00 1.99
34.00 2.17
35.00 2.35
36.00 2.54
37.00 2.73
38.00 2.94
39.00 3.15
40.00 3.36
41.00 3.59
42.00 3.82
43.00 4.05
44.00 4.29
45.00 4.54
46.00 4.79
47.00 5.05
48.00 5.31
49.00 5.57
50.00 5.84
51.00 6.10
52.00 6.38
53.00 6.65
54.00 6.93
55.00 7.20
56.00 7.48
57.00 7.76
58.00 8.04
59.00 8.32
60.00 8.59
61.00 8.87
62.00 9.15
63.00 9.43
64.00 9.71
65.00 9.99
66.00 10.27
67.00 10.55
68.00 10.84
69.00 11.12
70.00 11.40
71.00 11.69
72.00 11.98
73.00 12.27
74.00 12.56
75.00 12.85
76.00 13.14
77.00 13.44
78.00 13.74
79.00 14.04
80.00 14.34
81.00 14.65
82.00 14.97
83.00 15.29
84.00 15.61
85.00 15.95
86.00 16.29
87.00 16.65
88.00 17.02
89.00 17.41
90.00 17.81
91.00 18.23
92.00 18.68
93.00 19.15
94.00 19.65
95.00 20.17
96.00 20.73
97.00 21.33
98.00 21.96
99.00 22.64
100.00 23.36
101.00 24.12
102.00 24.92
103.00 25.77
104.00 26.65
105.00 27.56
106.00 28.48
107.00 29.39
108.00 30.25
109.00 31.02
110.00 31.67
111.00 32.16
112.00 32.50
113.00 32.71
114.00 32.81
115.00 32.86
116.00 32.89
117.00 32.93
118.00 33.02
119.00 33.16
120.00 33.37
121.00 33.65
122.00 34.00
123.00 34.41
124.00 34.88
125.00 35.39
126.00 35.90
127.00 36.39
128.00 36.81
129.00 37.09
130.00 37.21
131.00 37.16
132.00 36.94
133.00 36.61
134.00 36.21
135.00 35.77
136.00 35.34
137.00 34.93
138.00 34.56
139.00 34.23
140.00 33.96
141.00 33.73
142.00 33.55
143.00 33.41
144.00 33.32
145.00 33.27
146.00 33.26
147.00 33.28
148.00 33.34
149.00 33.43
150.00 33.56
151.00 33.72
152.00 33.92
153.00 34.15
154.00 34.41
155.00 34.71
156.00 35.06
157.00 35.44
158.00 35.87
159.00 36.35
160.00 36.87
161.00 37.44
162.00 38.05
163.00 38.68
164.00 39.31
165.00 39.91
166.00 40.41
167.00 40.73
168.00 40.81
169.00 40.61
170.00 40.15
171.00 39.50
172.00 38.76
173.00 37.97
174.00 37.20
175.00 36.47
176.00 35.81
177.00 35.21
178.00 34.70
179.00 34.27
180.00 33.93
181.00 33.67
182.00 33.50
183.00 33.42
184.00 33.44
185.00 33.55
186.00 33.77
187.00 34.10
188.00 34.55
189.00 35.14
190.00 35.87
191.00 36.77
192.00 37.87
193.00 39.16
194.00 40.65
195.00 42.23
196.00 43.56
197.00 44.02
198.00 43.32
199.00 41.93
200.00 40.40
201.00 39.01
202.00 37.83
203.00 36.85
204.00 36.08
205.00 35.47
206.00 35.02
207.00 34.71
208.00 34.55
209.00 34.51
210.00 34.61
211.00 34.84
212.00 35.19
213.00 35.67
214.00 36.30
215.00 37.04
216.00 37.89
217.00 38.80
218.00 39.64
219.00 40.23
220.00 40.35
221.00 39.91
222.00 39.04
223.00 37.96
224.00 36.83
225.00 35.75
226.00 34.77
227.00 33.90
228.00 33.13
229.00 32.46
230.00 31.88
231.00 31.39
232.00 30.97
233.00 30.62
234.00 30.34
235.00 30.11
236.00 29.93
237.00 29.81
238.00 29.72
239.00 29.68
240.00 29.67
241.00 29.69
242.00 29.73
243.00 29.78
244.00 29.85
245.00 29.92
246.00 29.97
247.00 30.00
248.00 30.00
249.00 29.94
250.00 29.83
251.00 29.66
252.00 29.40
253.00 29.08
254.00 28.68
255.00 28.23
256.00 27.73
257.00 27.19
258.00 26.63
259.00 26.05
260.00 25.47
261.00 24.89
262.00 24.33
263.00 23.77
264.00 23.23
265.00 22.71
266.00 22.21
267.00 21.74
268.00 21.28
269.00 20.84
270.00 20.42
271.00 20.02
272.00 19.64
273.00 19.28
274.00 18.93
275.00 18.59
276.00 18.26
277.00 17.94
278.00 17.63
279.00 17.33
280.00 17.03
281.00 16.73
282.00 16.44
283.00 16.15
284.00 15.86
285.00 15.57
286.00 15.28
287.00 14.99
288.00 14.71
289.00 14.43
290.00 14.15
291.00 13.88
292.00 13.61
293.00 13.35
294.00 13.09
295.00 12.85
296.00 12.61
297.00 12.38
298.00 12.16
299.00 11.94
300.00 11.74
301.00 11.53
302.00 11.34
303.00 11.15
304.00 10.96
305.00 10.76
306.00 10.57
307.00 10.37
308.00 10.17
309.00 9.95
310.00 9.73
311.00 9.50
312.00 9.25
313.00 8.99
314.00 8.72
315.00 8.44
316.00 8.15
317.00 7.84
318.00 7.53
319.00 7.22
320.00 6.90
321.00 6.57
322.00 6.24
323.00 5.92
324.00 5.60
325.00 5.28
326.00 4.96
327.00 4.65
328.00 4.35
329.00 4.06
330.00 3.77
331.00 3.50
332.00 3.23
333.00 2.98
334.00 2.73
335.00 2.50
336.00 2.27
337.00 2.06
338.00 1.86
339.00 1.68
340.00 1.50
341.00 1.34
342.00 1.19
343.00 1.05
344.00 0.93
345.00 0.81
346.00 0.71
347.00 0.62
348.00 0.53
349.00 0.46
350.00 0.40
351.00 0.34
352.00 0.29
353.00 0.25
354.00 0.22
355.00 0.18
356.00 0.16
357.00 0.13
358.00 0.11
359.00 0.09
VERTICAL 360
0.00 22.48
1.00 24.86
2.00 34.33
3.00 20.03
4.00 12.24
5.00 7.46
6.00 4.24
7.00 2.08
8.00 0.74
9.00 0.09
10.00 0.09
11.00 0.76
12.00 2.23
13.00 4.76
14.00 8.95
15.00 16.82
16.00 24.20
17.00 15.25
18.00 12.74
19.00 12.71
20.00 14.42
21.00 18.10
22.00 25.24
23.00 26.19
24.00 19.67
25.00 16.81
26.00 16.03
27.00 16.96
28.00 19.75
29.00 23.57
30.00 21.81
31.00 18.21
32.00 16.34
33.00 15.89
34.00 16.50
35.00 17.92
36.00 20.16
37.00 23.79
38.00 29.62
39.00 27.42
40.00 22.00
41.00 19.21
42.00 18.13
43.00 18.27
44.00 19.31
45.00 20.89
46.00 22.50
47.00 23.64
48.00 24.22
49.00 24.63
50.00 25.45
51.00 27.09
52.00 29.62
53.00 32.29
54.00 33.65
55.00 34.11
56.00 34.50
57.00 34.51
58.00 34.35
59.00 34.78
60.00 35.98
61.00 37.27
62.00 37.78
63.00 37.72
64.00 37.74
65.00 38.01
66.00 38.55
67.00 39.54
68.00 41.33
69.00 44.53
70.00 50.25
71.00 55.28
72.00 50.35
73.00 47.60
74.00 46.14
75.00 44.53
76.00 42.26
77.00 39.72
78.00 37.55
79.00 36.18
80.00 35.72
81.00 36.05
82.00 36.73
83.00 37.02
84.00 36.25
85.00 34.81
86.00 33.83
87.00 34.11
88.00 36.34
89.00 41.69
90.00 51.86
91.00 48.20
92.00 50.94
93.00 52.34
94.00 40.77
95.00 36.60
96.00 35.15
97.00 35.27
98.00 36.20
99.00 37.10
100.00 37.35
101.00 37.04
102.00 36.72
103.00 36.79
104.00 37.26
105.00 37.95
106.00 38.78
107.00 39.85
108.00 41.15
109.00 42.39
110.00 43.18
111.00 43.15
112.00 42.08
113.00 40.16
114.00 38.02
115.00 36.23
116.00 34.97
117.00 34.18
118.00 33.62
119.00 33.01
120.00 32.24
121.00 31.44
122.00 30.94
123.00 30.98
124.00 31.60
125.00 32.62
126.00 33.64
127.00 34.45
128.00 35.33
129.00 36.69
130.00 38.59
131.00 40.54
132.00 41.87
133.00 42.78
134.00 43.86
135.00 44.69
136.00 44.17
137.00 43.03
138.00 42.81
139.00 44.44
140.00 49.29
141.00 68.72
142.00 52.08
143.00 47.71
144.00 46.92
145.00 47.92
146.00 50.39
147.00 56.58
148.00 61.90
149.00 48.94
150.00 44.42
151.00 42.70
152.00 42.22
153.00 41.47
154.00 40.64
155.00 41.62
156.00 46.46
157.00 44.93
158.00 38.30
159.00 35.52
160.00 35.00
161.00 35.49
162.00 35.45
163.00 34.90
164.00 35.12
165.00 36.58
166.00 38.88
167.00 40.44
168.00 39.52
169.00 37.11
170.00 35.11
171.00 34.35
172.00 35.23
173.00 38.34
174.00 45.90
175.00 51.24
176.00 43.06
177.00 41.80
178.00 44.27
179.00 50.24
180.00 53.03
181.00 54.60
182.00 46.80
183.00 39.31
184.00 35.58
185.00 34.30
186.00 34.95
187.00 36.83
188.00 37.88
189.00 37.42
190.00 37.49
191.00 37.89
192.00 36.78
193.00 35.54
194.00 36.30
195.00 41.20
196.00 51.28
197.00 37.67
198.00 33.53
199.00 32.30
200.00 32.80
201.00 34.48
202.00 36.82
203.00 38.95
204.00 38.45
205.00 35.33
206.00 32.62
207.00 31.21
208.00 31.12
209.00 32.22
210.00 34.14
211.00 35.81
212.00 36.23
213.00 35.98
214.00 35.66
215.00 35.15
216.00 34.42
217.00 33.72
218.00 33.34
219.00 33.47
220.00 34.38
221.00 36.56
222.00 40.89
223.00 43.27
224.00 37.72
225.00 34.33
226.00 33.17
227.00 33.90
228.00 36.68
229.00 41.87
230.00 41.86
231.00 36.75
232.00 33.64
233.00 31.95
234.00 31.35
235.00 31.84
236.00 33.62
237.00 37.23
238.00 44.76
239.00 54.16
240.00 42.77
241.00 39.63
242.00 38.75
243.00 38.81
244.00 38.79
245.00 37.99
246.00 36.67
247.00 35.51
248.00 34.81
249.00 34.49
250.00 34.29
251.00 34.00
252.00 33.68
253.00 33.58
254.00 33.82
255.00 34.16
256.00 34.06
257.00 33.36
258.00 32.61
259.00 32.31
260.00 32.55
261.00 33.20
262.00 33.92
263.00 34.32
264.00 34.29
265.00 33.97
266.00 33.39
267.00 32.44
268.00 31.14
269.00 29.71
270.00 28.49
271.00 27.70
272.00 27.49
273.00 27.82
274.00 28.59
275.00 29.55
276.00 30.13
277.00 29.57
278.00 28.13
279.00 26.71
280.00 25.69
281.00 24.94
282.00 24.31
283.00 23.67
284.00 23.03
285.00 22.39
286.00 21.84
287.00 21.44
288.00 21.27
289.00 21.40
290.00 21.90
291.00 22.86
292.00 24.43
293.00 26.82
294.00 30.40
295.00 36.37
296.00 59.45
297.00 37.93
298.00 31.56
299.00 28.11
300.00 26.15
301.00 25.28
302.00 25.29
303.00 25.96
304.00 27.06
305.00 28.55
306.00 30.66
307.00 31.49
308.00 27.80
309.00 23.83
310.00 21.20
311.00 19.73
312.00 19.23
313.00 19.55
314.00 20.73
315.00 23.06
316.00 27.60
317.00 36.97
318.00 29.20
319.00 23.64
320.00 20.99
321.00 19.87
322.00 19.86
323.00 21.03
324.00 24.10
325.00 31.27
326.00 27.12
327.00 20.27
328.00 16.77
329.00 15.03
330.00 14.49
331.00 14.93
332.00 16.21
333.00 18.27
334.00 21.11
335.00 24.84
336.00 29.45
337.00 34.00
338.00 37.70
339.00 36.42
340.00 29.35
341.00 24.79
342.00 22.47
343.00 22.02
344.00 23.61
345.00 28.73
346.00 34.39
347.00 23.79
348.00 18.96
349.00 16.62
350.00 16.00
351.00 17.06
352.00 20.34
353.00 28.20
354.00 30.41
355.00 22.88
356.00 20.53
357.00 20.34
358.00 21.17
359.00 21.94
