NAME ATR4518R7_1750_X_CO_P45_02T_yL
FREQUENCY 1750
GAIN 15.02 dBd
TILT	ELECTRICAL
COMMENT DATE 05.08.2013 +45 degrees polarized system Lever position 02T deg
HORIZONTAL 360
0.00 0.01
1.00 0.01
2.00 0.00
3.00 0.01
4.00 0.02
5.00 0.04
6.00 0.07
7.00 0.10
8.00 0.14
9.00 0.19
10.00 0.24
11.00 0.29
12.00 0.36
13.00 0.43
14.00 0.50
15.00 0.57
16.00 0.65
17.00 0.74
18.00 0.82
19.00 0.91
20.00 1.00
21.00 1.10
22.00 1.20
23.00 1.30
24.00 1.40
25.00 1.51
26.00 1.62
27.00 1.74
28.00 1.86
29.00 1.99
30.00 2.12
31.00 2.25
32.00 2.39
33.00 2.54
34.00 2.69
35.00 2.85
36.00 3.01
37.00 3.19
38.00 3.36
39.00 3.55
40.00 3.74
41.00 3.93
42.00 4.13
43.00 4.34
44.00 4.55
45.00 4.77
46.00 4.99
47.00 5.21
48.00 5.44
49.00 5.68
50.00 5.92
51.00 6.16
52.00 6.41
53.00 6.66
54.00 6.91
55.00 7.17
56.00 7.43
57.00 7.70
58.00 7.97
59.00 8.24
60.00 8.52
61.00 8.81
62.00 9.10
63.00 9.39
64.00 9.70
65.00 10.01
66.00 10.33
67.00 10.65
68.00 10.99
69.00 11.33
70.00 11.68
71.00 12.04
72.00 12.40
73.00 12.78
74.00 13.16
75.00 13.54
76.00 13.94
77.00 14.34
78.00 14.74
79.00 15.15
80.00 15.56
81.00 15.97
82.00 16.38
83.00 16.78
84.00 17.18
85.00 17.57
86.00 17.95
87.00 18.33
88.00 18.69
89.00 19.04
90.00 19.38
91.00 19.71
92.00 20.02
93.00 20.33
94.00 20.64
95.00 20.94
96.00 21.23
97.00 21.53
98.00 21.83
99.00 22.13
100.00 22.44
101.00 22.75
102.00 23.06
103.00 23.38
104.00 23.70
105.00 24.02
106.00 24.34
107.00 24.65
108.00 24.95
109.00 25.24
110.00 25.52
111.00 25.79
112.00 26.04
113.00 26.30
114.00 26.55
115.00 26.80
116.00 27.06
117.00 27.34
118.00 27.63
119.00 27.96
120.00 28.31
121.00 28.68
122.00 29.08
123.00 29.50
124.00 29.91
125.00 30.29
126.00 30.62
127.00 30.87
128.00 30.99
129.00 30.99
130.00 30.85
131.00 30.60
132.00 30.28
133.00 29.92
134.00 29.54
135.00 29.19
136.00 28.88
137.00 28.63
138.00 28.44
139.00 28.32
140.00 28.30
141.00 28.35
142.00 28.50
143.00 28.75
144.00 29.10
145.00 29.56
146.00 30.14
147.00 30.86
148.00 31.72
149.00 32.75
150.00 33.96
151.00 35.35
152.00 36.89
153.00 38.46
154.00 39.74
155.00 40.23
156.00 39.77
157.00 38.73
158.00 37.56
159.00 36.50
160.00 35.62
161.00 34.95
162.00 34.48
163.00 34.19
164.00 34.08
165.00 34.15
166.00 34.39
167.00 34.82
168.00 35.43
169.00 36.26
170.00 37.31
171.00 38.60
172.00 40.09
173.00 41.61
174.00 42.68
175.00 42.64
176.00 41.53
177.00 39.97
178.00 38.43
179.00 37.09
180.00 35.97
181.00 35.07
182.00 34.37
183.00 33.84
184.00 33.47
185.00 33.25
186.00 33.18
187.00 33.25
188.00 33.47
189.00 33.84
190.00 34.37
191.00 35.07
192.00 35.97
193.00 37.11
194.00 38.52
195.00 40.26
196.00 42.34
197.00 44.51
198.00 45.70
199.00 44.76
200.00 42.64
201.00 40.49
202.00 38.67
203.00 37.17
204.00 35.95
205.00 34.94
206.00 34.12
207.00 33.46
208.00 32.93
209.00 32.53
210.00 32.23
211.00 32.03
212.00 31.93
213.00 31.93
214.00 32.02
215.00 32.21
216.00 32.51
217.00 32.91
218.00 33.44
219.00 34.12
220.00 34.95
221.00 35.99
222.00 37.27
223.00 38.86
224.00 40.78
225.00 42.95
226.00 44.62
227.00 44.27
228.00 42.17
229.00 39.77
230.00 37.65
231.00 35.87
232.00 34.39
233.00 33.14
234.00 32.08
235.00 31.18
236.00 30.41
237.00 29.76
238.00 29.21
239.00 28.74
240.00 28.35
241.00 28.03
242.00 27.77
243.00 27.56
244.00 27.40
245.00 27.26
246.00 27.15
247.00 27.05
248.00 26.95
249.00 26.83
250.00 26.70
251.00 26.54
252.00 26.34
253.00 26.10
254.00 25.83
255.00 25.51
256.00 25.16
257.00 24.80
258.00 24.41
259.00 24.01
260.00 23.60
261.00 23.19
262.00 22.78
263.00 22.38
264.00 21.98
265.00 21.59
266.00 21.21
267.00 20.83
268.00 20.46
269.00 20.09
270.00 19.73
271.00 19.37
272.00 19.01
273.00 18.65
274.00 18.30
275.00 17.94
276.00 17.59
277.00 17.23
278.00 16.88
279.00 16.53
280.00 16.18
281.00 15.83
282.00 15.48
283.00 15.14
284.00 14.80
285.00 14.47
286.00 14.14
287.00 13.82
288.00 13.49
289.00 13.18
290.00 12.87
291.00 12.56
292.00 12.26
293.00 11.96
294.00 11.66
295.00 11.37
296.00 11.08
297.00 10.79
298.00 10.51
299.00 10.23
300.00 9.96
301.00 9.68
302.00 9.41
303.00 9.14
304.00 8.87
305.00 8.61
306.00 8.35
307.00 8.09
308.00 7.84
309.00 7.59
310.00 7.34
311.00 7.10
312.00 6.87
313.00 6.63
314.00 6.40
315.00 6.18
316.00 5.96
317.00 5.74
318.00 5.52
319.00 5.31
320.00 5.10
321.00 4.89
322.00 4.68
323.00 4.48
324.00 4.28
325.00 4.08
326.00 3.89
327.00 3.69
328.00 3.50
329.00 3.32
330.00 3.13
331.00 2.95
332.00 2.77
333.00 2.60
334.00 2.43
335.00 2.27
336.00 2.11
337.00 1.96
338.00 1.81
339.00 1.67
340.00 1.53
341.00 1.40
342.00 1.28
343.00 1.16
344.00 1.05
345.00 0.94
346.00 0.84
347.00 0.74
348.00 0.65
349.00 0.56
350.00 0.48
351.00 0.41
352.00 0.34
353.00 0.27
354.00 0.22
355.00 0.17
356.00 0.12
357.00 0.09
358.00 0.06
359.00 0.03
VERTICAL 360
0.00 1.80
1.00 0.56
2.00 0.02
3.00 0.15
4.00 0.98
5.00 2.62
6.00 5.34
7.00 9.88
8.00 19.10
9.00 21.50
10.00 13.72
11.00 11.35
12.00 11.19
13.00 12.74
14.00 16.50
15.00 25.77
16.00 25.53
17.00 17.58
18.00 14.76
19.00 13.99
20.00 14.60
21.00 16.40
22.00 18.86
23.00 19.44
24.00 17.57
25.00 16.11
26.00 15.88
27.00 16.81
28.00 18.84
29.00 22.14
30.00 25.25
31.00 21.95
32.00 17.95
33.00 15.77
34.00 15.01
35.00 15.24
36.00 16.00
37.00 16.94
38.00 18.13
39.00 20.04
40.00 23.24
41.00 28.38
42.00 35.19
43.00 36.32
44.00 33.19
45.00 29.78
46.00 27.20
47.00 25.61
48.00 24.47
49.00 23.26
50.00 22.01
51.00 21.10
52.00 20.77
53.00 20.98
54.00 21.54
55.00 22.32
56.00 23.33
57.00 24.73
58.00 26.68
59.00 29.23
60.00 31.92
61.00 33.42
62.00 32.84
63.00 31.45
64.00 30.56
65.00 30.43
66.00 30.74
67.00 31.14
68.00 31.46
69.00 31.74
70.00 32.25
71.00 33.20
72.00 34.44
73.00 35.85
74.00 37.53
75.00 39.04
76.00 40.24
77.00 42.58
78.00 47.29
79.00 52.77
80.00 53.37
81.00 45.21
82.00 39.76
83.00 37.32
84.00 36.96
85.00 37.83
86.00 38.93
87.00 39.93
88.00 40.56
89.00 38.93
90.00 36.56
91.00 35.63
92.00 36.58
93.00 39.44
94.00 43.78
95.00 46.08
96.00 43.74
97.00 41.08
98.00 39.64
99.00 39.82
100.00 41.78
101.00 45.52
102.00 50.24
103.00 53.52
104.00 52.09
105.00 50.89
106.00 54.93
107.00 54.76
108.00 46.62
109.00 43.85
110.00 43.85
111.00 45.24
112.00 46.23
113.00 45.56
114.00 44.13
115.00 43.39
116.00 43.78
117.00 45.08
118.00 46.86
119.00 48.97
120.00 51.41
121.00 54.45
122.00 56.34
123.00 56.89
124.00 71.48
125.00 52.69
126.00 45.36
127.00 42.00
128.00 39.85
129.00 37.69
130.00 35.78
131.00 34.63
132.00 34.14
133.00 33.84
134.00 33.38
135.00 32.79
136.00 32.45
137.00 32.75
138.00 33.84
139.00 35.70
140.00 38.08
141.00 40.73
142.00 43.52
143.00 45.36
144.00 43.48
145.00 40.26
146.00 38.07
147.00 37.33
148.00 38.42
149.00 42.60
150.00 46.87
151.00 38.76
152.00 34.63
153.00 32.99
154.00 32.77
155.00 33.36
156.00 34.67
157.00 37.43
158.00 43.95
159.00 49.15
160.00 39.80
161.00 36.75
162.00 36.42
163.00 37.79
164.00 39.14
165.00 38.30
166.00 36.67
167.00 35.30
168.00 34.03
169.00 33.14
170.00 33.17
171.00 34.41
172.00 36.80
173.00 39.38
174.00 39.64
175.00 37.85
176.00 36.03
177.00 34.77
178.00 34.18
179.00 34.32
180.00 35.10
181.00 36.66
182.00 39.06
183.00 41.29
184.00 41.25
185.00 40.70
186.00 41.76
187.00 44.35
188.00 45.55
189.00 44.57
190.00 43.96
191.00 41.91
192.00 38.40
193.00 36.01
194.00 35.49
195.00 36.94
196.00 40.26
197.00 44.08
198.00 46.16
199.00 47.83
200.00 46.48
201.00 43.85
202.00 43.48
203.00 45.64
204.00 47.24
205.00 43.17
206.00 39.11
207.00 36.09
208.00 33.96
209.00 32.87
210.00 32.86
211.00 33.61
212.00 34.13
213.00 33.71
214.00 33.14
215.00 33.15
216.00 33.76
217.00 34.55
218.00 35.17
219.00 35.73
220.00 36.34
221.00 36.76
222.00 36.70
223.00 36.31
224.00 36.01
225.00 36.06
226.00 36.38
227.00 36.68
228.00 36.74
229.00 36.68
230.00 36.82
231.00 37.26
232.00 37.74
233.00 37.90
234.00 37.78
235.00 37.83
236.00 38.45
237.00 39.88
238.00 42.11
239.00 45.10
240.00 48.67
241.00 49.49
242.00 47.16
243.00 45.89
244.00 45.86
245.00 45.94
246.00 45.56
247.00 45.85
248.00 48.12
249.00 50.75
250.00 46.98
251.00 43.78
252.00 43.28
253.00 46.32
254.00 50.63
255.00 42.11
256.00 37.95
257.00 37.00
258.00 38.52
259.00 41.98
260.00 43.68
261.00 40.06
262.00 36.61
263.00 34.87
264.00 34.85
265.00 36.10
266.00 37.26
267.00 37.14
268.00 36.41
269.00 35.65
270.00 34.78
271.00 33.75
272.00 32.80
273.00 32.38
274.00 32.69
275.00 33.43
276.00 34.11
277.00 34.96
278.00 36.70
279.00 39.20
280.00 40.82
281.00 39.66
282.00 36.39
283.00 33.61
284.00 32.29
285.00 32.22
286.00 32.63
287.00 32.55
288.00 31.84
289.00 30.82
290.00 29.54
291.00 28.01
292.00 26.52
293.00 25.46
294.00 24.97
295.00 24.99
296.00 25.34
297.00 26.02
298.00 27.31
299.00 29.78
300.00 33.62
301.00 33.50
302.00 29.14
303.00 25.94
304.00 23.73
305.00 22.08
306.00 20.90
307.00 20.24
308.00 20.21
309.00 20.88
310.00 22.30
311.00 24.39
312.00 26.50
313.00 26.52
314.00 24.37
315.00 22.17
316.00 20.59
317.00 19.66
318.00 19.29
319.00 19.39
320.00 19.70
321.00 19.74
322.00 19.18
323.00 18.38
324.00 17.93
325.00 18.13
326.00 19.11
327.00 21.00
328.00 23.96
329.00 27.42
330.00 27.06
331.00 23.67
332.00 21.20
333.00 20.14
334.00 20.65
335.00 23.43
336.00 31.91
337.00 31.26
338.00 22.72
339.00 19.74
340.00 19.17
341.00 20.57
342.00 24.52
343.00 29.74
344.00 23.38
345.00 18.70
346.00 16.36
347.00 15.58
348.00 16.20
349.00 18.51
350.00 23.91
351.00 35.88
352.00 23.99
353.00 20.34
354.00 20.86
355.00 25.46
356.00 18.91
357.00 11.53
358.00 6.93
359.00 3.85
