NAME ATR4518R7_0847_X_CO_M45_04T
FREQUENCY 0847
GAIN 14.70 dBd
TILT	ELECTRICAL
COMMENT DATE 05.08.2013 -45 degrees polarized system Lever position 04T deg
HORIZONTAL 360
0.00 0.00
1.00 0.01
2.00 0.02
3.00 0.05
4.00 0.07
5.00 0.11
6.00 0.15
7.00 0.19
8.00 0.25
9.00 0.30
10.00 0.37
11.00 0.44
12.00 0.52
13.00 0.60
14.00 0.69
15.00 0.78
16.00 0.89
17.00 0.99
18.00 1.11
19.00 1.23
20.00 1.35
21.00 1.49
22.00 1.63
23.00 1.77
24.00 1.92
25.00 2.08
26.00 2.24
27.00 2.42
28.00 2.59
29.00 2.77
30.00 2.96
31.00 3.16
32.00 3.36
33.00 3.57
34.00 3.78
35.00 4.00
36.00 4.22
37.00 4.46
38.00 4.69
39.00 4.94
40.00 5.18
41.00 5.44
42.00 5.70
43.00 5.97
44.00 6.24
45.00 6.52
46.00 6.80
47.00 7.09
48.00 7.39
49.00 7.68
50.00 7.99
51.00 8.30
52.00 8.62
53.00 8.94
54.00 9.26
55.00 9.59
56.00 9.93
57.00 10.27
58.00 10.62
59.00 10.97
60.00 11.32
61.00 11.68
62.00 12.04
63.00 12.41
64.00 12.78
65.00 13.16
66.00 13.55
67.00 13.93
68.00 14.32
69.00 14.72
70.00 15.12
71.00 15.52
72.00 15.93
73.00 16.35
74.00 16.77
75.00 17.19
76.00 17.62
77.00 18.06
78.00 18.50
79.00 18.95
80.00 19.41
81.00 19.86
82.00 20.33
83.00 20.80
84.00 21.28
85.00 21.76
86.00 22.25
87.00 22.74
88.00 23.23
89.00 23.73
90.00 24.24
91.00 24.74
92.00 25.24
93.00 25.74
94.00 26.24
95.00 26.73
96.00 27.22
97.00 27.69
98.00 28.16
99.00 28.61
100.00 29.04
101.00 29.46
102.00 29.85
103.00 30.23
104.00 30.58
105.00 30.92
106.00 31.23
107.00 31.53
108.00 31.81
109.00 32.09
110.00 32.35
111.00 32.60
112.00 32.85
113.00 33.10
114.00 33.35
115.00 33.60
116.00 33.86
117.00 34.13
118.00 34.41
119.00 34.71
120.00 35.01
121.00 35.33
122.00 35.65
123.00 35.99
124.00 36.34
125.00 36.69
126.00 37.04
127.00 37.39
128.00 37.74
129.00 38.08
130.00 38.40
131.00 38.69
132.00 38.95
133.00 39.17
134.00 39.35
135.00 39.49
136.00 39.58
137.00 39.63
138.00 39.64
139.00 39.62
140.00 39.58
141.00 39.52
142.00 39.45
143.00 39.37
144.00 39.31
145.00 39.25
146.00 39.20
147.00 39.18
148.00 39.17
149.00 39.19
150.00 39.23
151.00 39.30
152.00 39.39
153.00 39.52
154.00 39.67
155.00 39.86
156.00 40.07
157.00 40.31
158.00 40.58
159.00 40.88
160.00 41.20
161.00 41.53
162.00 41.87
163.00 42.20
164.00 42.53
165.00 42.81
166.00 43.05
167.00 43.23
168.00 43.32
169.00 43.34
170.00 43.24
171.00 43.07
172.00 42.82
173.00 42.52
174.00 42.17
175.00 41.80
176.00 41.41
177.00 41.04
178.00 40.67
179.00 40.30
180.00 39.98
181.00 39.67
182.00 39.39
183.00 39.15
184.00 38.93
185.00 38.75
186.00 38.60
187.00 38.48
188.00 38.39
189.00 38.34
190.00 38.33
191.00 38.34
192.00 38.40
193.00 38.48
194.00 38.61
195.00 38.77
196.00 38.97
197.00 39.22
198.00 39.50
199.00 39.83
200.00 40.20
201.00 40.62
202.00 41.10
203.00 41.62
204.00 42.19
205.00 42.81
206.00 43.47
207.00 44.17
208.00 44.87
209.00 45.54
210.00 46.12
211.00 46.52
212.00 46.69
213.00 46.58
214.00 46.20
215.00 45.62
216.00 44.92
217.00 44.13
218.00 43.36
219.00 42.60
220.00 41.87
221.00 41.17
222.00 40.52
223.00 39.92
224.00 39.36
225.00 38.83
226.00 38.33
227.00 37.88
228.00 37.43
229.00 37.02
230.00 36.61
231.00 36.23
232.00 35.85
233.00 35.48
234.00 35.12
235.00 34.74
236.00 34.37
237.00 33.99
238.00 33.60
239.00 33.20
240.00 32.78
241.00 32.35
242.00 31.91
243.00 31.46
244.00 30.99
245.00 30.52
246.00 30.03
247.00 29.54
248.00 29.04
249.00 28.54
250.00 28.04
251.00 27.54
252.00 27.04
253.00 26.54
254.00 26.05
255.00 25.55
256.00 25.07
257.00 24.59
258.00 24.12
259.00 23.66
260.00 23.20
261.00 22.75
262.00 22.31
263.00 21.88
264.00 21.45
265.00 21.03
266.00 20.62
267.00 20.22
268.00 19.83
269.00 19.44
270.00 19.06
271.00 18.68
272.00 18.31
273.00 17.95
274.00 17.59
275.00 17.24
276.00 16.89
277.00 16.55
278.00 16.21
279.00 15.88
280.00 15.55
281.00 15.23
282.00 14.91
283.00 14.59
284.00 14.27
285.00 13.96
286.00 13.65
287.00 13.34
288.00 13.03
289.00 12.73
290.00 12.43
291.00 12.13
292.00 11.83
293.00 11.53
294.00 11.24
295.00 10.95
296.00 10.66
297.00 10.37
298.00 10.08
299.00 9.79
300.00 9.51
301.00 9.23
302.00 8.95
303.00 8.67
304.00 8.39
305.00 8.12
306.00 7.85
307.00 7.58
308.00 7.32
309.00 7.06
310.00 6.80
311.00 6.54
312.00 6.29
313.00 6.04
314.00 5.80
315.00 5.56
316.00 5.32
317.00 5.09
318.00 4.86
319.00 4.63
320.00 4.41
321.00 4.20
322.00 3.99
323.00 3.78
324.00 3.58
325.00 3.38
326.00 3.19
327.00 3.01
328.00 2.82
329.00 2.65
330.00 2.48
331.00 2.31
332.00 2.15
333.00 2.00
334.00 1.85
335.00 1.71
336.00 1.57
337.00 1.43
338.00 1.31
339.00 1.19
340.00 1.07
341.00 0.96
342.00 0.86
343.00 0.76
344.00 0.67
345.00 0.58
346.00 0.50
347.00 0.43
348.00 0.36
349.00 0.30
350.00 0.24
351.00 0.19
352.00 0.14
353.00 0.10
354.00 0.07
355.00 0.04
356.00 0.02
357.00 0.01
358.00 0.00
359.00 0.00
VERTICAL 360
0.00 2.99
1.00 1.64
2.00 0.72
3.00 0.18
4.00 0.00
5.00 0.16
6.00 0.67
7.00 1.55
8.00 2.84
9.00 4.61
10.00 6.97
11.00 10.13
12.00 14.52
13.00 21.35
14.00 33.71
15.00 25.84
16.00 22.52
17.00 22.35
18.00 24.57
19.00 30.66
20.00 37.34
21.00 26.22
22.00 21.74
23.00 19.47
24.00 18.43
25.00 18.26
26.00 18.85
27.00 20.19
28.00 22.43
29.00 25.99
30.00 32.25
31.00 51.80
32.00 35.84
33.00 31.91
34.00 31.80
35.00 35.14
36.00 49.96
37.00 34.64
38.00 27.56
39.00 23.54
40.00 20.82
41.00 18.91
42.00 17.59
43.00 16.77
44.00 16.37
45.00 16.33
46.00 16.60
47.00 17.09
48.00 17.80
49.00 18.74
50.00 20.01
51.00 21.74
52.00 24.14
53.00 27.45
54.00 32.00
55.00 38.51
56.00 49.23
57.00 44.67
58.00 38.00
59.00 34.02
60.00 31.43
61.00 29.89
62.00 29.32
63.00 29.81
64.00 31.57
65.00 34.96
66.00 39.00
67.00 37.55
68.00 34.59
69.00 33.30
70.00 33.42
71.00 34.25
72.00 34.52
73.00 33.36
74.00 31.61
75.00 30.11
76.00 29.08
77.00 28.50
78.00 28.17
79.00 27.76
80.00 27.09
81.00 26.39
82.00 25.93
83.00 25.86
84.00 26.12
85.00 26.52
86.00 26.79
87.00 26.80
88.00 26.68
89.00 26.64
90.00 26.85
91.00 27.36
92.00 28.10
93.00 28.89
94.00 29.41
95.00 29.46
96.00 29.15
97.00 28.75
98.00 28.47
99.00 28.49
100.00 28.94
101.00 29.88
102.00 31.10
103.00 32.26
104.00 33.07
105.00 33.58
106.00 34.10
107.00 35.05
108.00 36.75
109.00 39.14
110.00 41.02
111.00 40.76
112.00 39.14
113.00 37.51
114.00 36.48
115.00 36.24
116.00 36.72
117.00 37.81
118.00 39.40
119.00 40.26
120.00 38.23
121.00 35.48
122.00 33.78
123.00 33.21
124.00 33.43
125.00 33.92
126.00 34.04
127.00 33.32
128.00 32.12
129.00 31.19
130.00 30.98
131.00 31.54
132.00 32.72
133.00 34.22
134.00 35.73
135.00 36.94
136.00 37.87
137.00 39.03
138.00 40.94
139.00 43.19
140.00 44.31
141.00 44.31
142.00 43.39
143.00 41.22
144.00 39.19
145.00 38.15
146.00 38.09
147.00 38.82
148.00 40.52
149.00 43.33
150.00 44.23
151.00 41.23
152.00 38.96
153.00 38.11
154.00 37.92
155.00 37.57
156.00 36.82
157.00 36.03
158.00 35.56
159.00 35.78
160.00 37.13
161.00 39.96
162.00 43.47
163.00 43.44
164.00 41.72
165.00 41.15
166.00 41.27
167.00 41.11
168.00 40.53
169.00 40.02
170.00 39.76
171.00 39.62
172.00 39.45
173.00 39.26
174.00 39.26
175.00 39.64
176.00 40.30
177.00 40.79
178.00 40.74
179.00 40.34
180.00 40.09
181.00 40.30
182.00 41.01
183.00 42.02
184.00 42.99
185.00 43.76
186.00 44.33
187.00 44.58
188.00 44.37
189.00 43.65
190.00 42.75
191.00 42.09
192.00 42.00
193.00 42.58
194.00 43.60
195.00 44.56
196.00 44.96
197.00 45.02
198.00 45.45
199.00 46.91
200.00 49.86
201.00 54.28
202.00 57.87
203.00 58.81
204.00 58.76
205.00 56.27
206.00 51.17
207.00 46.03
208.00 42.32
209.00 40.22
210.00 39.63
211.00 40.36
212.00 42.08
213.00 44.05
214.00 45.27
215.00 45.01
216.00 43.44
217.00 41.79
218.00 40.80
219.00 40.57
220.00 40.95
221.00 41.82
222.00 42.79
223.00 43.39
224.00 44.41
225.00 47.91
226.00 51.82
227.00 43.89
228.00 39.42
229.00 37.49
230.00 37.05
231.00 37.38
232.00 37.67
233.00 37.35
234.00 36.44
235.00 35.43
236.00 34.87
237.00 35.13
238.00 36.33
239.00 38.28
240.00 40.06
241.00 40.54
242.00 40.43
243.00 41.07
244.00 43.11
245.00 46.25
246.00 46.22
247.00 42.92
248.00 40.45
249.00 39.09
250.00 38.63
251.00 38.98
252.00 39.97
253.00 41.04
254.00 41.27
255.00 40.49
256.00 39.26
257.00 38.16
258.00 37.60
259.00 37.85
260.00 38.88
261.00 40.27
262.00 41.08
263.00 40.44
264.00 38.69
265.00 37.00
266.00 36.18
267.00 36.51
268.00 37.88
269.00 39.26
270.00 39.46
271.00 39.59
272.00 40.88
273.00 41.87
274.00 39.59
275.00 36.84
276.00 35.07
277.00 33.97
278.00 33.18
279.00 32.80
280.00 33.07
281.00 34.09
282.00 35.56
283.00 36.70
284.00 36.80
285.00 36.24
286.00 35.93
287.00 36.64
288.00 39.07
289.00 44.83
290.00 63.12
291.00 45.67
292.00 41.38
293.00 39.78
294.00 39.28
295.00 38.75
296.00 36.86
297.00 34.20
298.00 32.08
299.00 30.94
300.00 30.86
301.00 31.86
302.00 34.21
303.00 38.88
304.00 53.60
305.00 42.34
306.00 35.07
307.00 30.88
308.00 27.67
309.00 24.98
310.00 22.74
311.00 20.93
312.00 19.54
313.00 18.54
314.00 17.90
315.00 17.57
316.00 17.53
317.00 17.72
318.00 18.15
319.00 18.80
320.00 19.73
321.00 21.01
322.00 22.77
323.00 25.12
324.00 28.07
325.00 31.17
326.00 33.04
327.00 33.45
328.00 33.95
329.00 35.30
330.00 36.86
331.00 36.54
332.00 34.57
333.00 32.99
334.00 32.39
335.00 32.67
336.00 33.27
337.00 32.89
338.00 30.81
339.00 27.98
340.00 25.24
341.00 22.93
342.00 21.20
343.00 20.13
344.00 19.84
345.00 20.48
346.00 22.37
347.00 26.29
348.00 33.52
349.00 30.01
350.00 24.90
351.00 22.93
352.00 23.35
353.00 27.36
354.00 41.96
355.00 21.76
356.00 14.87
357.00 10.46
358.00 7.25
359.00 4.82
