NAME ATR4518R7_2350_X_CO_M45_06T_yL
FREQUENCY 2350
GAIN 15.81 dBd
TILT	ELECTRICAL
COMMENT DATE 05.08.2013 -45 degrees polarized system Lever position 06T deg
HORIZONTAL 360
0.00 0.00
1.00 0.02
2.00 0.05
3.00 0.10
4.00 0.17
5.00 0.24
6.00 0.34
7.00 0.44
8.00 0.56
9.00 0.69
10.00 0.84
11.00 0.98
12.00 1.14
13.00 1.30
14.00 1.46
15.00 1.62
16.00 1.77
17.00 1.93
18.00 2.08
19.00 2.22
20.00 2.36
21.00 2.49
22.00 2.62
23.00 2.75
24.00 2.88
25.00 3.02
26.00 3.16
27.00 3.30
28.00 3.45
29.00 3.61
30.00 3.78
31.00 3.97
32.00 4.17
33.00 4.38
34.00 4.60
35.00 4.84
36.00 5.09
37.00 5.36
38.00 5.63
39.00 5.91
40.00 6.21
41.00 6.51
42.00 6.80
43.00 7.11
44.00 7.41
45.00 7.71
46.00 8.00
47.00 8.29
48.00 8.56
49.00 8.83
50.00 9.08
51.00 9.32
52.00 9.54
53.00 9.75
54.00 9.95
55.00 10.14
56.00 10.32
57.00 10.50
58.00 10.66
59.00 10.82
60.00 10.98
61.00 11.15
62.00 11.31
63.00 11.48
64.00 11.66
65.00 11.85
66.00 12.04
67.00 12.25
68.00 12.46
69.00 12.69
70.00 12.93
71.00 13.18
72.00 13.45
73.00 13.72
74.00 14.00
75.00 14.29
76.00 14.59
77.00 14.89
78.00 15.20
79.00 15.52
80.00 15.84
81.00 16.16
82.00 16.48
83.00 16.81
84.00 17.15
85.00 17.49
86.00 17.84
87.00 18.21
88.00 18.59
89.00 18.99
90.00 19.41
91.00 19.85
92.00 20.31
93.00 20.81
94.00 21.34
95.00 21.90
96.00 22.49
97.00 23.12
98.00 23.79
99.00 24.48
100.00 25.21
101.00 25.96
102.00 26.73
103.00 27.50
104.00 28.27
105.00 29.03
106.00 29.76
107.00 30.46
108.00 31.12
109.00 31.73
110.00 32.31
111.00 32.86
112.00 33.39
113.00 33.91
114.00 34.43
115.00 34.94
116.00 35.45
117.00 35.92
118.00 36.34
119.00 36.68
120.00 36.91
121.00 37.04
122.00 37.07
123.00 37.02
124.00 36.92
125.00 36.82
126.00 36.74
127.00 36.71
128.00 36.73
129.00 36.84
130.00 37.02
131.00 37.28
132.00 37.63
133.00 38.05
134.00 38.53
135.00 39.07
136.00 39.63
137.00 40.21
138.00 40.76
139.00 41.23
140.00 41.57
141.00 41.73
142.00 41.66
143.00 41.34
144.00 40.78
145.00 40.05
146.00 39.21
147.00 38.31
148.00 37.41
149.00 36.55
150.00 35.76
151.00 35.05
152.00 34.44
153.00 33.93
154.00 33.53
155.00 33.25
156.00 33.07
157.00 33.02
158.00 33.07
159.00 33.23
160.00 33.49
161.00 33.81
162.00 34.16
163.00 34.47
164.00 34.67
165.00 34.67
166.00 34.44
167.00 34.00
168.00 33.41
169.00 32.76
170.00 32.13
171.00 31.57
172.00 31.12
173.00 30.79
174.00 30.60
175.00 30.57
176.00 30.71
177.00 31.03
178.00 31.56
179.00 32.33
180.00 33.38
181.00 34.76
182.00 36.51
183.00 38.54
184.00 40.23
185.00 40.19
186.00 38.34
187.00 36.08
188.00 34.11
189.00 32.50
190.00 31.23
191.00 30.24
192.00 29.51
193.00 28.99
194.00 28.68
195.00 28.57
196.00 28.65
197.00 28.93
198.00 29.42
199.00 30.16
200.00 31.20
201.00 32.59
202.00 34.48
203.00 37.12
204.00 41.03
205.00 46.66
206.00 45.63
207.00 40.20
208.00 36.59
209.00 34.12
210.00 32.34
211.00 31.02
212.00 30.04
213.00 29.34
214.00 28.86
215.00 28.59
216.00 28.51
217.00 28.61
218.00 28.88
219.00 29.35
220.00 30.01
221.00 30.89
222.00 32.02
223.00 33.46
224.00 35.27
225.00 37.50
226.00 40.04
227.00 41.86
228.00 41.22
229.00 38.95
230.00 36.68
231.00 34.82
232.00 33.34
233.00 32.16
234.00 31.23
235.00 30.49
236.00 29.91
237.00 29.45
238.00 29.10
239.00 28.83
240.00 28.63
241.00 28.48
242.00 28.36
243.00 28.26
244.00 28.16
245.00 28.05
246.00 27.91
247.00 27.75
248.00 27.55
249.00 27.32
250.00 27.06
251.00 26.77
252.00 26.47
253.00 26.16
254.00 25.84
255.00 25.52
256.00 25.21
257.00 24.90
258.00 24.60
259.00 24.30
260.00 24.00
261.00 23.70
262.00 23.40
263.00 23.09
264.00 22.77
265.00 22.44
266.00 22.09
267.00 21.74
268.00 21.37
269.00 21.00
270.00 20.63
271.00 20.25
272.00 19.88
273.00 19.51
274.00 19.16
275.00 18.81
276.00 18.47
277.00 18.14
278.00 17.83
279.00 17.53
280.00 17.23
281.00 16.94
282.00 16.66
283.00 16.38
284.00 16.10
285.00 15.82
286.00 15.54
287.00 15.25
288.00 14.95
289.00 14.64
290.00 14.33
291.00 14.01
292.00 13.68
293.00 13.35
294.00 13.01
295.00 12.66
296.00 12.32
297.00 11.97
298.00 11.62
299.00 11.28
300.00 10.94
301.00 10.59
302.00 10.25
303.00 9.92
304.00 9.59
305.00 9.26
306.00 8.93
307.00 8.60
308.00 8.28
309.00 7.96
310.00 7.64
311.00 7.32
312.00 7.01
313.00 6.69
314.00 6.38
315.00 6.08
316.00 5.77
317.00 5.47
318.00 5.18
319.00 4.89
320.00 4.61
321.00 4.33
322.00 4.07
323.00 3.81
324.00 3.56
325.00 3.31
326.00 3.08
327.00 2.85
328.00 2.64
329.00 2.44
330.00 2.24
331.00 2.06
332.00 1.89
333.00 1.73
334.00 1.58
335.00 1.44
336.00 1.31
337.00 1.20
338.00 1.09
339.00 0.99
340.00 0.91
341.00 0.83
342.00 0.75
343.00 0.69
344.00 0.63
345.00 0.57
346.00 0.51
347.00 0.46
348.00 0.41
349.00 0.35
350.00 0.30
351.00 0.25
352.00 0.20
353.00 0.16
354.00 0.11
355.00 0.08
356.00 0.04
357.00 0.02
358.00 0.00
359.00 0.00
VERTICAL 360
0.00 30.58
1.00 15.67
2.00 8.93
3.00 4.73
4.00 2.04
5.00 0.51
6.00 0.00
7.00 0.49
8.00 2.16
9.00 5.48
10.00 11.96
11.00 49.61
12.00 14.94
13.00 11.72
14.00 11.97
15.00 14.42
16.00 18.20
17.00 18.61
18.00 16.08
19.00 15.25
20.00 16.84
21.00 20.67
22.00 20.32
23.00 16.83
24.00 15.69
25.00 16.96
26.00 21.17
27.00 34.46
28.00 26.50
29.00 20.21
30.00 18.30
31.00 18.80
32.00 21.51
33.00 25.42
34.00 24.41
35.00 21.37
36.00 19.66
37.00 19.00
38.00 19.18
39.00 20.24
40.00 22.09
41.00 24.25
42.00 26.01
43.00 27.54
44.00 29.64
45.00 32.24
46.00 32.57
47.00 30.18
48.00 28.00
49.00 26.70
50.00 26.26
51.00 26.59
52.00 27.70
53.00 29.66
54.00 32.79
55.00 38.38
56.00 52.20
57.00 37.85
58.00 32.00
59.00 28.89
60.00 27.20
61.00 26.48
62.00 26.49
63.00 27.05
64.00 28.02
65.00 29.33
66.00 30.84
67.00 32.38
68.00 33.78
69.00 35.02
70.00 36.21
71.00 37.48
72.00 38.92
73.00 40.51
74.00 42.10
75.00 43.76
76.00 45.81
77.00 48.48
78.00 50.73
79.00 49.64
80.00 47.23
81.00 46.00
82.00 46.12
83.00 46.58
84.00 46.05
85.00 45.43
86.00 46.07
87.00 47.68
88.00 47.97
89.00 46.21
90.00 44.07
91.00 42.24
92.00 41.22
93.00 41.29
94.00 42.23
95.00 43.37
96.00 43.71
97.00 42.87
98.00 41.58
99.00 40.76
100.00 40.81
101.00 41.72
102.00 43.20
103.00 44.66
104.00 45.45
105.00 45.42
106.00 45.15
107.00 45.28
108.00 46.01
109.00 47.58
110.00 51.22
111.00 63.41
112.00 56.50
113.00 51.92
114.00 54.56
115.00 56.75
116.00 48.21
117.00 44.58
118.00 43.46
119.00 44.10
120.00 47.37
121.00 60.84
122.00 49.12
123.00 42.57
124.00 39.44
125.00 37.53
126.00 36.53
127.00 36.86
128.00 39.03
129.00 44.00
130.00 56.70
131.00 51.13
132.00 45.02
133.00 42.15
134.00 40.45
135.00 39.39
136.00 38.63
137.00 38.04
138.00 37.68
139.00 37.65
140.00 37.91
141.00 38.00
142.00 37.66
143.00 37.46
144.00 38.07
145.00 39.68
146.00 41.86
147.00 43.42
148.00 43.50
149.00 42.87
150.00 42.93
151.00 44.49
152.00 45.65
153.00 42.44
154.00 39.28
155.00 37.76
156.00 37.52
157.00 38.01
158.00 38.89
159.00 40.56
160.00 44.49
161.00 55.93
162.00 52.13
163.00 47.98
164.00 49.62
165.00 47.71
166.00 43.96
167.00 42.90
168.00 41.34
169.00 37.58
170.00 34.48
171.00 32.60
172.00 31.65
173.00 31.53
174.00 32.33
175.00 34.06
176.00 36.29
177.00 38.29
178.00 39.96
179.00 41.56
180.00 42.62
181.00 42.33
182.00 41.01
183.00 39.52
184.00 38.23
185.00 37.21
186.00 36.62
187.00 36.53
188.00 36.67
189.00 36.74
190.00 36.95
191.00 37.73
192.00 39.12
193.00 40.65
194.00 41.50
195.00 41.40
196.00 40.84
197.00 40.46
198.00 40.68
199.00 41.62
200.00 42.63
201.00 42.63
202.00 42.20
203.00 42.39
204.00 42.89
205.00 41.93
206.00 38.97
207.00 35.87
208.00 33.81
209.00 33.12
210.00 33.76
211.00 35.09
212.00 35.97
213.00 36.98
214.00 40.50
215.00 49.65
216.00 42.48
217.00 38.81
218.00 39.33
219.00 41.99
220.00 42.54
221.00 42.38
222.00 44.81
223.00 43.99
224.00 39.97
225.00 38.65
226.00 39.86
227.00 42.07
228.00 41.14
229.00 38.93
230.00 38.07
231.00 38.76
232.00 41.15
233.00 45.63
234.00 49.66
235.00 46.05
236.00 42.24
237.00 39.37
238.00 37.46
239.00 36.60
240.00 36.42
241.00 36.14
242.00 35.43
243.00 34.71
244.00 34.26
245.00 34.00
246.00 33.89
247.00 34.08
248.00 34.79
249.00 36.15
250.00 37.97
251.00 39.79
252.00 41.04
253.00 40.21
254.00 37.62
255.00 35.53
256.00 34.57
257.00 34.49
258.00 34.71
259.00 34.53
260.00 33.80
261.00 33.14
262.00 33.17
263.00 33.98
264.00 35.02
265.00 35.05
266.00 33.64
267.00 31.73
268.00 30.03
269.00 28.74
270.00 27.83
271.00 27.23
272.00 26.87
273.00 26.62
274.00 26.28
275.00 25.74
276.00 25.02
277.00 24.33
278.00 23.85
279.00 23.65
280.00 23.67
281.00 23.68
282.00 23.47
283.00 22.97
284.00 22.28
285.00 21.58
286.00 20.99
287.00 20.55
288.00 20.24
289.00 20.03
290.00 19.82
291.00 19.45
292.00 18.84
293.00 18.09
294.00 17.46
295.00 17.13
296.00 17.15
297.00 17.46
298.00 17.99
299.00 18.74
300.00 19.91
301.00 21.88
302.00 25.25
303.00 31.05
304.00 32.25
305.00 26.46
306.00 23.12
307.00 21.45
308.00 20.96
309.00 21.57
310.00 23.34
311.00 26.38
312.00 29.50
313.00 28.45
314.00 25.78
315.00 24.21
316.00 23.80
317.00 24.33
318.00 25.40
319.00 25.62
320.00 23.73
321.00 21.28
322.00 19.79
323.00 19.78
324.00 21.81
325.00 27.85
326.00 39.16
327.00 24.67
328.00 20.72
329.00 19.59
330.00 20.38
331.00 23.38
332.00 30.69
333.00 33.97
334.00 26.38
335.00 24.82
336.00 27.18
337.00 36.92
338.00 32.21
339.00 25.84
340.00 24.20
341.00 25.21
342.00 27.54
343.00 25.46
344.00 21.54
345.00 19.66
346.00 20.14
347.00 23.96
348.00 42.36
349.00 25.45
350.00 19.99
351.00 18.38
352.00 19.01
353.00 21.52
354.00 25.30
355.00 27.39
356.00 26.38
357.00 24.75
358.00 24.05
359.00 27.58
