NAME ATR4518R7_2140_X_CO_P45_06T_yyR
FREQUENCY 2140
GAIN 15.59 dBd
TILT	ELECTRICAL
COMMENT DATE 05.08.2013 +45 degrees polarized system Lever position 06T deg
HORIZONTAL 360
0.00 0.05
1.00 0.03
2.00 0.01
3.00 0.00
4.00 0.00
5.00 0.01
6.00 0.02
7.00 0.04
8.00 0.06
9.00 0.09
10.00 0.13
11.00 0.18
12.00 0.23
13.00 0.29
14.00 0.36
15.00 0.43
16.00 0.52
17.00 0.61
18.00 0.71
19.00 0.82
20.00 0.94
21.00 1.07
22.00 1.21
23.00 1.36
24.00 1.52
25.00 1.69
26.00 1.87
27.00 2.05
28.00 2.26
29.00 2.47
30.00 2.69
31.00 2.92
32.00 3.16
33.00 3.41
34.00 3.67
35.00 3.94
36.00 4.21
37.00 4.50
38.00 4.80
39.00 5.10
40.00 5.41
41.00 5.73
42.00 6.06
43.00 6.40
44.00 6.74
45.00 7.09
46.00 7.45
47.00 7.81
48.00 8.18
49.00 8.56
50.00 8.94
51.00 9.33
52.00 9.73
53.00 10.14
54.00 10.54
55.00 10.96
56.00 11.37
57.00 11.79
58.00 12.22
59.00 12.65
60.00 13.07
61.00 13.50
62.00 13.92
63.00 14.34
64.00 14.76
65.00 15.17
66.00 15.57
67.00 15.97
68.00 16.35
69.00 16.73
70.00 17.09
71.00 17.44
72.00 17.79
73.00 18.12
74.00 18.44
75.00 18.76
76.00 19.07
77.00 19.38
78.00 19.69
79.00 19.99
80.00 20.30
81.00 20.62
82.00 20.94
83.00 21.26
84.00 21.60
85.00 21.95
86.00 22.31
87.00 22.68
88.00 23.06
89.00 23.46
90.00 23.87
91.00 24.29
92.00 24.73
93.00 25.18
94.00 25.65
95.00 26.13
96.00 26.62
97.00 27.13
98.00 27.66
99.00 28.21
100.00 28.77
101.00 29.36
102.00 29.98
103.00 30.62
104.00 31.30
105.00 32.01
106.00 32.76
107.00 33.55
108.00 34.39
109.00 35.28
110.00 36.20
111.00 37.15
112.00 38.11
113.00 39.04
114.00 39.88
115.00 40.54
116.00 40.98
117.00 41.15
118.00 41.07
119.00 40.81
120.00 40.45
121.00 40.04
122.00 39.65
123.00 39.28
124.00 38.98
125.00 38.72
126.00 38.53
127.00 38.40
128.00 38.32
129.00 38.29
130.00 38.31
131.00 38.36
132.00 38.43
133.00 38.53
134.00 38.64
135.00 38.74
136.00 38.85
137.00 38.95
138.00 39.04
139.00 39.11
140.00 39.17
141.00 39.23
142.00 39.28
143.00 39.31
144.00 39.36
145.00 39.40
146.00 39.44
147.00 39.48
148.00 39.51
149.00 39.52
150.00 39.51
151.00 39.47
152.00 39.38
153.00 39.26
154.00 39.10
155.00 38.89
156.00 38.65
157.00 38.39
158.00 38.12
159.00 37.84
160.00 37.58
161.00 37.34
162.00 37.12
163.00 36.94
164.00 36.79
165.00 36.69
166.00 36.64
167.00 36.63
168.00 36.67
169.00 36.75
170.00 36.88
171.00 37.04
172.00 37.24
173.00 37.47
174.00 37.70
175.00 37.93
176.00 38.14
177.00 38.30
178.00 38.40
179.00 38.43
180.00 38.37
181.00 38.23
182.00 38.02
183.00 37.76
184.00 37.46
185.00 37.14
186.00 36.84
187.00 36.54
188.00 36.28
189.00 36.05
190.00 35.86
191.00 35.72
192.00 35.62
193.00 35.57
194.00 35.56
195.00 35.59
196.00 35.66
197.00 35.76
198.00 35.90
199.00 36.04
200.00 36.20
201.00 36.36
202.00 36.50
203.00 36.63
204.00 36.73
205.00 36.80
206.00 36.84
207.00 36.86
208.00 36.86
209.00 36.85
210.00 36.84
211.00 36.85
212.00 36.88
213.00 36.95
214.00 37.06
215.00 37.23
216.00 37.45
217.00 37.74
218.00 38.09
219.00 38.51
220.00 39.00
221.00 39.55
222.00 40.13
223.00 40.72
224.00 41.28
225.00 41.74
226.00 42.04
227.00 42.11
228.00 41.97
229.00 41.62
230.00 41.14
231.00 40.60
232.00 40.04
233.00 39.49
234.00 39.01
235.00 38.57
236.00 38.20
237.00 37.90
238.00 37.66
239.00 37.49
240.00 37.36
241.00 37.29
242.00 37.27
243.00 37.29
244.00 37.35
245.00 37.44
246.00 37.55
247.00 37.66
248.00 37.78
249.00 37.91
250.00 38.00
251.00 38.04
252.00 38.03
253.00 37.95
254.00 37.76
255.00 37.47
256.00 37.07
257.00 36.55
258.00 35.94
259.00 35.25
260.00 34.50
261.00 33.71
262.00 32.91
263.00 32.09
264.00 31.28
265.00 30.49
266.00 29.71
267.00 28.95
268.00 28.22
269.00 27.51
270.00 26.82
271.00 26.16
272.00 25.52
273.00 24.91
274.00 24.31
275.00 23.73
276.00 23.17
277.00 22.62
278.00 22.09
279.00 21.57
280.00 21.06
281.00 20.56
282.00 20.07
283.00 19.59
284.00 19.11
285.00 18.65
286.00 18.18
287.00 17.73
288.00 17.28
289.00 16.84
290.00 16.40
291.00 15.98
292.00 15.56
293.00 15.14
294.00 14.74
295.00 14.33
296.00 13.94
297.00 13.56
298.00 13.18
299.00 12.82
300.00 12.45
301.00 12.10
302.00 11.75
303.00 11.42
304.00 11.08
305.00 10.76
306.00 10.44
307.00 10.13
308.00 9.83
309.00 9.53
310.00 9.23
311.00 8.94
312.00 8.66
313.00 8.38
314.00 8.10
315.00 7.83
316.00 7.56
317.00 7.29
318.00 7.03
319.00 6.77
320.00 6.51
321.00 6.25
322.00 6.00
323.00 5.75
324.00 5.50
325.00 5.25
326.00 5.01
327.00 4.77
328.00 4.53
329.00 4.29
330.00 4.06
331.00 3.83
332.00 3.61
333.00 3.39
334.00 3.17
335.00 2.96
336.00 2.76
337.00 2.56
338.00 2.37
339.00 2.18
340.00 2.00
341.00 1.83
342.00 1.66
343.00 1.51
344.00 1.36
345.00 1.22
346.00 1.08
347.00 0.96
348.00 0.84
349.00 0.73
350.00 0.63
351.00 0.54
352.00 0.45
353.00 0.38
354.00 0.31
355.00 0.25
356.00 0.19
357.00 0.15
358.00 0.11
359.00 0.07
VERTICAL 360
0.00 15.57
1.00 10.88
2.00 6.98
3.00 3.96
4.00 1.80
5.00 0.48
6.00 0.00
7.00 0.38
8.00 1.66
9.00 4.01
10.00 7.90
11.00 14.99
12.00 29.02
13.00 17.49
14.00 14.80
15.00 15.93
16.00 19.69
17.00 21.06
18.00 17.69
19.00 15.93
20.00 16.09
21.00 17.98
22.00 22.00
23.00 26.78
24.00 22.91
25.00 18.94
26.00 17.39
27.00 17.67
28.00 19.62
29.00 22.80
30.00 23.89
31.00 21.68
32.00 20.15
33.00 20.11
34.00 21.27
35.00 23.11
36.00 24.89
37.00 26.29
38.00 27.69
39.00 29.62
40.00 32.99
41.00 38.26
42.00 35.04
43.00 29.77
44.00 27.29
45.00 26.56
46.00 26.95
47.00 27.91
48.00 28.57
49.00 28.25
50.00 27.57
51.00 27.59
52.00 28.53
53.00 29.12
54.00 27.91
55.00 26.36
56.00 25.83
57.00 26.49
58.00 28.18
59.00 30.60
60.00 33.42
61.00 35.97
62.00 36.88
63.00 36.10
64.00 35.19
65.00 34.95
66.00 35.46
67.00 36.09
68.00 35.93
69.00 35.22
70.00 34.39
71.00 33.42
72.00 32.54
73.00 31.99
74.00 31.68
75.00 31.45
76.00 31.01
77.00 30.22
78.00 29.37
79.00 28.80
80.00 28.51
81.00 28.31
82.00 27.98
83.00 27.44
84.00 26.96
85.00 26.86
86.00 27.30
87.00 28.43
88.00 30.18
89.00 31.36
90.00 30.97
91.00 30.48
92.00 30.59
93.00 30.74
94.00 30.67
95.00 30.29
96.00 29.34
97.00 28.46
98.00 28.49
99.00 29.68
100.00 31.88
101.00 34.67
102.00 36.72
103.00 36.20
104.00 35.13
105.00 35.44
106.00 37.42
107.00 40.90
108.00 45.66
109.00 48.80
110.00 45.83
111.00 43.50
112.00 42.76
113.00 42.36
114.00 41.52
115.00 40.37
116.00 39.50
117.00 38.99
118.00 37.94
119.00 36.26
120.00 35.06
121.00 34.84
122.00 35.38
123.00 36.01
124.00 36.30
125.00 36.84
126.00 38.43
127.00 40.93
128.00 42.67
129.00 41.78
130.00 39.38
131.00 38.02
132.00 38.89
133.00 42.53
134.00 49.74
135.00 65.74
136.00 46.88
137.00 39.88
138.00 36.71
139.00 35.69
140.00 35.92
141.00 36.69
142.00 37.60
143.00 38.74
144.00 40.52
145.00 42.70
146.00 42.43
147.00 39.60
148.00 37.92
149.00 38.33
150.00 40.75
151.00 43.91
152.00 46.00
153.00 47.67
154.00 45.65
155.00 40.56
156.00 36.50
157.00 34.49
158.00 34.92
159.00 37.92
160.00 40.74
161.00 39.66
162.00 38.41
163.00 36.12
164.00 33.77
165.00 32.84
166.00 33.36
167.00 35.64
168.00 40.74
169.00 41.83
170.00 38.49
171.00 40.70
172.00 50.77
173.00 41.09
174.00 37.61
175.00 37.74
176.00 38.76
177.00 40.92
178.00 47.94
179.00 58.44
180.00 49.02
181.00 41.60
182.00 36.19
183.00 34.27
184.00 35.04
185.00 37.25
186.00 38.98
187.00 40.53
188.00 43.11
189.00 47.40
190.00 57.71
191.00 49.06
192.00 45.79
193.00 46.03
194.00 42.40
195.00 40.12
196.00 41.47
197.00 43.02
198.00 40.37
199.00 39.67
200.00 42.87
201.00 47.83
202.00 40.83
203.00 35.97
204.00 34.15
205.00 34.81
206.00 37.45
207.00 39.01
208.00 38.20
209.00 39.33
210.00 44.91
211.00 50.12
212.00 42.09
213.00 39.09
214.00 38.08
215.00 37.39
216.00 36.44
217.00 35.80
218.00 36.01
219.00 37.05
220.00 37.83
221.00 36.80
222.00 35.14
223.00 34.48
224.00 35.22
225.00 37.30
226.00 40.88
227.00 45.54
228.00 42.07
229.00 36.91
230.00 34.89
231.00 35.98
232.00 42.50
233.00 45.26
234.00 35.70
235.00 32.86
236.00 32.99
237.00 35.62
238.00 41.53
239.00 44.66
240.00 38.23
241.00 35.10
242.00 34.48
243.00 36.36
244.00 42.16
245.00 45.69
246.00 38.91
247.00 36.89
248.00 37.62
249.00 39.24
250.00 38.86
251.00 37.23
252.00 36.11
253.00 34.76
254.00 32.55
255.00 30.52
256.00 29.33
257.00 28.70
258.00 27.98
259.00 26.79
260.00 25.45
261.00 24.39
262.00 23.85
263.00 23.71
264.00 23.62
265.00 23.28
266.00 22.69
267.00 22.02
268.00 21.42
269.00 21.01
270.00 20.83
271.00 20.90
272.00 21.17
273.00 21.52
274.00 21.78
275.00 21.78
276.00 21.52
277.00 21.11
278.00 20.68
279.00 20.31
280.00 20.00
281.00 19.76
282.00 19.60
283.00 19.58
284.00 19.78
285.00 20.20
286.00 20.84
287.00 21.62
288.00 22.53
289.00 23.58
290.00 24.77
291.00 26.06
292.00 27.43
293.00 28.96
294.00 30.75
295.00 32.75
296.00 34.57
297.00 35.36
298.00 34.77
299.00 33.68
300.00 32.88
301.00 32.43
302.00 31.67
303.00 30.19
304.00 28.57
305.00 27.30
306.00 26.20
307.00 25.03
308.00 24.01
309.00 23.76
310.00 24.99
311.00 28.85
312.00 39.43
313.00 34.64
314.00 28.04
315.00 25.45
316.00 24.11
317.00 23.63
318.00 24.76
319.00 29.74
320.00 34.70
321.00 23.32
322.00 18.41
323.00 16.04
324.00 15.21
325.00 15.64
326.00 17.35
327.00 20.65
328.00 24.67
329.00 22.99
330.00 18.98
331.00 16.52
332.00 15.34
333.00 15.18
334.00 15.86
335.00 17.24
336.00 19.27
337.00 22.19
338.00 26.80
339.00 32.38
340.00 28.53
341.00 24.00
342.00 21.81
343.00 21.58
344.00 23.78
345.00 30.61
346.00 32.59
347.00 24.38
348.00 21.60
349.00 21.50
350.00 23.85
351.00 29.43
352.00 28.39
353.00 21.90
354.00 18.88
355.00 18.17
356.00 19.33
357.00 21.81
358.00 23.26
359.00 20.47
