NAME ATR4518R7_1750_X_CO_M45_06T_yyR
FREQUENCY 1750
GAIN 14.56 dBd
TILT	ELECTRICAL
COMMENT DATE 05.08.2013 -45 degrees polarized system Lever position 06T deg
HORIZONTAL 360
0.00 0.01
1.00 0.00
2.00 0.00
3.00 0.00
4.00 0.00
5.00 0.01
6.00 0.02
7.00 0.04
8.00 0.07
9.00 0.10
10.00 0.14
11.00 0.19
12.00 0.24
13.00 0.30
14.00 0.37
15.00 0.45
16.00 0.54
17.00 0.64
18.00 0.75
19.00 0.86
20.00 0.99
21.00 1.13
22.00 1.28
23.00 1.44
24.00 1.61
25.00 1.79
26.00 1.98
27.00 2.18
28.00 2.39
29.00 2.62
30.00 2.85
31.00 3.09
32.00 3.35
33.00 3.61
34.00 3.88
35.00 4.17
36.00 4.46
37.00 4.76
38.00 5.07
39.00 5.38
40.00 5.71
41.00 6.03
42.00 6.37
43.00 6.71
44.00 7.05
45.00 7.40
46.00 7.75
47.00 8.11
48.00 8.47
49.00 8.83
50.00 9.19
51.00 9.55
52.00 9.91
53.00 10.27
54.00 10.63
55.00 10.99
56.00 11.34
57.00 11.70
58.00 12.05
59.00 12.39
60.00 12.73
61.00 13.06
62.00 13.38
63.00 13.70
64.00 14.01
65.00 14.30
66.00 14.59
67.00 14.87
68.00 15.14
69.00 15.40
70.00 15.65
71.00 15.89
72.00 16.13
73.00 16.36
74.00 16.59
75.00 16.82
76.00 17.04
77.00 17.27
78.00 17.51
79.00 17.75
80.00 17.99
81.00 18.25
82.00 18.52
83.00 18.80
84.00 19.09
85.00 19.39
86.00 19.71
87.00 20.04
88.00 20.38
89.00 20.73
90.00 21.10
91.00 21.47
92.00 21.84
93.00 22.21
94.00 22.58
95.00 22.94
96.00 23.28
97.00 23.60
98.00 23.90
99.00 24.16
100.00 24.39
101.00 24.59
102.00 24.75
103.00 24.88
104.00 24.99
105.00 25.07
106.00 25.15
107.00 25.21
108.00 25.28
109.00 25.35
110.00 25.44
111.00 25.54
112.00 25.67
113.00 25.81
114.00 25.99
115.00 26.19
116.00 26.42
117.00 26.67
118.00 26.96
119.00 27.26
120.00 27.59
121.00 27.93
122.00 28.28
123.00 28.63
124.00 28.96
125.00 29.28
126.00 29.57
127.00 29.82
128.00 30.04
129.00 30.21
130.00 30.34
131.00 30.45
132.00 30.54
133.00 30.63
134.00 30.72
135.00 30.84
136.00 30.99
137.00 31.20
138.00 31.46
139.00 31.80
140.00 32.22
141.00 32.76
142.00 33.41
143.00 34.21
144.00 35.19
145.00 36.37
146.00 37.82
147.00 39.59
148.00 41.66
149.00 43.70
150.00 44.54
151.00 43.26
152.00 41.02
153.00 38.84
154.00 36.98
155.00 35.42
156.00 34.13
157.00 33.04
158.00 32.13
159.00 31.37
160.00 30.74
161.00 30.22
162.00 29.80
163.00 29.48
164.00 29.24
165.00 29.09
166.00 29.02
167.00 29.02
168.00 29.11
169.00 29.26
170.00 29.51
171.00 29.82
172.00 30.23
173.00 30.72
174.00 31.30
175.00 31.98
176.00 32.77
177.00 33.66
178.00 34.66
179.00 35.76
180.00 36.90
181.00 38.01
182.00 38.89
183.00 39.32
184.00 39.19
185.00 38.58
186.00 37.70
187.00 36.75
188.00 35.83
189.00 35.00
190.00 34.27
191.00 33.65
192.00 33.13
193.00 32.72
194.00 32.39
195.00 32.14
196.00 31.97
197.00 31.89
198.00 31.87
199.00 31.93
200.00 32.05
201.00 32.24
202.00 32.49
203.00 32.81
204.00 33.18
205.00 33.60
206.00 34.06
207.00 34.54
208.00 35.02
209.00 35.47
210.00 35.84
211.00 36.09
212.00 36.18
213.00 36.09
214.00 35.84
215.00 35.45
216.00 34.96
217.00 34.43
218.00 33.89
219.00 33.37
220.00 32.88
221.00 32.43
222.00 32.04
223.00 31.71
224.00 31.43
225.00 31.22
226.00 31.07
227.00 30.98
228.00 30.96
229.00 31.01
230.00 31.13
231.00 31.32
232.00 31.59
233.00 31.95
234.00 32.39
235.00 32.94
236.00 33.60
237.00 34.38
238.00 35.30
239.00 36.37
240.00 37.60
241.00 38.96
242.00 40.34
243.00 41.43
244.00 41.76
245.00 41.11
246.00 39.81
247.00 38.32
248.00 36.87
249.00 35.57
250.00 34.42
251.00 33.41
252.00 32.52
253.00 31.75
254.00 31.08
255.00 30.48
256.00 29.96
257.00 29.49
258.00 29.08
259.00 28.71
260.00 28.38
261.00 28.06
262.00 27.77
263.00 27.48
264.00 27.20
265.00 26.91
266.00 26.60
267.00 26.28
268.00 25.93
269.00 25.55
270.00 25.15
271.00 24.72
272.00 24.27
273.00 23.80
274.00 23.31
275.00 22.80
276.00 22.29
277.00 21.77
278.00 21.25
279.00 20.73
280.00 20.21
281.00 19.69
282.00 19.18
283.00 18.68
284.00 18.18
285.00 17.69
286.00 17.21
287.00 16.73
288.00 16.26
289.00 15.80
290.00 15.34
291.00 14.89
292.00 14.45
293.00 14.01
294.00 13.58
295.00 13.15
296.00 12.74
297.00 12.32
298.00 11.91
299.00 11.50
300.00 11.10
301.00 10.71
302.00 10.32
303.00 9.93
304.00 9.56
305.00 9.18
306.00 8.81
307.00 8.45
308.00 8.10
309.00 7.75
310.00 7.41
311.00 7.08
312.00 6.75
313.00 6.43
314.00 6.12
315.00 5.81
316.00 5.52
317.00 5.23
318.00 4.95
319.00 4.69
320.00 4.42
321.00 4.17
322.00 3.93
323.00 3.69
324.00 3.46
325.00 3.25
326.00 3.04
327.00 2.84
328.00 2.65
329.00 2.47
330.00 2.29
331.00 2.13
332.00 1.97
333.00 1.82
334.00 1.68
335.00 1.55
336.00 1.42
337.00 1.31
338.00 1.19
339.00 1.09
340.00 0.99
341.00 0.90
342.00 0.81
343.00 0.73
344.00 0.66
345.00 0.59
346.00 0.52
347.00 0.46
348.00 0.40
349.00 0.35
350.00 0.30
351.00 0.26
352.00 0.22
353.00 0.18
354.00 0.15
355.00 0.11
356.00 0.09
357.00 0.06
358.00 0.04
359.00 0.02
VERTICAL 360
0.00 15.51
1.00 9.37
2.00 5.42
3.00 2.80
4.00 1.14
5.00 0.23
6.00 0.00
7.00 0.40
8.00 1.43
9.00 3.17
10.00 5.82
11.00 9.83
12.00 16.22
13.00 21.73
14.00 17.31
15.00 15.22
16.00 15.78
17.00 18.94
18.00 26.55
19.00 27.36
20.00 20.18
21.00 17.37
22.00 16.53
23.00 16.98
24.00 18.65
25.00 21.97
26.00 28.57
27.00 31.28
28.00 23.72
29.00 20.32
30.00 19.18
31.00 19.76
32.00 22.17
33.00 27.63
34.00 36.47
35.00 27.44
36.00 22.54
37.00 20.19
38.00 19.20
39.00 19.27
40.00 20.37
41.00 22.74
42.00 27.05
43.00 36.82
44.00 40.16
45.00 30.12
46.00 26.51
47.00 24.57
48.00 23.44
49.00 22.87
50.00 22.74
51.00 22.82
52.00 22.84
53.00 22.64
54.00 22.39
55.00 22.38
56.00 22.84
57.00 23.89
58.00 25.55
59.00 27.76
60.00 30.32
61.00 32.92
62.00 35.19
63.00 37.02
64.00 38.87
65.00 40.79
66.00 41.77
67.00 41.17
68.00 39.01
69.00 36.29
70.00 34.18
71.00 32.87
72.00 32.03
73.00 31.21
74.00 30.16
75.00 28.98
76.00 27.91
77.00 27.19
78.00 26.91
79.00 26.87
80.00 26.82
81.00 26.56
82.00 26.07
83.00 25.52
84.00 25.21
85.00 25.34
86.00 25.74
87.00 26.18
88.00 26.81
89.00 27.83
90.00 28.80
91.00 28.69
92.00 27.43
93.00 26.78
94.00 27.19
95.00 28.46
96.00 30.35
97.00 32.55
98.00 34.49
99.00 35.67
100.00 36.63
101.00 38.10
102.00 40.26
103.00 42.91
104.00 44.91
105.00 44.46
106.00 42.46
107.00 40.45
108.00 39.16
109.00 38.98
110.00 39.83
111.00 40.68
112.00 40.04
113.00 38.24
114.00 36.41
115.00 35.04
116.00 34.32
117.00 34.22
118.00 34.66
119.00 35.43
120.00 36.33
121.00 37.11
122.00 37.56
123.00 37.54
124.00 36.96
125.00 35.69
126.00 34.08
127.00 32.85
128.00 32.46
129.00 32.88
130.00 33.74
131.00 34.77
132.00 36.17
133.00 38.25
134.00 40.73
135.00 42.71
136.00 43.48
137.00 42.28
138.00 39.91
139.00 38.00
140.00 37.29
141.00 38.33
142.00 41.87
143.00 43.12
144.00 37.61
145.00 34.28
146.00 33.03
147.00 33.15
148.00 34.02
149.00 34.84
150.00 34.96
151.00 34.74
152.00 34.93
153.00 35.32
154.00 34.97
155.00 34.04
156.00 33.67
157.00 34.37
158.00 36.17
159.00 38.60
160.00 40.01
161.00 38.82
162.00 36.77
163.00 35.38
164.00 34.87
165.00 35.01
166.00 35.17
167.00 34.67
168.00 33.77
169.00 33.36
170.00 34.11
171.00 36.18
172.00 39.11
173.00 40.36
174.00 39.32
175.00 38.63
176.00 39.10
177.00 40.35
178.00 41.55
179.00 42.77
180.00 46.07
181.00 53.20
182.00 43.47
183.00 37.46
184.00 34.59
185.00 33.40
186.00 33.26
187.00 33.65
188.00 34.12
189.00 34.18
190.00 33.62
191.00 32.82
192.00 32.39
193.00 32.70
194.00 33.84
195.00 35.52
196.00 36.92
197.00 37.09
198.00 36.37
199.00 35.98
200.00 36.98
201.00 40.38
202.00 44.93
203.00 41.94
204.00 40.02
205.00 43.12
206.00 46.96
207.00 36.56
208.00 31.45
209.00 28.94
210.00 28.03
211.00 28.34
212.00 29.61
213.00 31.49
214.00 33.41
215.00 35.03
216.00 36.65
217.00 38.85
218.00 42.39
219.00 49.64
220.00 59.16
221.00 45.99
222.00 41.46
223.00 38.65
224.00 36.39
225.00 34.67
226.00 33.71
227.00 33.71
228.00 34.64
229.00 35.99
230.00 36.30
231.00 35.14
232.00 33.90
233.00 33.32
234.00 33.49
235.00 34.55
236.00 36.76
237.00 40.47
238.00 45.53
239.00 49.42
240.00 50.19
241.00 48.25
242.00 44.98
243.00 42.98
244.00 42.63
245.00 43.45
246.00 44.04
247.00 43.28
248.00 42.63
249.00 43.32
250.00 43.78
251.00 40.71
252.00 37.09
253.00 34.83
254.00 33.89
255.00 34.00
256.00 34.78
257.00 35.41
258.00 35.04
259.00 33.95
260.00 32.84
261.00 31.93
262.00 31.21
263.00 30.68
264.00 30.45
265.00 30.56
266.00 30.92
267.00 31.25
268.00 31.27
269.00 31.15
270.00 31.28
271.00 31.86
272.00 32.68
273.00 33.21
274.00 32.96
275.00 31.86
276.00 30.37
277.00 29.05
278.00 28.15
279.00 27.63
280.00 27.29
281.00 26.93
282.00 26.51
283.00 26.12
284.00 25.90
285.00 25.98
286.00 26.38
287.00 27.13
288.00 28.26
289.00 29.77
290.00 31.52
291.00 32.95
292.00 33.06
293.00 31.36
294.00 28.61
295.00 25.77
296.00 23.35
297.00 21.54
298.00 20.35
299.00 19.70
300.00 19.47
301.00 19.54
302.00 19.80
303.00 20.25
304.00 21.01
305.00 22.33
306.00 24.56
307.00 27.94
308.00 30.19
309.00 27.12
310.00 23.46
311.00 20.97
312.00 19.40
313.00 18.57
314.00 18.39
315.00 18.91
316.00 20.22
317.00 22.58
318.00 26.64
319.00 34.92
320.00 39.92
321.00 30.32
322.00 27.00
323.00 25.83
324.00 25.84
325.00 26.50
326.00 27.12
327.00 26.99
328.00 26.17
329.00 25.49
330.00 25.75
331.00 27.53
332.00 29.31
333.00 25.78
334.00 21.28
335.00 18.40
336.00 16.85
337.00 16.34
338.00 16.67
339.00 17.69
340.00 19.14
341.00 20.45
342.00 20.94
343.00 20.77
344.00 20.92
345.00 22.20
346.00 25.56
347.00 30.46
348.00 25.80
349.00 20.50
350.00 17.72
351.00 16.70
352.00 17.32
353.00 20.08
354.00 26.70
355.00 28.56
356.00 21.68
357.00 19.79
358.00 21.76
359.00 23.97
