NAME ATR4518R7_2140_X_CO_M45_08T_yyR
FREQUENCY 2140
GAIN 15.40 dBd
TILT	ELECTRICAL
COMMENT DATE 05.08.2013 -45 degrees polarized system Lever position 08T deg
HORIZONTAL 360
0.00 0.02
1.00 0.01
2.00 0.00
3.00 0.00
4.00 0.01
5.00 0.03
6.00 0.05
7.00 0.07
8.00 0.11
9.00 0.15
10.00 0.20
11.00 0.26
12.00 0.32
13.00 0.40
14.00 0.48
15.00 0.57
16.00 0.67
17.00 0.79
18.00 0.91
19.00 1.04
20.00 1.19
21.00 1.34
22.00 1.51
23.00 1.69
24.00 1.88
25.00 2.09
26.00 2.30
27.00 2.53
28.00 2.78
29.00 3.03
30.00 3.30
31.00 3.59
32.00 3.88
33.00 4.20
34.00 4.52
35.00 4.86
36.00 5.22
37.00 5.59
38.00 5.98
39.00 6.38
40.00 6.80
41.00 7.23
42.00 7.69
43.00 8.15
44.00 8.64
45.00 9.14
46.00 9.66
47.00 10.19
48.00 10.75
49.00 11.32
50.00 11.91
51.00 12.51
52.00 13.13
53.00 13.76
54.00 14.41
55.00 15.06
56.00 15.72
57.00 16.39
58.00 17.05
59.00 17.72
60.00 18.38
61.00 19.02
62.00 19.65
63.00 20.26
64.00 20.84
65.00 21.39
66.00 21.92
67.00 22.42
68.00 22.89
69.00 23.33
70.00 23.76
71.00 24.16
72.00 24.56
73.00 24.94
74.00 25.32
75.00 25.69
76.00 26.06
77.00 26.43
78.00 26.80
79.00 27.17
80.00 27.54
81.00 27.91
82.00 28.27
83.00 28.63
84.00 28.97
85.00 29.31
86.00 29.63
87.00 29.93
88.00 30.22
89.00 30.49
90.00 30.75
91.00 30.99
92.00 31.21
93.00 31.42
94.00 31.62
95.00 31.81
96.00 32.00
97.00 32.19
98.00 32.38
99.00 32.57
100.00 32.76
101.00 32.97
102.00 33.18
103.00 33.40
104.00 33.63
105.00 33.87
106.00 34.12
107.00 34.37
108.00 34.64
109.00 34.91
110.00 35.18
111.00 35.47
112.00 35.76
113.00 36.07
114.00 36.39
115.00 36.73
116.00 37.10
117.00 37.50
118.00 37.95
119.00 38.46
120.00 39.04
121.00 39.70
122.00 40.47
123.00 41.37
124.00 42.40
125.00 43.57
126.00 44.84
127.00 46.03
128.00 46.80
129.00 46.71
130.00 45.76
131.00 44.34
132.00 42.84
133.00 41.44
134.00 40.20
135.00 39.13
136.00 38.22
137.00 37.46
138.00 36.84
139.00 36.36
140.00 36.00
141.00 35.76
142.00 35.64
143.00 35.65
144.00 35.77
145.00 36.04
146.00 36.45
147.00 37.02
148.00 37.78
149.00 38.76
150.00 40.03
151.00 41.70
152.00 43.93
153.00 47.13
154.00 52.42
155.00 63.56
156.00 54.21
157.00 48.09
158.00 44.59
159.00 42.22
160.00 40.48
161.00 39.15
162.00 38.14
163.00 37.37
164.00 36.80
165.00 36.41
166.00 36.16
167.00 36.06
168.00 36.09
169.00 36.24
170.00 36.50
171.00 36.87
172.00 37.33
173.00 37.84
174.00 38.37
175.00 38.85
176.00 39.21
177.00 39.36
178.00 39.26
179.00 38.93
180.00 38.42
181.00 37.82
182.00 37.20
183.00 36.60
184.00 36.07
185.00 35.61
186.00 35.23
187.00 34.93
188.00 34.72
189.00 34.58
190.00 34.52
191.00 34.52
192.00 34.57
193.00 34.67
194.00 34.80
195.00 34.95
196.00 35.09
197.00 35.22
198.00 35.31
199.00 35.36
200.00 35.36
201.00 35.31
202.00 35.21
203.00 35.10
204.00 34.98
205.00 34.86
206.00 34.78
207.00 34.74
208.00 34.74
209.00 34.82
210.00 34.97
211.00 35.20
212.00 35.52
213.00 35.95
214.00 36.48
215.00 37.12
216.00 37.86
217.00 38.68
218.00 39.53
219.00 40.29
220.00 40.78
221.00 40.83
222.00 40.36
223.00 39.49
224.00 38.42
225.00 37.30
226.00 36.22
227.00 35.22
228.00 34.31
229.00 33.50
230.00 32.78
231.00 32.13
232.00 31.56
233.00 31.05
234.00 30.60
235.00 30.19
236.00 29.82
237.00 29.49
238.00 29.18
239.00 28.89
240.00 28.62
241.00 28.36
242.00 28.11
243.00 27.87
244.00 27.63
245.00 27.40
246.00 27.17
247.00 26.95
248.00 26.73
249.00 26.51
250.00 26.31
251.00 26.11
252.00 25.91
253.00 25.73
254.00 25.54
255.00 25.36
256.00 25.18
257.00 25.00
258.00 24.80
259.00 24.60
260.00 24.38
261.00 24.15
262.00 23.89
263.00 23.61
264.00 23.31
265.00 22.98
266.00 22.63
267.00 22.26
268.00 21.87
269.00 21.47
270.00 21.05
271.00 20.63
272.00 20.21
273.00 19.78
274.00 19.36
275.00 18.94
276.00 18.52
277.00 18.10
278.00 17.70
279.00 17.30
280.00 16.91
281.00 16.52
282.00 16.14
283.00 15.77
284.00 15.40
285.00 15.04
286.00 14.68
287.00 14.34
288.00 13.99
289.00 13.65
290.00 13.31
291.00 12.97
292.00 12.64
293.00 12.32
294.00 11.99
295.00 11.68
296.00 11.36
297.00 11.05
298.00 10.75
299.00 10.45
300.00 10.15
301.00 9.86
302.00 9.58
303.00 9.30
304.00 9.03
305.00 8.76
306.00 8.50
307.00 8.25
308.00 8.00
309.00 7.75
310.00 7.51
311.00 7.28
312.00 7.05
313.00 6.83
314.00 6.61
315.00 6.39
316.00 6.17
317.00 5.96
318.00 5.75
319.00 5.54
320.00 5.33
321.00 5.13
322.00 4.93
323.00 4.72
324.00 4.52
325.00 4.32
326.00 4.12
327.00 3.92
328.00 3.72
329.00 3.53
330.00 3.33
331.00 3.14
332.00 2.95
333.00 2.77
334.00 2.58
335.00 2.41
336.00 2.23
337.00 2.06
338.00 1.90
339.00 1.74
340.00 1.59
341.00 1.45
342.00 1.31
343.00 1.18
344.00 1.05
345.00 0.94
346.00 0.83
347.00 0.72
348.00 0.63
349.00 0.54
350.00 0.46
351.00 0.38
352.00 0.32
353.00 0.26
354.00 0.20
355.00 0.16
356.00 0.12
357.00 0.08
358.00 0.05
359.00 0.03
VERTICAL 360
0.00 23.96
1.00 21.55
2.00 16.58
3.00 11.65
4.00 7.54
5.00 4.36
6.00 2.07
7.00 0.63
8.00 0.01
9.00 0.20
10.00 1.28
11.00 3.42
12.00 7.15
13.00 14.36
14.00 31.60
15.00 15.80
16.00 12.93
17.00 13.47
18.00 16.30
19.00 19.90
20.00 19.54
21.00 17.24
22.00 16.20
23.00 16.83
24.00 19.83
25.00 27.46
26.00 25.91
27.00 19.51
28.00 17.61
29.00 18.20
30.00 20.79
31.00 25.00
32.00 26.88
33.00 23.32
34.00 20.28
35.00 18.84
36.00 18.80
37.00 19.85
38.00 21.14
39.00 21.45
40.00 20.84
41.00 20.31
42.00 20.20
43.00 20.46
44.00 21.11
45.00 22.25
46.00 24.01
47.00 26.29
48.00 28.53
49.00 29.66
50.00 29.51
51.00 29.33
52.00 30.30
53.00 33.61
54.00 43.15
55.00 42.53
56.00 34.85
57.00 32.68
58.00 32.52
59.00 33.20
60.00 34.00
61.00 34.65
62.00 35.31
63.00 36.11
64.00 36.79
65.00 37.14
66.00 37.51
67.00 38.14
68.00 38.55
69.00 37.92
70.00 36.25
71.00 34.38
72.00 33.00
73.00 32.19
74.00 31.67
75.00 31.07
76.00 30.29
77.00 29.45
78.00 28.76
79.00 28.30
80.00 27.98
81.00 27.62
82.00 27.21
83.00 26.93
84.00 26.85
85.00 27.02
86.00 27.61
87.00 28.83
88.00 30.41
89.00 31.37
90.00 31.18
91.00 30.39
92.00 29.42
93.00 28.50
94.00 27.84
95.00 27.53
96.00 27.59
97.00 28.07
98.00 28.86
99.00 29.73
100.00 30.55
101.00 31.50
102.00 32.77
103.00 34.29
104.00 35.82
105.00 36.97
106.00 37.37
107.00 37.10
108.00 36.94
109.00 37.68
110.00 39.79
111.00 43.33
112.00 47.89
113.00 53.05
114.00 50.63
115.00 45.39
116.00 43.25
117.00 43.32
118.00 44.97
119.00 47.70
120.00 51.08
121.00 52.69
122.00 48.20
123.00 43.95
124.00 41.27
125.00 38.96
126.00 36.80
127.00 35.58
128.00 35.88
129.00 37.90
130.00 42.02
131.00 50.78
132.00 48.48
133.00 40.45
134.00 37.29
135.00 36.56
136.00 37.50
137.00 39.52
138.00 41.84
139.00 43.60
140.00 44.86
141.00 47.20
142.00 52.52
143.00 46.84
144.00 39.81
145.00 36.54
146.00 35.85
147.00 37.54
148.00 41.25
149.00 43.83
150.00 45.17
151.00 51.85
152.00 48.82
153.00 43.70
154.00 42.47
155.00 38.01
156.00 33.87
157.00 32.56
158.00 34.15
159.00 38.49
160.00 38.88
161.00 35.67
162.00 35.07
163.00 36.50
164.00 38.70
165.00 39.88
166.00 39.10
167.00 37.26
168.00 35.59
169.00 34.74
170.00 34.92
171.00 36.05
172.00 37.98
173.00 40.92
174.00 45.36
175.00 49.02
176.00 44.95
177.00 39.79
178.00 36.87
179.00 36.23
180.00 36.95
181.00 36.78
182.00 35.83
183.00 36.33
184.00 38.99
185.00 43.50
186.00 47.68
187.00 47.76
188.00 46.03
189.00 46.46
190.00 49.56
191.00 52.55
192.00 50.23
193.00 42.89
194.00 37.48
195.00 34.40
196.00 33.01
197.00 32.87
198.00 33.37
199.00 33.98
200.00 35.15
201.00 38.44
202.00 43.91
203.00 40.66
204.00 37.50
205.00 37.27
206.00 37.70
207.00 37.35
208.00 37.19
209.00 38.00
210.00 39.83
211.00 42.27
212.00 42.26
213.00 40.24
214.00 39.29
215.00 38.20
216.00 36.03
217.00 34.54
218.00 34.73
219.00 36.63
220.00 39.47
221.00 41.04
222.00 41.45
223.00 43.04
224.00 45.66
225.00 45.56
226.00 44.17
227.00 45.31
228.00 49.79
229.00 46.86
230.00 41.11
231.00 38.06
232.00 35.88
233.00 33.90
234.00 32.62
235.00 32.64
236.00 34.31
237.00 37.70
238.00 40.48
239.00 38.67
240.00 36.18
241.00 34.69
242.00 34.09
243.00 34.26
244.00 34.75
245.00 34.75
246.00 34.24
247.00 34.01
248.00 34.63
249.00 36.32
250.00 39.04
251.00 41.89
252.00 41.94
253.00 38.97
254.00 36.00
255.00 33.82
256.00 32.24
257.00 30.94
258.00 29.74
259.00 28.67
260.00 27.84
261.00 27.27
262.00 26.83
263.00 26.34
264.00 25.68
265.00 24.84
266.00 23.99
267.00 23.31
268.00 22.90
269.00 22.79
270.00 22.86
271.00 22.84
272.00 22.46
273.00 21.70
274.00 20.83
275.00 20.19
276.00 19.94
277.00 20.02
278.00 20.26
279.00 20.41
280.00 20.32
281.00 19.99
282.00 19.52
283.00 19.06
284.00 18.74
285.00 18.60
286.00 18.65
287.00 18.88
288.00 19.23
289.00 19.63
290.00 20.01
291.00 20.37
292.00 20.78
293.00 21.32
294.00 21.96
295.00 22.59
296.00 23.11
297.00 23.56
298.00 24.11
299.00 24.95
300.00 26.19
301.00 27.80
302.00 29.57
303.00 31.05
304.00 31.77
305.00 31.66
306.00 30.61
307.00 28.43
308.00 25.73
309.00 23.47
310.00 22.11
311.00 21.72
312.00 22.25
313.00 23.58
314.00 25.81
315.00 30.23
316.00 41.90
317.00 30.81
318.00 24.39
319.00 21.94
320.00 21.92
321.00 24.61
322.00 33.15
323.00 30.88
324.00 22.42
325.00 18.74
326.00 17.00
327.00 16.61
328.00 17.43
329.00 19.47
330.00 21.47
331.00 19.57
332.00 15.85
333.00 13.14
334.00 11.63
335.00 11.20
336.00 11.83
337.00 13.59
338.00 16.76
339.00 22.27
340.00 31.26
341.00 27.36
342.00 23.01
343.00 21.33
344.00 20.44
345.00 19.94
346.00 20.32
347.00 22.01
348.00 24.33
349.00 24.64
350.00 23.72
351.00 24.40
352.00 28.28
353.00 36.35
354.00 27.60
355.00 22.01
356.00 19.56
357.00 19.06
358.00 20.15
359.00 22.41
