NAME ATR4518R7_2535_X_CO_P45_04T_yyR
FREQUENCY 2535
GAIN 15.49 dBd
TILT	ELECTRICAL
COMMENT DATE 05.08.2013 +45 degrees polarized system Lever position 04T deg
HORIZONTAL 360
0.00 0.02
1.00 0.03
2.00 0.06
3.00 0.09
4.00 0.13
5.00 0.18
6.00 0.24
7.00 0.31
8.00 0.38
9.00 0.46
10.00 0.54
11.00 0.63
12.00 0.72
13.00 0.82
14.00 0.91
15.00 1.02
16.00 1.12
17.00 1.22
18.00 1.33
19.00 1.44
20.00 1.54
21.00 1.65
22.00 1.76
23.00 1.88
24.00 1.99
25.00 2.11
26.00 2.23
27.00 2.35
28.00 2.49
29.00 2.62
30.00 2.77
31.00 2.92
32.00 3.08
33.00 3.25
34.00 3.43
35.00 3.62
36.00 3.82
37.00 4.03
38.00 4.25
39.00 4.49
40.00 4.74
41.00 5.00
42.00 5.27
43.00 5.56
44.00 5.86
45.00 6.17
46.00 6.50
47.00 6.84
48.00 7.20
49.00 7.57
50.00 7.96
51.00 8.37
52.00 8.80
53.00 9.24
54.00 9.71
55.00 10.19
56.00 10.70
57.00 11.24
58.00 11.79
59.00 12.37
60.00 12.96
61.00 13.58
62.00 14.22
63.00 14.88
64.00 15.55
65.00 16.23
66.00 16.91
67.00 17.59
68.00 18.26
69.00 18.92
70.00 19.55
71.00 20.16
72.00 20.75
73.00 21.31
74.00 21.87
75.00 22.42
76.00 22.99
77.00 23.59
78.00 24.23
79.00 24.93
80.00 25.72
81.00 26.60
82.00 27.59
83.00 28.70
84.00 29.92
85.00 31.22
86.00 32.45
87.00 33.38
88.00 33.71
89.00 33.35
90.00 32.52
91.00 31.51
92.00 30.51
93.00 29.63
94.00 28.89
95.00 28.30
96.00 27.85
97.00 27.53
98.00 27.33
99.00 27.26
100.00 27.29
101.00 27.42
102.00 27.65
103.00 27.96
104.00 28.35
105.00 28.81
106.00 29.32
107.00 29.85
108.00 30.39
109.00 30.92
110.00 31.42
111.00 31.87
112.00 32.28
113.00 32.67
114.00 33.07
115.00 33.52
116.00 34.07
117.00 34.76
118.00 35.66
119.00 36.87
120.00 38.50
121.00 40.80
122.00 44.30
123.00 50.55
124.00 55.37
125.00 46.46
126.00 41.61
127.00 38.51
128.00 36.30
129.00 34.64
130.00 33.37
131.00 32.39
132.00 31.66
133.00 31.15
134.00 30.83
135.00 30.69
136.00 30.73
137.00 30.94
138.00 31.35
139.00 31.97
140.00 32.83
141.00 33.97
142.00 35.47
143.00 37.47
144.00 40.25
145.00 44.42
146.00 51.43
147.00 51.12
148.00 44.55
149.00 40.75
150.00 38.30
151.00 36.61
152.00 35.41
153.00 34.58
154.00 34.05
155.00 33.76
156.00 33.67
157.00 33.77
158.00 34.04
159.00 34.42
160.00 34.89
161.00 35.36
162.00 35.73
163.00 35.89
164.00 35.79
165.00 35.43
166.00 34.90
167.00 34.30
168.00 33.73
169.00 33.25
170.00 32.89
171.00 32.67
172.00 32.60
173.00 32.71
174.00 33.00
175.00 33.49
176.00 34.21
177.00 35.20
178.00 36.51
179.00 38.26
180.00 40.59
181.00 43.76
182.00 47.75
183.00 49.02
184.00 45.53
185.00 42.22
186.00 39.85
187.00 38.16
188.00 36.96
189.00 36.14
190.00 35.62
191.00 35.38
192.00 35.39
193.00 35.64
194.00 36.15
195.00 36.94
196.00 38.06
197.00 39.58
198.00 41.67
199.00 44.64
200.00 49.19
201.00 55.83
202.00 52.15
203.00 46.77
204.00 43.47
205.00 41.30
206.00 39.78
207.00 38.72
208.00 38.03
209.00 37.61
210.00 37.45
211.00 37.51
212.00 37.77
213.00 38.24
214.00 38.86
215.00 39.58
216.00 40.30
217.00 40.79
218.00 40.84
219.00 40.33
220.00 39.41
221.00 38.28
222.00 37.13
223.00 36.06
224.00 35.11
225.00 34.28
226.00 33.57
227.00 32.98
228.00 32.50
229.00 32.12
230.00 31.83
231.00 31.62
232.00 31.49
233.00 31.43
234.00 31.42
235.00 31.48
236.00 31.59
237.00 31.74
238.00 31.93
239.00 32.16
240.00 32.42
241.00 32.70
242.00 32.99
243.00 33.29
244.00 33.60
245.00 33.91
246.00 34.21
247.00 34.51
248.00 34.80
249.00 35.08
250.00 35.36
251.00 35.63
252.00 35.92
253.00 36.22
254.00 36.56
255.00 36.95
256.00 37.43
257.00 38.02
258.00 38.74
259.00 39.64
260.00 40.74
261.00 42.00
262.00 43.23
263.00 43.84
264.00 43.12
265.00 41.25
266.00 39.04
267.00 36.91
268.00 34.98
269.00 33.28
270.00 31.76
271.00 30.42
272.00 29.20
273.00 28.11
274.00 27.13
275.00 26.24
276.00 25.42
277.00 24.67
278.00 23.98
279.00 23.35
280.00 22.75
281.00 22.20
282.00 21.68
283.00 21.18
284.00 20.70
285.00 20.23
286.00 19.78
287.00 19.33
288.00 18.88
289.00 18.44
290.00 17.99
291.00 17.53
292.00 17.08
293.00 16.61
294.00 16.15
295.00 15.67
296.00 15.20
297.00 14.71
298.00 14.23
299.00 13.75
300.00 13.26
301.00 12.78
302.00 12.30
303.00 11.83
304.00 11.36
305.00 10.89
306.00 10.43
307.00 9.98
308.00 9.53
309.00 9.10
310.00 8.67
311.00 8.25
312.00 7.84
313.00 7.45
314.00 7.06
315.00 6.68
316.00 6.32
317.00 5.96
318.00 5.62
319.00 5.29
320.00 4.97
321.00 4.66
322.00 4.37
323.00 4.09
324.00 3.82
325.00 3.56
326.00 3.31
327.00 3.08
328.00 2.86
329.00 2.65
330.00 2.45
331.00 2.27
332.00 2.10
333.00 1.93
334.00 1.78
335.00 1.63
336.00 1.50
337.00 1.37
338.00 1.25
339.00 1.14
340.00 1.03
341.00 0.93
342.00 0.83
343.00 0.75
344.00 0.66
345.00 0.58
346.00 0.51
347.00 0.43
348.00 0.37
349.00 0.31
350.00 0.25
351.00 0.20
352.00 0.15
353.00 0.11
354.00 0.08
355.00 0.05
356.00 0.03
357.00 0.01
358.00 0.01
359.00 0.01
VERTICAL 360
0.00 10.29
1.00 5.57
2.00 2.45
3.00 0.63
4.00 0.00
5.00 0.57
6.00 2.51
7.00 6.38
8.00 14.43
9.00 22.95
10.00 13.82
11.00 12.45
12.00 14.99
13.00 19.73
14.00 17.05
15.00 13.37
16.00 12.61
17.00 14.46
18.00 20.22
19.00 31.95
20.00 21.10
21.00 17.62
22.00 18.13
23.00 22.73
24.00 33.55
25.00 22.81
26.00 17.97
27.00 16.80
28.00 17.79
29.00 20.42
30.00 23.68
31.00 25.68
32.00 24.71
33.00 21.29
34.00 18.15
35.00 16.44
36.00 16.30
37.00 17.80
38.00 21.29
39.00 28.58
40.00 34.18
41.00 25.05
42.00 21.29
43.00 20.23
44.00 21.64
45.00 26.93
46.00 39.15
47.00 28.55
48.00 24.62
49.00 24.07
50.00 25.01
51.00 26.78
52.00 29.09
53.00 30.13
54.00 28.31
55.00 26.44
56.00 25.82
57.00 26.25
58.00 27.43
59.00 29.50
60.00 33.48
61.00 40.10
62.00 35.87
63.00 30.87
64.00 28.82
65.00 28.05
66.00 27.74
67.00 27.71
68.00 28.12
69.00 29.05
70.00 30.23
71.00 31.05
72.00 31.31
73.00 31.43
74.00 32.13
75.00 33.64
76.00 35.08
77.00 36.78
78.00 44.11
79.00 42.32
80.00 32.74
81.00 29.48
82.00 28.71
83.00 29.20
84.00 29.77
85.00 29.78
86.00 30.16
87.00 32.33
88.00 36.76
89.00 38.30
90.00 33.91
91.00 29.41
92.00 26.82
93.00 26.87
94.00 30.05
95.00 36.13
96.00 37.55
97.00 35.10
98.00 32.38
99.00 31.34
100.00 34.19
101.00 44.69
102.00 43.26
103.00 41.67
104.00 45.95
105.00 41.38
106.00 40.23
107.00 44.51
108.00 51.96
109.00 45.87
110.00 39.99
111.00 37.48
112.00 36.90
113.00 37.14
114.00 38.15
115.00 39.17
116.00 38.47
117.00 38.04
118.00 39.29
119.00 40.93
120.00 41.48
121.00 43.08
122.00 47.39
123.00 42.83
124.00 38.26
125.00 37.65
126.00 38.23
127.00 37.78
128.00 39.02
129.00 45.25
130.00 52.78
131.00 46.77
132.00 41.93
133.00 39.02
134.00 38.34
135.00 36.77
136.00 34.94
137.00 34.99
138.00 36.21
139.00 38.28
140.00 42.78
141.00 39.32
142.00 34.77
143.00 34.04
144.00 34.24
145.00 33.05
146.00 31.99
147.00 32.06
148.00 32.66
149.00 33.00
150.00 33.41
151.00 35.01
152.00 38.17
153.00 40.79
154.00 39.77
155.00 37.77
156.00 37.51
157.00 38.87
158.00 38.73
159.00 37.77
160.00 38.99
161.00 41.87
162.00 44.82
163.00 52.61
164.00 54.59
165.00 48.49
166.00 52.47
167.00 47.99
168.00 42.47
169.00 40.57
170.00 39.76
171.00 40.29
172.00 43.61
173.00 52.07
174.00 49.35
175.00 41.26
176.00 37.32
177.00 35.15
178.00 34.22
179.00 34.67
180.00 36.57
181.00 36.48
182.00 34.01
183.00 33.23
184.00 34.67
185.00 37.38
186.00 39.25
187.00 38.36
188.00 37.70
189.00 39.38
190.00 41.18
191.00 39.88
192.00 39.84
193.00 43.33
194.00 47.90
195.00 43.59
196.00 40.34
197.00 40.44
198.00 45.35
199.00 56.03
200.00 43.29
201.00 40.66
202.00 41.02
203.00 39.73
204.00 37.07
205.00 35.82
206.00 36.53
207.00 38.83
208.00 40.68
209.00 41.50
210.00 45.12
211.00 55.45
212.00 46.07
213.00 41.65
214.00 42.01
215.00 43.74
216.00 42.87
217.00 43.52
218.00 44.46
219.00 41.49
220.00 40.93
221.00 41.19
222.00 39.18
223.00 38.78
224.00 40.89
225.00 42.38
226.00 39.75
227.00 35.85
228.00 33.52
229.00 32.97
230.00 33.60
231.00 34.87
232.00 36.47
233.00 37.68
234.00 37.71
235.00 36.54
236.00 34.92
237.00 33.43
238.00 32.28
239.00 31.93
240.00 32.64
241.00 34.04
242.00 35.56
243.00 36.93
244.00 37.78
245.00 38.17
246.00 38.11
247.00 36.52
248.00 34.51
249.00 33.71
250.00 34.41
251.00 35.62
252.00 35.30
253.00 33.52
254.00 31.88
255.00 31.41
256.00 32.53
257.00 34.84
258.00 37.15
259.00 40.54
260.00 46.57
261.00 44.46
262.00 44.11
263.00 45.32
264.00 38.70
265.00 35.82
266.00 37.03
267.00 42.52
268.00 51.88
269.00 46.81
270.00 37.70
271.00 33.36
272.00 32.08
273.00 32.56
274.00 34.51
275.00 42.29
276.00 44.19
277.00 34.03
278.00 32.62
279.00 34.90
280.00 38.08
281.00 36.42
282.00 32.56
283.00 30.75
284.00 31.79
285.00 36.13
286.00 42.97
287.00 42.50
288.00 38.11
289.00 33.51
290.00 28.95
291.00 25.13
292.00 22.18
293.00 19.86
294.00 17.99
295.00 16.47
296.00 15.28
297.00 14.36
298.00 13.66
299.00 13.16
300.00 12.92
301.00 13.00
302.00 13.43
303.00 14.23
304.00 15.55
305.00 17.81
306.00 21.94
307.00 28.45
308.00 25.76
309.00 20.59
310.00 18.21
311.00 17.64
312.00 18.71
313.00 21.61
314.00 25.31
315.00 24.79
316.00 22.40
317.00 21.62
318.00 22.58
319.00 25.53
320.00 29.70
321.00 27.08
322.00 22.56
323.00 20.45
324.00 20.37
325.00 22.44
326.00 26.92
327.00 25.63
328.00 20.28
329.00 17.88
330.00 17.97
331.00 20.69
332.00 29.10
333.00 33.48
334.00 22.09
335.00 18.84
336.00 18.44
337.00 20.74
338.00 27.94
339.00 32.25
340.00 24.09
341.00 23.13
342.00 27.97
343.00 33.01
344.00 22.93
345.00 19.60
346.00 19.48
347.00 21.86
348.00 27.18
349.00 32.86
350.00 29.19
351.00 27.12
352.00 28.83
353.00 32.08
354.00 26.51
355.00 21.65
356.00 19.76
357.00 20.28
358.00 21.74
359.00 16.95
