NAME ATR4518R7_0947_X_CO_M45_09T
FREQUENCY 0947
GAIN 15.12 dBd
TILT	ELECTRICAL
COMMENT DATE 05.08.2013 -45 degrees polarized system Lever position 09T deg
HORIZONTAL 360
0.00 0.02
1.00 0.01
2.00 0.00
3.00 0.00
4.00 0.01
5.00 0.03
6.00 0.05
7.00 0.08
8.00 0.12
9.00 0.16
10.00 0.21
11.00 0.27
12.00 0.33
13.00 0.41
14.00 0.49
15.00 0.58
16.00 0.67
17.00 0.77
18.00 0.88
19.00 1.00
20.00 1.12
21.00 1.26
22.00 1.40
23.00 1.54
24.00 1.70
25.00 1.86
26.00 2.03
27.00 2.21
28.00 2.39
29.00 2.59
30.00 2.79
31.00 3.00
32.00 3.21
33.00 3.44
34.00 3.67
35.00 3.91
36.00 4.16
37.00 4.41
38.00 4.68
39.00 4.95
40.00 5.23
41.00 5.52
42.00 5.82
43.00 6.13
44.00 6.44
45.00 6.76
46.00 7.10
47.00 7.44
48.00 7.79
49.00 8.15
50.00 8.52
51.00 8.89
52.00 9.28
53.00 9.68
54.00 10.09
55.00 10.51
56.00 10.94
57.00 11.38
58.00 11.84
59.00 12.31
60.00 12.79
61.00 13.28
62.00 13.79
63.00 14.31
64.00 14.85
65.00 15.40
66.00 15.97
67.00 16.56
68.00 17.17
69.00 17.80
70.00 18.44
71.00 19.11
72.00 19.80
73.00 20.51
74.00 21.24
75.00 21.99
76.00 22.77
77.00 23.56
78.00 24.36
79.00 25.16
80.00 25.97
81.00 26.75
82.00 27.50
83.00 28.20
84.00 28.82
85.00 29.35
86.00 29.76
87.00 30.05
88.00 30.24
89.00 30.32
90.00 30.32
91.00 30.27
92.00 30.19
93.00 30.09
94.00 29.99
95.00 29.90
96.00 29.83
97.00 29.78
98.00 29.76
99.00 29.77
100.00 29.81
101.00 29.88
102.00 29.99
103.00 30.13
104.00 30.30
105.00 30.51
106.00 30.76
107.00 31.03
108.00 31.35
109.00 31.69
110.00 32.08
111.00 32.50
112.00 32.95
113.00 33.45
114.00 33.98
115.00 34.55
116.00 35.16
117.00 35.81
118.00 36.51
119.00 37.25
120.00 38.02
121.00 38.84
122.00 39.71
123.00 40.62
124.00 41.58
125.00 42.57
126.00 43.60
127.00 44.65
128.00 45.73
129.00 46.80
130.00 47.85
131.00 48.80
132.00 49.62
133.00 50.19
134.00 50.41
135.00 50.25
136.00 49.71
137.00 48.90
138.00 47.90
139.00 46.81
140.00 45.69
141.00 44.58
142.00 43.50
143.00 42.46
144.00 41.46
145.00 40.52
146.00 39.62
147.00 38.78
148.00 37.98
149.00 37.22
150.00 36.51
151.00 35.84
152.00 35.21
153.00 34.61
154.00 34.05
155.00 33.53
156.00 33.03
157.00 32.57
158.00 32.14
159.00 31.73
160.00 31.35
161.00 30.99
162.00 30.66
163.00 30.36
164.00 30.07
165.00 29.81
166.00 29.56
167.00 29.34
168.00 29.14
169.00 28.95
170.00 28.79
171.00 28.63
172.00 28.50
173.00 28.39
174.00 28.28
175.00 28.20
176.00 28.13
177.00 28.07
178.00 28.03
179.00 28.00
180.00 27.99
181.00 27.99
182.00 28.00
183.00 28.03
184.00 28.07
185.00 28.12
186.00 28.19
187.00 28.27
188.00 28.37
189.00 28.47
190.00 28.59
191.00 28.73
192.00 28.88
193.00 29.04
194.00 29.22
195.00 29.41
196.00 29.63
197.00 29.86
198.00 30.10
199.00 30.37
200.00 30.66
201.00 30.97
202.00 31.30
203.00 31.67
204.00 32.05
205.00 32.47
206.00 32.92
207.00 33.40
208.00 33.92
209.00 34.48
210.00 35.09
211.00 35.73
212.00 36.41
213.00 37.13
214.00 37.87
215.00 38.61
216.00 39.31
217.00 39.91
218.00 40.33
219.00 40.48
220.00 40.35
221.00 39.95
222.00 39.34
223.00 38.60
224.00 37.79
225.00 36.97
226.00 36.16
227.00 35.39
228.00 34.67
229.00 33.98
230.00 33.33
231.00 32.73
232.00 32.17
233.00 31.65
234.00 31.16
235.00 30.71
236.00 30.28
237.00 29.88
238.00 29.51
239.00 29.16
240.00 28.82
241.00 28.51
242.00 28.22
243.00 27.94
244.00 27.67
245.00 27.41
246.00 27.16
247.00 26.91
248.00 26.67
249.00 26.43
250.00 26.20
251.00 25.95
252.00 25.71
253.00 25.45
254.00 25.20
255.00 24.93
256.00 24.65
257.00 24.36
258.00 24.06
259.00 23.75
260.00 23.43
261.00 23.10
262.00 22.76
263.00 22.41
264.00 22.06
265.00 21.69
266.00 21.33
267.00 20.96
268.00 20.58
269.00 20.21
270.00 19.83
271.00 19.45
272.00 19.08
273.00 18.70
274.00 18.33
275.00 17.97
276.00 17.60
277.00 17.25
278.00 16.89
279.00 16.54
280.00 16.20
281.00 15.86
282.00 15.52
283.00 15.19
284.00 14.87
285.00 14.55
286.00 14.23
287.00 13.92
288.00 13.61
289.00 13.31
290.00 13.01
291.00 12.72
292.00 12.43
293.00 12.14
294.00 11.86
295.00 11.58
296.00 11.30
297.00 11.03
298.00 10.76
299.00 10.49
300.00 10.22
301.00 9.95
302.00 9.69
303.00 9.43
304.00 9.17
305.00 8.92
306.00 8.66
307.00 8.41
308.00 8.16
309.00 7.91
310.00 7.66
311.00 7.42
312.00 7.18
313.00 6.93
314.00 6.70
315.00 6.46
316.00 6.23
317.00 5.99
318.00 5.76
319.00 5.54
320.00 5.31
321.00 5.09
322.00 4.87
323.00 4.66
324.00 4.45
325.00 4.24
326.00 4.03
327.00 3.83
328.00 3.63
329.00 3.44
330.00 3.25
331.00 3.07
332.00 2.89
333.00 2.71
334.00 2.54
335.00 2.37
336.00 2.21
337.00 2.05
338.00 1.90
339.00 1.75
340.00 1.61
341.00 1.47
342.00 1.34
343.00 1.22
344.00 1.10
345.00 0.98
346.00 0.88
347.00 0.77
348.00 0.68
349.00 0.59
350.00 0.50
351.00 0.43
352.00 0.36
353.00 0.29
354.00 0.23
355.00 0.18
356.00 0.13
357.00 0.10
358.00 0.06
359.00 0.04
VERTICAL 360
0.00 18.50
1.00 14.37
2.00 10.54
3.00 7.38
4.00 4.89
5.00 2.98
6.00 1.59
7.00 0.66
8.00 0.14
9.00 0.00
10.00 0.24
11.00 0.88
12.00 1.95
13.00 3.50
14.00 5.63
15.00 8.45
16.00 12.18
17.00 17.23
18.00 23.73
19.00 25.45
20.00 22.83
21.00 21.93
22.00 22.74
23.00 25.26
24.00 30.33
25.00 43.09
26.00 35.33
27.00 30.03
28.00 28.38
29.00 28.53
30.00 29.81
31.00 31.42
32.00 31.89
33.00 30.94
34.00 29.95
35.00 29.75
36.00 30.55
37.00 32.27
38.00 33.48
39.00 31.42
40.00 28.18
41.00 25.74
42.00 24.31
43.00 23.73
44.00 23.76
45.00 24.13
46.00 24.82
47.00 26.19
48.00 28.96
49.00 34.91
50.00 40.56
51.00 31.33
52.00 27.40
53.00 25.78
54.00 25.24
55.00 24.93
56.00 24.40
57.00 23.76
58.00 23.39
59.00 23.64
60.00 24.58
61.00 25.81
62.00 26.52
63.00 26.46
64.00 26.18
65.00 26.29
66.00 27.30
67.00 29.52
68.00 32.92
69.00 37.10
70.00 43.01
71.00 55.69
72.00 38.00
73.00 32.06
74.00 29.32
75.00 28.80
76.00 30.36
77.00 34.59
78.00 37.91
79.00 32.63
80.00 28.56
81.00 26.33
82.00 25.90
83.00 27.24
84.00 29.97
85.00 32.24
86.00 29.78
87.00 26.93
88.00 25.50
89.00 25.95
90.00 27.95
91.00 30.74
92.00 32.54
93.00 29.86
94.00 26.99
95.00 25.60
96.00 25.79
97.00 27.00
98.00 28.29
99.00 29.00
100.00 28.33
101.00 26.64
102.00 25.96
103.00 26.56
104.00 28.30
105.00 30.91
106.00 32.62
107.00 31.36
108.00 30.03
109.00 30.23
110.00 31.95
111.00 34.88
112.00 37.78
113.00 37.27
114.00 35.83
115.00 36.54
116.00 40.10
117.00 43.23
118.00 39.56
119.00 36.93
120.00 36.15
121.00 36.55
122.00 36.41
123.00 34.41
124.00 32.31
125.00 31.17
126.00 31.02
127.00 31.73
128.00 32.92
129.00 33.90
130.00 34.56
131.00 35.67
132.00 37.86
133.00 42.14
134.00 55.51
135.00 45.21
136.00 38.69
137.00 35.99
138.00 34.78
139.00 34.15
140.00 33.80
141.00 33.75
142.00 34.22
143.00 35.48
144.00 37.57
145.00 40.01
146.00 41.88
147.00 42.85
148.00 44.10
149.00 48.27
150.00 80.82
151.00 47.52
152.00 43.35
153.00 42.83
154.00 43.40
155.00 41.58
156.00 37.96
157.00 34.88
158.00 32.88
159.00 31.92
160.00 31.88
161.00 32.62
162.00 33.86
163.00 34.69
164.00 33.56
165.00 30.94
166.00 28.58
167.00 27.15
168.00 26.66
169.00 26.89
170.00 27.47
171.00 28.02
172.00 28.28
173.00 28.45
174.00 28.56
175.00 28.47
176.00 28.04
177.00 27.48
178.00 27.13
179.00 27.15
180.00 27.60
181.00 28.55
182.00 30.05
183.00 32.15
184.00 34.78
185.00 37.31
186.00 38.21
187.00 37.45
188.00 36.23
189.00 35.18
190.00 34.45
191.00 33.97
192.00 33.64
193.00 33.48
194.00 33.50
195.00 33.73
196.00 34.33
197.00 35.48
198.00 37.37
199.00 40.12
200.00 42.11
201.00 40.62
202.00 38.82
203.00 38.33
204.00 38.66
205.00 38.93
206.00 38.65
207.00 38.05
208.00 37.56
209.00 37.23
210.00 36.57
211.00 35.22
212.00 33.50
213.00 31.87
214.00 30.67
215.00 30.05
216.00 29.95
217.00 30.16
218.00 30.45
219.00 30.72
220.00 31.05
221.00 31.60
222.00 32.31
223.00 32.91
224.00 33.25
225.00 33.48
226.00 33.68
227.00 33.63
228.00 33.02
229.00 32.01
230.00 31.12
231.00 30.63
232.00 30.53
233.00 30.58
234.00 30.50
235.00 30.22
236.00 29.91
237.00 29.79
238.00 29.91
239.00 30.12
240.00 30.28
241.00 30.35
242.00 30.42
243.00 30.60
244.00 30.87
245.00 31.13
246.00 31.26
247.00 31.35
248.00 31.66
249.00 32.40
250.00 33.55
251.00 34.80
252.00 35.71
253.00 36.15
254.00 36.41
255.00 37.03
256.00 38.16
257.00 38.86
258.00 37.78
259.00 35.89
260.00 34.75
261.00 34.89
262.00 36.07
263.00 37.19
264.00 36.68
265.00 34.48
266.00 32.14
267.00 30.86
268.00 30.87
269.00 31.76
270.00 32.77
271.00 33.58
272.00 33.89
273.00 33.50
274.00 33.34
275.00 34.08
276.00 34.92
277.00 35.11
278.00 35.51
279.00 36.32
280.00 36.83
281.00 37.48
282.00 38.78
283.00 40.59
284.00 43.95
285.00 43.87
286.00 38.06
287.00 35.30
288.00 35.17
289.00 37.38
290.00 43.22
291.00 46.76
292.00 37.45
293.00 33.59
294.00 32.43
295.00 33.19
296.00 35.34
297.00 36.56
298.00 34.40
299.00 32.55
300.00 32.86
301.00 36.21
302.00 47.22
303.00 41.58
304.00 34.96
305.00 32.54
306.00 32.21
307.00 33.36
308.00 34.16
309.00 32.77
310.00 31.43
311.00 31.58
312.00 33.64
313.00 38.43
314.00 47.04
315.00 42.22
316.00 39.43
317.00 40.22
318.00 42.90
319.00 44.08
320.00 41.58
321.00 36.48
322.00 31.29
323.00 27.32
324.00 24.75
325.00 23.48
326.00 23.44
327.00 24.48
328.00 26.43
329.00 28.90
330.00 30.75
331.00 29.57
332.00 26.09
333.00 22.86
334.00 20.63
335.00 19.49
336.00 19.41
337.00 20.37
338.00 22.37
339.00 25.25
340.00 28.02
341.00 28.63
342.00 27.87
343.00 27.70
344.00 28.81
345.00 31.86
346.00 36.71
347.00 31.23
348.00 25.31
349.00 21.67
350.00 19.50
351.00 18.49
352.00 18.64
353.00 20.12
354.00 23.36
355.00 28.73
356.00 29.04
357.00 25.08
358.00 23.08
359.00 21.57
