NAME ATR4518R7_1850_X_CO_P45_05T_yL
FREQUENCY 1850
GAIN 15.17 dBd
TILT	ELECTRICAL
COMMENT DATE 05.08.2013 +45 degrees polarized system Lever position 05T deg
HORIZONTAL 360
0.00 0.01
1.00 0.02
2.00 0.04
3.00 0.05
4.00 0.07
5.00 0.10
6.00 0.13
7.00 0.16
8.00 0.19
9.00 0.23
10.00 0.26
11.00 0.31
12.00 0.35
13.00 0.40
14.00 0.44
15.00 0.49
16.00 0.55
17.00 0.61
18.00 0.67
19.00 0.73
20.00 0.80
21.00 0.88
22.00 0.96
23.00 1.04
24.00 1.13
25.00 1.23
26.00 1.33
27.00 1.44
28.00 1.55
29.00 1.67
30.00 1.80
31.00 1.94
32.00 2.08
33.00 2.23
34.00 2.38
35.00 2.55
36.00 2.72
37.00 2.89
38.00 3.07
39.00 3.26
40.00 3.46
41.00 3.66
42.00 3.86
43.00 4.07
44.00 4.28
45.00 4.50
46.00 4.73
47.00 4.95
48.00 5.18
49.00 5.41
50.00 5.64
51.00 5.88
52.00 6.12
53.00 6.37
54.00 6.61
55.00 6.86
56.00 7.11
57.00 7.37
58.00 7.63
59.00 7.89
60.00 8.15
61.00 8.42
62.00 8.69
63.00 8.97
64.00 9.25
65.00 9.54
66.00 9.84
67.00 10.13
68.00 10.44
69.00 10.75
70.00 11.07
71.00 11.39
72.00 11.72
73.00 12.05
74.00 12.39
75.00 12.74
76.00 13.08
77.00 13.43
78.00 13.79
79.00 14.14
80.00 14.50
81.00 14.85
82.00 15.20
83.00 15.55
84.00 15.89
85.00 16.22
86.00 16.55
87.00 16.88
88.00 17.19
89.00 17.50
90.00 17.81
91.00 18.11
92.00 18.42
93.00 18.72
94.00 19.04
95.00 19.36
96.00 19.69
97.00 20.05
98.00 20.43
99.00 20.83
100.00 21.27
101.00 21.74
102.00 22.25
103.00 22.81
104.00 23.42
105.00 24.08
106.00 24.81
107.00 25.59
108.00 26.44
109.00 27.36
110.00 28.34
111.00 29.39
112.00 30.50
113.00 31.66
114.00 32.84
115.00 34.00
116.00 35.12
117.00 36.14
118.00 37.06
119.00 37.90
120.00 38.68
121.00 39.50
122.00 40.43
123.00 41.55
124.00 42.91
125.00 44.42
126.00 45.55
127.00 45.30
128.00 43.50
129.00 41.19
130.00 38.99
131.00 37.07
132.00 35.45
133.00 34.06
134.00 32.90
135.00 31.90
136.00 31.07
137.00 30.38
138.00 29.82
139.00 29.38
140.00 29.05
141.00 28.82
142.00 28.69
143.00 28.66
144.00 28.72
145.00 28.87
146.00 29.12
147.00 29.45
148.00 29.86
149.00 30.35
150.00 30.90
151.00 31.50
152.00 32.12
153.00 32.71
154.00 33.22
155.00 33.59
156.00 33.78
157.00 33.79
158.00 33.62
159.00 33.35
160.00 33.03
161.00 32.70
162.00 32.40
163.00 32.17
164.00 32.01
165.00 31.93
166.00 31.95
167.00 32.06
168.00 32.28
169.00 32.59
170.00 33.00
171.00 33.52
172.00 34.15
173.00 34.88
174.00 35.71
175.00 36.62
176.00 37.60
177.00 38.57
178.00 39.47
179.00 40.20
180.00 40.65
181.00 40.80
182.00 40.71
183.00 40.47
184.00 40.20
185.00 39.96
186.00 39.82
187.00 39.80
188.00 39.92
189.00 40.22
190.00 40.70
191.00 41.39
192.00 42.34
193.00 43.60
194.00 45.31
195.00 47.65
196.00 51.01
197.00 55.85
198.00 57.10
199.00 51.92
200.00 47.88
201.00 45.02
202.00 42.87
203.00 41.18
204.00 39.80
205.00 38.67
206.00 37.73
207.00 36.94
208.00 36.28
209.00 35.73
210.00 35.30
211.00 34.95
212.00 34.70
213.00 34.54
214.00 34.46
215.00 34.47
216.00 34.57
217.00 34.77
218.00 35.06
219.00 35.45
220.00 35.94
221.00 36.55
222.00 37.24
223.00 38.00
224.00 38.78
225.00 39.45
226.00 39.86
227.00 39.85
228.00 39.37
229.00 38.53
230.00 37.51
231.00 36.45
232.00 35.43
233.00 34.49
234.00 33.65
235.00 32.90
236.00 32.24
237.00 31.67
238.00 31.17
239.00 30.74
240.00 30.36
241.00 30.03
242.00 29.73
243.00 29.45
244.00 29.18
245.00 28.92
246.00 28.64
247.00 28.34
248.00 28.01
249.00 27.65
250.00 27.26
251.00 26.85
252.00 26.41
253.00 25.96
254.00 25.50
255.00 25.03
256.00 24.57
257.00 24.11
258.00 23.67
259.00 23.24
260.00 22.82
261.00 22.42
262.00 22.03
263.00 21.66
264.00 21.31
265.00 20.96
266.00 20.63
267.00 20.31
268.00 20.00
269.00 19.69
270.00 19.39
271.00 19.10
272.00 18.81
273.00 18.52
274.00 18.24
275.00 17.96
276.00 17.68
277.00 17.40
278.00 17.12
279.00 16.84
280.00 16.57
281.00 16.29
282.00 16.02
283.00 15.75
284.00 15.48
285.00 15.21
286.00 14.94
287.00 14.67
288.00 14.41
289.00 14.14
290.00 13.87
291.00 13.61
292.00 13.34
293.00 13.07
294.00 12.80
295.00 12.53
296.00 12.26
297.00 11.98
298.00 11.71
299.00 11.43
300.00 11.16
301.00 10.89
302.00 10.61
303.00 10.34
304.00 10.08
305.00 9.81
306.00 9.55
307.00 9.29
308.00 9.04
309.00 8.79
310.00 8.55
311.00 8.31
312.00 8.07
313.00 7.84
314.00 7.61
315.00 7.38
316.00 7.14
317.00 6.91
318.00 6.67
319.00 6.43
320.00 6.19
321.00 5.95
322.00 5.70
323.00 5.44
324.00 5.18
325.00 4.92
326.00 4.65
327.00 4.39
328.00 4.12
329.00 3.85
330.00 3.59
331.00 3.33
332.00 3.07
333.00 2.82
334.00 2.58
335.00 2.35
336.00 2.13
337.00 1.92
338.00 1.72
339.00 1.53
340.00 1.35
341.00 1.19
342.00 1.03
343.00 0.89
344.00 0.76
345.00 0.65
346.00 0.54
347.00 0.45
348.00 0.36
349.00 0.29
350.00 0.22
351.00 0.17
352.00 0.12
353.00 0.09
354.00 0.06
355.00 0.03
356.00 0.02
357.00 0.01
358.00 0.00
359.00 0.00
VERTICAL 360
0.00 8.92
1.00 5.55
2.00 3.06
3.00 1.36
4.00 0.35
5.00 0.00
6.00 0.33
7.00 1.36
8.00 3.23
9.00 6.23
10.00 11.20
11.00 21.88
12.00 20.87
13.00 14.26
14.00 12.55
15.00 13.22
16.00 16.23
17.00 23.54
18.00 25.90
19.00 17.71
20.00 14.40
21.00 13.16
22.00 13.31
23.00 14.75
24.00 17.64
25.00 21.88
26.00 23.21
27.00 20.40
28.00 18.54
29.00 18.11
30.00 18.91
31.00 21.04
32.00 25.00
33.00 27.78
34.00 22.86
35.00 18.92
36.00 16.79
37.00 15.96
38.00 16.15
39.00 17.15
40.00 18.73
41.00 20.62
42.00 22.50
43.00 24.21
44.00 25.98
45.00 28.26
46.00 31.39
47.00 35.00
48.00 37.73
49.00 39.68
50.00 37.24
51.00 32.00
52.00 28.60
53.00 27.04
54.00 26.98
55.00 28.20
56.00 30.51
57.00 33.65
58.00 36.90
59.00 38.66
60.00 37.72
61.00 35.40
62.00 33.19
63.00 31.72
64.00 31.16
65.00 31.40
66.00 32.16
67.00 32.91
68.00 33.12
69.00 32.71
70.00 32.08
71.00 31.70
72.00 31.77
73.00 32.23
74.00 32.80
75.00 33.13
76.00 33.07
77.00 32.77
78.00 32.52
79.00 32.52
80.00 32.73
81.00 32.98
82.00 33.09
83.00 33.09
84.00 33.16
85.00 33.43
86.00 33.84
87.00 34.21
88.00 34.25
89.00 33.77
90.00 32.95
91.00 32.33
92.00 32.30
93.00 32.92
94.00 34.00
95.00 35.26
96.00 36.45
97.00 37.33
98.00 37.85
99.00 38.43
100.00 39.54
101.00 41.09
102.00 42.25
103.00 42.03
104.00 40.84
105.00 39.86
106.00 39.85
107.00 41.09
108.00 43.12
109.00 43.68
110.00 41.86
111.00 40.12
112.00 39.45
113.00 39.94
114.00 41.41
115.00 42.92
116.00 43.00
117.00 42.30
118.00 42.27
119.00 43.07
120.00 43.54
121.00 42.90
122.00 42.65
123.00 44.34
124.00 49.31
125.00 60.36
126.00 59.33
127.00 51.89
128.00 43.33
129.00 38.17
130.00 35.33
131.00 34.01
132.00 33.66
133.00 33.83
134.00 34.22
135.00 34.68
136.00 35.12
137.00 35.49
138.00 35.96
139.00 36.67
140.00 37.45
141.00 38.05
142.00 38.61
143.00 39.26
144.00 39.61
145.00 39.67
146.00 40.30
147.00 42.27
148.00 46.06
149.00 53.35
150.00 59.63
151.00 46.30
152.00 41.55
153.00 39.97
154.00 40.40
155.00 40.09
156.00 37.16
157.00 34.72
158.00 33.76
159.00 33.97
160.00 34.65
161.00 35.20
162.00 35.65
163.00 35.69
164.00 34.56
165.00 32.96
166.00 32.07
167.00 32.37
168.00 33.91
169.00 36.42
170.00 38.92
171.00 40.10
172.00 40.55
173.00 41.07
174.00 41.11
175.00 39.86
176.00 37.64
177.00 35.52
178.00 34.05
179.00 33.39
180.00 33.59
181.00 34.12
182.00 34.54
183.00 35.07
184.00 36.64
185.00 40.43
186.00 45.83
187.00 41.78
188.00 38.49
189.00 37.87
190.00 39.14
191.00 41.82
192.00 45.29
193.00 48.38
194.00 49.71
195.00 47.02
196.00 42.52
197.00 39.47
198.00 38.36
199.00 39.23
200.00 42.26
201.00 46.93
202.00 45.92
203.00 40.63
204.00 36.71
205.00 34.48
206.00 33.91
207.00 34.78
208.00 36.00
209.00 35.21
210.00 33.05
211.00 31.32
212.00 30.28
213.00 29.74
214.00 29.50
215.00 29.53
216.00 30.03
217.00 31.33
218.00 33.86
219.00 38.14
220.00 44.95
221.00 50.04
222.00 47.85
223.00 46.21
224.00 43.58
225.00 40.88
226.00 39.36
227.00 39.38
228.00 41.20
229.00 45.38
230.00 51.54
231.00 50.56
232.00 49.48
233.00 53.32
234.00 61.79
235.00 49.13
236.00 44.21
237.00 41.88
238.00 41.03
239.00 41.28
240.00 42.27
241.00 43.08
242.00 42.84
243.00 42.45
244.00 43.24
245.00 46.10
246.00 52.02
247.00 51.91
248.00 46.29
249.00 42.62
250.00 39.51
251.00 36.75
252.00 34.71
253.00 33.59
254.00 33.45
255.00 34.23
256.00 35.74
257.00 37.63
258.00 39.63
259.00 42.06
260.00 46.63
261.00 76.23
262.00 45.18
263.00 38.91
264.00 35.93
265.00 34.65
266.00 34.39
267.00 34.54
268.00 34.49
269.00 33.92
270.00 33.10
271.00 32.49
272.00 32.39
273.00 32.80
274.00 33.46
275.00 34.09
276.00 34.68
277.00 35.39
278.00 36.08
279.00 36.23
280.00 35.62
281.00 34.61
282.00 33.44
283.00 32.07
284.00 30.49
285.00 28.88
286.00 27.44
287.00 26.22
288.00 25.24
289.00 24.47
290.00 23.95
291.00 23.71
292.00 23.73
293.00 23.93
294.00 24.22
295.00 24.61
296.00 25.28
297.00 26.56
298.00 28.98
299.00 33.66
300.00 47.45
301.00 38.56
302.00 31.83
303.00 28.65
304.00 26.67
305.00 25.35
306.00 24.70
307.00 24.96
308.00 26.54
309.00 30.34
310.00 38.92
311.00 33.18
312.00 26.86
313.00 23.54
314.00 21.58
315.00 20.49
316.00 20.16
317.00 20.64
318.00 22.06
319.00 24.40
320.00 26.47
321.00 25.67
322.00 23.36
323.00 21.48
324.00 20.27
325.00 19.68
326.00 19.71
327.00 20.30
328.00 21.24
329.00 22.12
330.00 22.79
331.00 23.72
332.00 25.69
333.00 29.50
334.00 33.26
335.00 28.46
336.00 24.03
337.00 21.51
338.00 20.46
339.00 20.84
340.00 22.96
341.00 27.99
342.00 46.74
343.00 31.82
344.00 27.24
345.00 26.79
346.00 28.52
347.00 27.59
348.00 22.93
349.00 19.41
350.00 17.43
351.00 16.82
352.00 17.58
353.00 19.98
354.00 24.91
355.00 34.37
356.00 30.26
357.00 24.43
358.00 18.77
359.00 13.33
