NAME ATR4518R7_1950_X_CO_M45_01T_yyR
FREQUENCY 1950
GAIN 15.38 dBd
TILT	ELECTRICAL
COMMENT DATE 05.08.2013 -45 degrees polarized system Lever position 01T deg
HORIZONTAL 360
0.00 0.09
1.00 0.06
2.00 0.04
3.00 0.02
4.00 0.01
5.00 0.00
6.00 0.00
7.00 0.01
8.00 0.02
9.00 0.03
10.00 0.06
11.00 0.09
12.00 0.12
13.00 0.17
14.00 0.22
15.00 0.29
16.00 0.36
17.00 0.44
18.00 0.54
19.00 0.64
20.00 0.76
21.00 0.89
22.00 1.03
23.00 1.18
24.00 1.34
25.00 1.52
26.00 1.70
27.00 1.91
28.00 2.12
29.00 2.35
30.00 2.59
31.00 2.84
32.00 3.10
33.00 3.38
34.00 3.67
35.00 3.97
36.00 4.29
37.00 4.61
38.00 4.95
39.00 5.30
40.00 5.66
41.00 6.02
42.00 6.40
43.00 6.79
44.00 7.19
45.00 7.59
46.00 8.01
47.00 8.43
48.00 8.86
49.00 9.30
50.00 9.75
51.00 10.20
52.00 10.66
53.00 11.13
54.00 11.60
55.00 12.08
56.00 12.57
57.00 13.06
58.00 13.55
59.00 14.04
60.00 14.54
61.00 15.03
62.00 15.52
63.00 16.01
64.00 16.48
65.00 16.95
66.00 17.41
67.00 17.84
68.00 18.26
69.00 18.67
70.00 19.05
71.00 19.42
72.00 19.77
73.00 20.11
74.00 20.43
75.00 20.74
76.00 21.05
77.00 21.36
78.00 21.67
79.00 21.99
80.00 22.31
81.00 22.66
82.00 23.02
83.00 23.40
84.00 23.80
85.00 24.24
86.00 24.71
87.00 25.21
88.00 25.75
89.00 26.34
90.00 26.97
91.00 27.66
92.00 28.41
93.00 29.24
94.00 30.14
95.00 31.14
96.00 32.26
97.00 33.54
98.00 35.01
99.00 36.74
100.00 38.88
101.00 41.66
102.00 45.66
103.00 53.10
104.00 62.28
105.00 48.82
106.00 43.83
107.00 40.74
108.00 38.51
109.00 36.78
110.00 35.38
111.00 34.22
112.00 33.23
113.00 32.38
114.00 31.65
115.00 31.03
116.00 30.49
117.00 30.03
118.00 29.64
119.00 29.32
120.00 29.07
121.00 28.88
122.00 28.74
123.00 28.67
124.00 28.66
125.00 28.71
126.00 28.81
127.00 28.97
128.00 29.19
129.00 29.47
130.00 29.81
131.00 30.20
132.00 30.64
133.00 31.14
134.00 31.68
135.00 32.26
136.00 32.87
137.00 33.49
138.00 34.10
139.00 34.67
140.00 35.18
141.00 35.62
142.00 35.98
143.00 36.25
144.00 36.46
145.00 36.64
146.00 36.82
147.00 37.03
148.00 37.30
149.00 37.66
150.00 38.15
151.00 38.80
152.00 39.64
153.00 40.75
154.00 42.20
155.00 44.16
156.00 46.95
157.00 51.38
158.00 59.90
159.00 56.30
160.00 49.30
161.00 45.34
162.00 42.65
163.00 40.66
164.00 39.12
165.00 37.90
166.00 36.94
167.00 36.16
168.00 35.57
169.00 35.12
170.00 34.81
171.00 34.63
172.00 34.57
173.00 34.62
174.00 34.81
175.00 35.11
176.00 35.55
177.00 36.12
178.00 36.84
179.00 37.73
180.00 38.82
181.00 40.10
182.00 41.61
183.00 43.30
184.00 44.96
185.00 46.05
186.00 45.98
187.00 44.87
188.00 43.40
189.00 41.99
190.00 40.79
191.00 39.81
192.00 39.05
193.00 38.49
194.00 38.09
195.00 37.87
196.00 37.81
197.00 37.90
198.00 38.15
199.00 38.57
200.00 39.17
201.00 39.96
202.00 40.95
203.00 42.16
204.00 43.53
205.00 44.89
206.00 45.75
207.00 45.56
208.00 44.34
209.00 42.69
210.00 41.05
211.00 39.58
212.00 38.30
213.00 37.21
214.00 36.30
215.00 35.53
216.00 34.89
217.00 34.37
218.00 33.96
219.00 33.66
220.00 33.44
221.00 33.33
222.00 33.29
223.00 33.34
224.00 33.48
225.00 33.71
226.00 34.02
227.00 34.42
228.00 34.90
229.00 35.48
230.00 36.15
231.00 36.90
232.00 37.70
233.00 38.54
234.00 39.32
235.00 39.95
236.00 40.28
237.00 40.21
238.00 39.77
239.00 39.05
240.00 38.18
241.00 37.27
242.00 36.38
243.00 35.55
244.00 34.77
245.00 34.06
246.00 33.42
247.00 32.83
248.00 32.29
249.00 31.80
250.00 31.35
251.00 30.93
252.00 30.54
253.00 30.16
254.00 29.81
255.00 29.46
256.00 29.11
257.00 28.77
258.00 28.42
259.00 28.07
260.00 27.70
261.00 27.33
262.00 26.94
263.00 26.53
264.00 26.11
265.00 25.68
266.00 25.23
267.00 24.78
268.00 24.32
269.00 23.85
270.00 23.37
271.00 22.90
272.00 22.43
273.00 21.96
274.00 21.50
275.00 21.04
276.00 20.59
277.00 20.14
278.00 19.71
279.00 19.29
280.00 18.87
281.00 18.47
282.00 18.07
283.00 17.69
284.00 17.31
285.00 16.95
286.00 16.59
287.00 16.24
288.00 15.90
289.00 15.57
290.00 15.25
291.00 14.92
292.00 14.61
293.00 14.30
294.00 13.99
295.00 13.69
296.00 13.39
297.00 13.09
298.00 12.80
299.00 12.50
300.00 12.21
301.00 11.92
302.00 11.62
303.00 11.33
304.00 11.04
305.00 10.74
306.00 10.45
307.00 10.15
308.00 9.86
309.00 9.56
310.00 9.26
311.00 8.96
312.00 8.66
313.00 8.36
314.00 8.06
315.00 7.77
316.00 7.47
317.00 7.18
318.00 6.88
319.00 6.59
320.00 6.31
321.00 6.02
322.00 5.74
323.00 5.47
324.00 5.19
325.00 4.93
326.00 4.67
327.00 4.41
328.00 4.16
329.00 3.92
330.00 3.69
331.00 3.46
332.00 3.24
333.00 3.02
334.00 2.82
335.00 2.62
336.00 2.43
337.00 2.25
338.00 2.08
339.00 1.91
340.00 1.76
341.00 1.61
342.00 1.47
343.00 1.34
344.00 1.21
345.00 1.09
346.00 0.98
347.00 0.88
348.00 0.79
349.00 0.70
350.00 0.61
351.00 0.54
352.00 0.47
353.00 0.40
354.00 0.34
355.00 0.29
356.00 0.24
357.00 0.19
358.00 0.15
359.00 0.12
VERTICAL 360
0.00 0.50
1.00 0.00
2.00 0.22
3.00 1.23
4.00 3.18
5.00 6.41
6.00 11.91
7.00 26.32
8.00 21.80
9.00 15.46
10.00 14.63
11.00 16.70
12.00 22.31
13.00 23.75
14.00 17.55
15.00 14.54
16.00 13.82
17.00 14.88
18.00 17.80
19.00 23.21
20.00 28.41
21.00 25.01
22.00 22.30
23.00 21.75
24.00 22.95
25.00 26.78
26.00 37.99
27.00 29.47
28.00 22.89
29.00 20.42
30.00 20.03
31.00 21.19
32.00 23.59
33.00 26.71
34.00 29.23
35.00 29.50
36.00 27.93
37.00 26.14
38.00 24.80
39.00 23.90
40.00 23.23
41.00 22.70
42.00 22.40
43.00 22.52
44.00 23.20
45.00 24.47
46.00 26.34
47.00 29.03
48.00 33.27
49.00 39.16
50.00 35.74
51.00 30.80
52.00 28.80
53.00 29.04
54.00 31.64
55.00 37.93
56.00 46.20
57.00 39.20
58.00 36.09
59.00 35.35
60.00 35.34
61.00 35.51
62.00 36.08
63.00 37.71
64.00 41.43
65.00 49.02
66.00 48.66
67.00 42.98
68.00 39.77
69.00 37.21
70.00 34.80
71.00 32.65
72.00 30.99
73.00 29.85
74.00 29.10
75.00 28.48
76.00 27.81
77.00 27.03
78.00 26.28
79.00 25.69
80.00 25.37
81.00 25.32
82.00 25.52
83.00 25.93
84.00 26.55
85.00 27.41
86.00 28.41
87.00 29.38
88.00 30.13
89.00 30.56
90.00 30.36
91.00 29.31
92.00 28.24
93.00 27.78
94.00 28.07
95.00 29.01
96.00 30.47
97.00 32.27
98.00 34.13
99.00 35.81
100.00 37.46
101.00 39.25
102.00 41.26
103.00 43.90
104.00 47.08
105.00 48.14
106.00 47.33
107.00 47.01
108.00 46.24
109.00 44.28
110.00 41.84
111.00 39.67
112.00 38.26
113.00 37.76
114.00 37.95
115.00 38.40
116.00 38.67
117.00 38.47
118.00 38.09
119.00 38.13
120.00 39.07
121.00 41.25
122.00 45.47
123.00 55.22
124.00 49.68
125.00 42.11
126.00 38.32
127.00 36.32
128.00 35.76
129.00 36.62
130.00 38.84
131.00 41.68
132.00 43.87
133.00 46.30
134.00 51.80
135.00 52.82
136.00 46.74
137.00 44.09
138.00 43.27
139.00 42.49
140.00 40.81
141.00 39.08
142.00 38.23
143.00 38.70
144.00 41.14
145.00 48.08
146.00 57.84
147.00 44.03
148.00 40.34
149.00 39.10
150.00 38.93
151.00 39.43
152.00 40.52
153.00 41.85
154.00 43.11
155.00 45.15
156.00 49.38
157.00 56.07
158.00 58.23
159.00 54.46
160.00 49.15
161.00 45.85
162.00 44.46
163.00 44.12
164.00 44.85
165.00 48.50
166.00 59.84
167.00 47.09
168.00 40.89
169.00 38.21
170.00 37.14
171.00 37.09
172.00 37.76
173.00 39.03
174.00 40.97
175.00 43.83
176.00 47.31
177.00 48.17
178.00 46.46
179.00 45.98
180.00 46.64
181.00 45.03
182.00 41.44
183.00 38.95
184.00 37.97
185.00 38.19
186.00 38.96
187.00 39.60
188.00 39.69
189.00 39.57
190.00 40.03
191.00 41.33
192.00 42.51
193.00 42.46
194.00 41.68
195.00 40.00
196.00 37.81
197.00 36.46
198.00 36.45
199.00 37.34
200.00 38.29
201.00 39.35
202.00 41.02
203.00 41.03
204.00 38.50
205.00 36.83
206.00 36.93
207.00 38.43
208.00 40.72
209.00 43.59
210.00 44.49
211.00 40.26
212.00 36.70
213.00 35.34
214.00 35.88
215.00 37.92
216.00 40.25
217.00 41.50
218.00 43.05
219.00 47.50
220.00 63.65
221.00 51.62
222.00 46.43
223.00 45.54
224.00 47.31
225.00 53.35
226.00 62.78
227.00 49.87
228.00 45.25
229.00 43.19
230.00 42.28
231.00 42.00
232.00 42.33
233.00 43.55
234.00 46.01
235.00 47.93
236.00 45.57
237.00 42.55
238.00 41.04
239.00 40.83
240.00 41.48
241.00 42.55
242.00 43.88
243.00 45.84
244.00 49.17
245.00 53.65
246.00 55.30
247.00 55.68
248.00 52.64
249.00 46.38
250.00 42.47
251.00 40.76
252.00 40.66
253.00 41.61
254.00 42.90
255.00 43.73
256.00 43.91
257.00 44.16
258.00 45.31
259.00 47.79
260.00 50.72
261.00 50.30
262.00 46.73
263.00 43.23
264.00 40.61
265.00 39.05
266.00 38.67
267.00 39.70
268.00 42.38
269.00 45.88
270.00 46.27
271.00 44.41
272.00 42.88
273.00 41.65
274.00 40.92
275.00 40.43
276.00 39.17
277.00 37.22
278.00 35.54
279.00 34.39
280.00 33.37
281.00 32.05
282.00 30.32
283.00 28.42
284.00 26.70
285.00 25.37
286.00 24.48
287.00 23.95
288.00 23.67
289.00 23.49
290.00 23.38
291.00 23.37
292.00 23.53
293.00 23.94
294.00 24.61
295.00 25.60
296.00 27.01
297.00 29.12
298.00 32.43
299.00 37.88
300.00 41.60
301.00 36.84
302.00 33.30
303.00 31.37
304.00 30.07
305.00 28.82
306.00 27.34
307.00 25.73
308.00 24.19
309.00 22.90
310.00 21.88
311.00 21.10
312.00 20.48
313.00 20.01
314.00 19.72
315.00 19.66
316.00 19.85
317.00 20.22
318.00 20.62
319.00 20.82
320.00 20.66
321.00 20.15
322.00 19.48
323.00 18.85
324.00 18.38
325.00 18.07
326.00 17.89
327.00 17.85
328.00 18.07
329.00 18.75
330.00 20.26
331.00 23.25
332.00 29.36
333.00 33.77
334.00 26.92
335.00 23.95
336.00 24.19
337.00 27.90
338.00 31.98
339.00 25.58
340.00 21.46
341.00 20.23
342.00 21.28
343.00 24.95
344.00 28.50
345.00 23.94
346.00 20.06
347.00 18.50
348.00 18.82
349.00 21.28
350.00 27.48
351.00 32.60
352.00 25.89
353.00 24.37
354.00 24.46
355.00 17.98
356.00 11.43
357.00 6.93
358.00 3.83
359.00 1.75
