NAME ATR4518R7_1750_X_CO_M45_00T_yyR
FREQUENCY 1750
GAIN 14.84 dBd
TILT	ELECTRICAL
COMMENT DATE 05.08.2013 -45 degrees polarized system Lever position 00T deg
HORIZONTAL 360
0.00 0.00
1.00 0.00
2.00 0.01
3.00 0.02
4.00 0.04
5.00 0.06
6.00 0.09
7.00 0.12
8.00 0.16
9.00 0.20
10.00 0.26
11.00 0.31
12.00 0.38
13.00 0.45
14.00 0.53
15.00 0.62
16.00 0.71
17.00 0.81
18.00 0.92
19.00 1.04
20.00 1.17
21.00 1.31
22.00 1.46
23.00 1.61
24.00 1.78
25.00 1.95
26.00 2.14
27.00 2.34
28.00 2.54
29.00 2.76
30.00 2.98
31.00 3.22
32.00 3.46
33.00 3.72
34.00 3.98
35.00 4.25
36.00 4.54
37.00 4.82
38.00 5.12
39.00 5.42
40.00 5.73
41.00 6.04
42.00 6.36
43.00 6.67
44.00 6.99
45.00 7.31
46.00 7.63
47.00 7.94
48.00 8.26
49.00 8.57
50.00 8.87
51.00 9.17
52.00 9.47
53.00 9.75
54.00 10.04
55.00 10.31
56.00 10.58
57.00 10.85
58.00 11.11
59.00 11.36
60.00 11.62
61.00 11.87
62.00 12.12
63.00 12.37
64.00 12.62
65.00 12.87
66.00 13.12
67.00 13.37
68.00 13.62
69.00 13.88
70.00 14.13
71.00 14.39
72.00 14.65
73.00 14.91
74.00 15.17
75.00 15.42
76.00 15.68
77.00 15.94
78.00 16.19
79.00 16.45
80.00 16.71
81.00 16.96
82.00 17.21
83.00 17.47
84.00 17.73
85.00 17.99
86.00 18.25
87.00 18.52
88.00 18.80
89.00 19.09
90.00 19.38
91.00 19.68
92.00 19.99
93.00 20.32
94.00 20.65
95.00 21.00
96.00 21.36
97.00 21.74
98.00 22.12
99.00 22.50
100.00 22.90
101.00 23.29
102.00 23.68
103.00 24.05
104.00 24.41
105.00 24.75
106.00 25.06
107.00 25.34
108.00 25.58
109.00 25.79
110.00 25.96
111.00 26.10
112.00 26.21
113.00 26.30
114.00 26.38
115.00 26.46
116.00 26.55
117.00 26.66
118.00 26.78
119.00 26.93
120.00 27.12
121.00 27.34
122.00 27.60
123.00 27.91
124.00 28.26
125.00 28.65
126.00 29.09
127.00 29.55
128.00 30.03
129.00 30.52
130.00 30.98
131.00 31.38
132.00 31.68
133.00 31.86
134.00 31.89
135.00 31.78
136.00 31.55
137.00 31.23
138.00 30.86
139.00 30.48
140.00 30.11
141.00 29.78
142.00 29.49
143.00 29.26
144.00 29.10
145.00 29.00
146.00 28.98
147.00 29.03
148.00 29.17
149.00 29.39
150.00 29.70
151.00 30.11
152.00 30.63
153.00 31.25
154.00 32.00
155.00 32.89
156.00 33.92
157.00 35.09
158.00 36.37
159.00 37.64
160.00 38.67
161.00 39.09
162.00 38.72
163.00 37.76
164.00 36.57
165.00 35.38
166.00 34.30
167.00 33.37
168.00 32.58
169.00 31.93
170.00 31.42
171.00 31.02
172.00 30.73
173.00 30.56
174.00 30.50
175.00 30.53
176.00 30.67
177.00 30.92
178.00 31.27
179.00 31.74
180.00 32.34
181.00 33.07
182.00 33.95
183.00 34.99
184.00 36.19
185.00 37.55
186.00 38.97
187.00 40.21
188.00 40.84
189.00 40.55
190.00 39.52
191.00 38.20
192.00 36.90
193.00 35.73
194.00 34.72
195.00 33.88
196.00 33.19
197.00 32.62
198.00 32.19
199.00 31.86
200.00 31.65
201.00 31.53
202.00 31.51
203.00 31.59
204.00 31.75
205.00 32.01
206.00 32.37
207.00 32.82
208.00 33.38
209.00 34.05
210.00 34.84
211.00 35.77
212.00 36.86
213.00 38.12
214.00 39.61
215.00 41.37
216.00 43.51
217.00 46.17
218.00 49.67
219.00 54.64
220.00 60.97
221.00 58.40
222.00 53.98
223.00 51.39
224.00 49.96
225.00 49.23
226.00 49.11
227.00 49.49
228.00 50.40
229.00 51.72
230.00 52.93
231.00 52.59
232.00 50.29
233.00 47.43
234.00 44.81
235.00 42.55
236.00 40.63
237.00 38.97
238.00 37.54
239.00 36.28
240.00 35.19
241.00 34.22
242.00 33.36
243.00 32.60
244.00 31.94
245.00 31.35
246.00 30.83
247.00 30.37
248.00 29.97
249.00 29.62
250.00 29.32
251.00 29.06
252.00 28.83
253.00 28.62
254.00 28.44
255.00 28.27
256.00 28.11
257.00 27.95
258.00 27.78
259.00 27.60
260.00 27.41
261.00 27.19
262.00 26.94
263.00 26.67
264.00 26.38
265.00 26.06
266.00 25.71
267.00 25.35
268.00 24.98
269.00 24.59
270.00 24.19
271.00 23.79
272.00 23.38
273.00 22.98
274.00 22.57
275.00 22.16
276.00 21.75
277.00 21.34
278.00 20.94
279.00 20.53
280.00 20.12
281.00 19.72
282.00 19.31
283.00 18.90
284.00 18.48
285.00 18.07
286.00 17.65
287.00 17.22
288.00 16.80
289.00 16.37
290.00 15.94
291.00 15.51
292.00 15.07
293.00 14.64
294.00 14.21
295.00 13.78
296.00 13.35
297.00 12.92
298.00 12.50
299.00 12.08
300.00 11.66
301.00 11.25
302.00 10.85
303.00 10.45
304.00 10.06
305.00 9.67
306.00 9.29
307.00 8.92
308.00 8.55
309.00 8.19
310.00 7.84
311.00 7.50
312.00 7.16
313.00 6.83
314.00 6.51
315.00 6.20
316.00 5.90
317.00 5.61
318.00 5.32
319.00 5.04
320.00 4.77
321.00 4.51
322.00 4.26
323.00 4.01
324.00 3.77
325.00 3.54
326.00 3.32
327.00 3.11
328.00 2.90
329.00 2.71
330.00 2.52
331.00 2.33
332.00 2.16
333.00 2.00
334.00 1.84
335.00 1.69
336.00 1.55
337.00 1.41
338.00 1.28
339.00 1.16
340.00 1.05
341.00 0.94
342.00 0.84
343.00 0.74
344.00 0.65
345.00 0.57
346.00 0.50
347.00 0.43
348.00 0.36
349.00 0.30
350.00 0.25
351.00 0.20
352.00 0.16
353.00 0.12
354.00 0.09
355.00 0.06
356.00 0.04
357.00 0.02
358.00 0.01
359.00 0.00
VERTICAL 360
0.00 0.00
1.00 0.25
2.00 1.19
3.00 2.95
4.00 5.77
5.00 10.23
6.00 18.50
7.00 28.83
8.00 18.52
9.00 15.79
10.00 16.00
11.00 18.53
12.00 24.45
13.00 26.26
14.00 19.66
15.00 16.43
16.00 15.52
17.00 16.39
18.00 18.91
19.00 21.79
20.00 21.02
21.00 18.37
22.00 16.67
23.00 16.03
24.00 16.31
25.00 17.61
26.00 20.42
27.00 26.51
28.00 38.15
29.00 26.74
30.00 22.01
31.00 20.40
32.00 20.39
33.00 21.48
34.00 23.44
35.00 25.98
36.00 28.50
37.00 29.89
38.00 29.61
39.00 28.31
40.00 26.54
41.00 24.62
42.00 22.86
43.00 21.44
44.00 20.40
45.00 19.71
46.00 19.32
47.00 19.24
48.00 19.52
49.00 20.28
50.00 21.67
51.00 23.92
52.00 27.43
53.00 32.42
54.00 33.43
55.00 29.29
56.00 26.38
57.00 24.88
58.00 24.36
59.00 24.53
60.00 25.17
61.00 26.09
62.00 27.16
63.00 28.30
64.00 29.52
65.00 30.76
66.00 31.82
67.00 32.48
68.00 32.55
69.00 31.99
70.00 31.03
71.00 30.04
72.00 29.30
73.00 28.93
74.00 28.91
75.00 29.02
76.00 28.93
77.00 28.57
78.00 28.06
79.00 27.59
80.00 27.26
81.00 27.04
82.00 26.79
83.00 26.41
84.00 25.93
85.00 25.45
86.00 25.16
87.00 25.27
88.00 26.05
89.00 27.82
90.00 30.82
91.00 34.54
92.00 35.07
93.00 32.62
94.00 31.19
95.00 31.01
96.00 31.77
97.00 33.37
98.00 35.79
99.00 38.94
100.00 42.42
101.00 45.57
102.00 48.31
103.00 50.00
104.00 47.93
105.00 44.39
106.00 42.03
107.00 41.12
108.00 41.54
109.00 42.75
110.00 42.83
111.00 40.77
112.00 38.32
113.00 36.47
114.00 35.34
115.00 34.96
116.00 35.34
117.00 36.43
118.00 38.08
119.00 40.03
120.00 41.97
121.00 43.86
122.00 46.53
123.00 51.50
124.00 48.31
125.00 41.23
126.00 37.42
127.00 35.75
128.00 35.53
129.00 35.81
130.00 35.68
131.00 35.50
132.00 36.39
133.00 39.14
134.00 44.31
135.00 48.82
136.00 45.83
137.00 41.62
138.00 38.00
139.00 35.23
140.00 33.43
141.00 32.61
142.00 32.74
143.00 33.70
144.00 35.14
145.00 36.51
146.00 37.37
147.00 37.51
148.00 36.60
149.00 34.78
150.00 32.86
151.00 31.60
152.00 31.38
153.00 32.32
154.00 34.16
155.00 35.31
156.00 34.45
157.00 33.21
158.00 32.76
159.00 33.09
160.00 33.69
161.00 34.03
162.00 33.91
163.00 33.53
164.00 33.17
165.00 33.04
166.00 33.25
167.00 33.66
168.00 33.90
169.00 33.77
170.00 33.76
171.00 34.65
172.00 36.90
173.00 40.05
174.00 41.64
175.00 41.79
176.00 41.95
177.00 39.36
178.00 35.56
179.00 33.04
180.00 31.87
181.00 31.64
182.00 31.86
183.00 31.94
184.00 31.57
185.00 31.02
186.00 30.64
187.00 30.48
188.00 30.42
189.00 30.49
190.00 30.94
191.00 32.00
192.00 33.52
193.00 34.85
194.00 35.36
195.00 35.24
196.00 35.00
197.00 34.99
198.00 35.46
199.00 36.25
200.00 36.93
201.00 37.72
202.00 40.11
203.00 48.25
204.00 51.78
205.00 40.06
206.00 37.14
207.00 37.12
208.00 39.08
209.00 41.46
210.00 41.06
211.00 38.66
212.00 36.15
213.00 33.97
214.00 32.40
215.00 31.53
216.00 31.23
217.00 31.32
218.00 31.67
219.00 32.33
220.00 33.45
221.00 35.18
222.00 37.59
223.00 40.39
224.00 42.51
225.00 42.67
226.00 41.09
227.00 38.72
228.00 36.48
229.00 34.94
230.00 34.27
231.00 34.45
232.00 35.42
233.00 37.12
234.00 39.65
235.00 43.23
236.00 47.15
237.00 47.33
238.00 45.11
239.00 43.65
240.00 42.30
241.00 40.47
242.00 38.95
243.00 38.42
244.00 38.95
245.00 40.23
246.00 41.98
247.00 44.34
248.00 47.20
249.00 47.35
250.00 44.23
251.00 41.34
252.00 39.57
253.00 39.08
254.00 40.00
255.00 42.00
256.00 42.87
257.00 40.93
258.00 38.51
259.00 36.80
260.00 35.85
261.00 35.60
262.00 35.94
263.00 36.58
264.00 37.00
265.00 36.52
266.00 34.95
267.00 32.85
268.00 30.88
269.00 29.44
270.00 28.73
271.00 28.79
272.00 29.55
273.00 30.71
274.00 31.65
275.00 31.65
276.00 30.47
277.00 28.60
278.00 26.71
279.00 25.18
280.00 24.10
281.00 23.41
282.00 22.95
283.00 22.60
284.00 22.22
285.00 21.77
286.00 21.25
287.00 20.69
288.00 20.14
289.00 19.70
290.00 19.43
291.00 19.41
292.00 19.69
293.00 20.30
294.00 21.29
295.00 22.73
296.00 24.84
297.00 28.12
298.00 34.19
299.00 43.13
300.00 33.66
301.00 28.36
302.00 25.58
303.00 23.86
304.00 22.66
305.00 21.78
306.00 21.17
307.00 20.85
308.00 20.85
309.00 21.15
310.00 21.68
311.00 22.31
312.00 22.90
313.00 23.25
314.00 23.14
315.00 22.49
316.00 21.47
317.00 20.32
318.00 19.25
319.00 18.42
320.00 17.93
321.00 17.88
322.00 18.37
323.00 19.55
324.00 21.69
325.00 25.13
326.00 28.24
327.00 25.78
328.00 22.01
329.00 19.62
330.00 18.43
331.00 18.28
332.00 19.17
333.00 21.26
334.00 24.51
335.00 26.25
336.00 23.84
337.00 21.37
338.00 20.37
339.00 20.94
340.00 23.56
341.00 30.06
342.00 30.13
343.00 22.71
344.00 19.41
345.00 18.62
346.00 20.16
347.00 25.17
348.00 28.80
349.00 21.78
350.00 18.23
351.00 17.76
352.00 20.96
353.00 31.15
354.00 17.75
355.00 10.35
356.00 6.10
357.00 3.31
358.00 1.48
359.00 0.41
