NAME ATR4518R7_1750_X_CO_M45_01T_yL
FREQUENCY 1750
GAIN 14.87 dBd
TILT	ELECTRICAL
COMMENT DATE 05.08.2013 -45 degrees polarized system Lever position 01T deg
HORIZONTAL 360
0.00 0.00
1.00 0.00
2.00 0.00
3.00 0.01
4.00 0.02
5.00 0.04
6.00 0.06
7.00 0.09
8.00 0.12
9.00 0.16
10.00 0.20
11.00 0.24
12.00 0.29
13.00 0.35
14.00 0.41
15.00 0.47
16.00 0.54
17.00 0.62
18.00 0.70
19.00 0.78
20.00 0.87
21.00 0.96
22.00 1.06
23.00 1.16
24.00 1.27
25.00 1.38
26.00 1.50
27.00 1.62
28.00 1.75
29.00 1.88
30.00 2.02
31.00 2.16
32.00 2.31
33.00 2.46
34.00 2.62
35.00 2.79
36.00 2.96
37.00 3.14
38.00 3.32
39.00 3.51
40.00 3.70
41.00 3.89
42.00 4.10
43.00 4.30
44.00 4.52
45.00 4.73
46.00 4.95
47.00 5.18
48.00 5.41
49.00 5.64
50.00 5.87
51.00 6.11
52.00 6.36
53.00 6.61
54.00 6.86
55.00 7.11
56.00 7.37
57.00 7.63
58.00 7.90
59.00 8.17
60.00 8.45
61.00 8.73
62.00 9.03
63.00 9.32
64.00 9.63
65.00 9.94
66.00 10.26
67.00 10.58
68.00 10.92
69.00 11.26
70.00 11.62
71.00 11.98
72.00 12.35
73.00 12.73
74.00 13.12
75.00 13.52
76.00 13.93
77.00 14.34
78.00 14.76
79.00 15.18
80.00 15.61
81.00 16.04
82.00 16.47
83.00 16.90
84.00 17.32
85.00 17.74
86.00 18.15
87.00 18.55
88.00 18.94
89.00 19.31
90.00 19.68
91.00 20.03
92.00 20.38
93.00 20.71
94.00 21.03
95.00 21.35
96.00 21.66
97.00 21.96
98.00 22.27
99.00 22.57
100.00 22.87
101.00 23.16
102.00 23.46
103.00 23.74
104.00 24.03
105.00 24.30
106.00 24.56
107.00 24.80
108.00 25.03
109.00 25.23
110.00 25.42
111.00 25.59
112.00 25.74
113.00 25.89
114.00 26.03
115.00 26.17
116.00 26.32
117.00 26.49
118.00 26.67
119.00 26.88
120.00 27.11
121.00 27.36
122.00 27.63
123.00 27.90
124.00 28.16
125.00 28.40
126.00 28.58
127.00 28.68
128.00 28.69
129.00 28.59
130.00 28.40
131.00 28.11
132.00 27.77
133.00 27.40
134.00 27.01
135.00 26.64
136.00 26.30
137.00 26.00
138.00 25.76
139.00 25.57
140.00 25.44
141.00 25.38
142.00 25.38
143.00 25.44
144.00 25.57
145.00 25.75
146.00 25.99
147.00 26.27
148.00 26.58
149.00 26.91
150.00 27.23
151.00 27.52
152.00 27.75
153.00 27.90
154.00 27.96
155.00 27.93
156.00 27.82
157.00 27.66
158.00 27.48
159.00 27.29
160.00 27.13
161.00 27.01
162.00 26.94
163.00 26.95
164.00 27.04
165.00 27.23
166.00 27.51
167.00 27.89
168.00 28.38
169.00 28.99
170.00 29.70
171.00 30.52
172.00 31.39
173.00 32.26
174.00 32.98
175.00 33.38
176.00 33.32
177.00 32.82
178.00 32.03
179.00 31.13
180.00 30.24
181.00 29.43
182.00 28.72
183.00 28.14
184.00 27.67
185.00 27.32
186.00 27.08
187.00 26.97
188.00 26.96
189.00 27.07
190.00 27.31
191.00 27.66
192.00 28.16
193.00 28.80
194.00 29.62
195.00 30.65
196.00 31.93
197.00 33.55
198.00 35.65
199.00 38.51
200.00 42.74
201.00 49.19
202.00 47.57
203.00 41.74
204.00 38.07
205.00 35.57
206.00 33.74
207.00 32.34
208.00 31.26
209.00 30.41
210.00 29.77
211.00 29.28
212.00 28.95
213.00 28.75
214.00 28.67
215.00 28.72
216.00 28.89
217.00 29.20
218.00 29.64
219.00 30.25
220.00 31.03
221.00 32.04
222.00 33.31
223.00 34.96
224.00 37.08
225.00 39.80
226.00 42.67
227.00 42.92
228.00 39.95
229.00 36.82
230.00 34.29
231.00 32.27
232.00 30.61
233.00 29.24
234.00 28.08
235.00 27.10
236.00 26.26
237.00 25.54
238.00 24.93
239.00 24.41
240.00 23.97
241.00 23.60
242.00 23.29
243.00 23.05
244.00 22.85
245.00 22.70
246.00 22.58
247.00 22.49
248.00 22.43
249.00 22.37
250.00 22.32
251.00 22.26
252.00 22.18
253.00 22.07
254.00 21.93
255.00 21.76
256.00 21.55
257.00 21.30
258.00 21.03
259.00 20.72
260.00 20.40
261.00 20.06
262.00 19.71
263.00 19.37
264.00 19.02
265.00 18.67
266.00 18.34
267.00 18.00
268.00 17.68
269.00 17.36
270.00 17.05
271.00 16.75
272.00 16.44
273.00 16.14
274.00 15.84
275.00 15.54
276.00 15.23
277.00 14.92
278.00 14.61
279.00 14.30
280.00 13.98
281.00 13.65
282.00 13.32
283.00 12.99
284.00 12.66
285.00 12.33
286.00 12.00
287.00 11.67
288.00 11.35
289.00 11.03
290.00 10.71
291.00 10.40
292.00 10.10
293.00 9.80
294.00 9.51
295.00 9.23
296.00 8.96
297.00 8.69
298.00 8.43
299.00 8.18
300.00 7.94
301.00 7.71
302.00 7.48
303.00 7.26
304.00 7.04
305.00 6.83
306.00 6.63
307.00 6.43
308.00 6.23
309.00 6.05
310.00 5.86
311.00 5.68
312.00 5.50
313.00 5.33
314.00 5.16
315.00 4.99
316.00 4.82
317.00 4.66
318.00 4.50
319.00 4.34
320.00 4.18
321.00 4.02
322.00 3.86
323.00 3.70
324.00 3.54
325.00 3.39
326.00 3.23
327.00 3.07
328.00 2.92
329.00 2.76
330.00 2.60
331.00 2.45
332.00 2.29
333.00 2.14
334.00 1.99
335.00 1.84
336.00 1.70
337.00 1.56
338.00 1.42
339.00 1.29
340.00 1.17
341.00 1.05
342.00 0.94
343.00 0.83
344.00 0.73
345.00 0.64
346.00 0.55
347.00 0.48
348.00 0.40
349.00 0.34
350.00 0.28
351.00 0.23
352.00 0.18
353.00 0.14
354.00 0.11
355.00 0.08
356.00 0.05
357.00 0.03
358.00 0.02
359.00 0.01
VERTICAL 360
0.00 0.73
1.00 0.08
2.00 0.08
3.00 0.75
4.00 2.16
5.00 4.48
6.00 8.12
7.00 14.39
8.00 32.70
9.00 18.09
10.00 13.86
11.00 13.09
12.00 14.61
13.00 19.05
14.00 30.49
15.00 21.85
16.00 16.60
17.00 14.62
18.00 14.32
19.00 15.18
20.00 17.01
21.00 19.28
22.00 19.91
23.00 18.03
24.00 16.13
25.00 15.33
26.00 15.88
27.00 18.08
28.00 22.72
29.00 27.99
30.00 22.47
31.00 18.55
32.00 16.69
33.00 16.04
34.00 16.28
35.00 17.30
36.00 19.17
37.00 22.04
38.00 26.08
39.00 29.96
40.00 28.92
41.00 26.02
42.00 23.85
43.00 22.25
44.00 20.94
45.00 19.78
46.00 18.77
47.00 17.99
48.00 17.49
49.00 17.29
50.00 17.38
51.00 17.79
52.00 18.57
53.00 19.80
54.00 21.62
55.00 24.14
56.00 27.29
57.00 30.36
58.00 31.53
59.00 30.30
60.00 28.24
61.00 26.35
62.00 24.98
63.00 24.23
64.00 24.12
65.00 24.61
66.00 25.63
67.00 26.96
68.00 28.33
69.00 29.54
70.00 30.61
71.00 31.72
72.00 32.99
73.00 34.17
74.00 34.72
75.00 34.52
76.00 34.29
77.00 34.69
78.00 36.04
79.00 38.53
80.00 42.42
81.00 47.23
82.00 48.04
83.00 45.86
84.00 44.85
85.00 45.01
86.00 45.43
87.00 44.51
88.00 42.14
89.00 39.73
90.00 38.01
91.00 37.10
92.00 36.76
93.00 36.47
94.00 35.99
95.00 35.66
96.00 35.91
97.00 36.86
98.00 38.52
99.00 40.81
100.00 43.15
101.00 44.03
102.00 44.18
103.00 46.01
104.00 51.08
105.00 53.72
106.00 50.58
107.00 52.77
108.00 63.70
109.00 49.57
110.00 44.85
111.00 43.07
112.00 42.32
113.00 41.72
114.00 41.35
115.00 41.38
116.00 41.62
117.00 42.07
118.00 43.16
119.00 45.25
120.00 47.74
121.00 48.20
122.00 46.89
123.00 45.82
124.00 44.57
125.00 42.38
126.00 40.24
127.00 39.23
128.00 39.76
129.00 41.94
130.00 45.47
131.00 48.16
132.00 46.38
133.00 42.62
134.00 39.91
135.00 38.85
136.00 39.28
137.00 40.24
138.00 40.18
139.00 39.60
140.00 39.98
141.00 41.86
142.00 45.14
143.00 48.69
144.00 51.70
145.00 61.71
146.00 51.78
147.00 42.98
148.00 38.96
149.00 37.37
150.00 37.48
151.00 38.09
152.00 37.48
153.00 36.32
154.00 35.98
155.00 36.19
156.00 35.72
157.00 34.78
158.00 34.55
159.00 35.05
160.00 34.74
161.00 33.02
162.00 31.47
163.00 30.86
164.00 31.16
165.00 32.23
166.00 34.09
167.00 37.05
168.00 42.03
169.00 52.42
170.00 54.54
171.00 50.11
172.00 55.80
173.00 46.45
174.00 38.46
175.00 34.18
176.00 31.75
177.00 30.42
178.00 29.68
179.00 29.23
180.00 28.90
181.00 28.72
182.00 28.99
183.00 30.07
184.00 32.20
185.00 34.95
186.00 36.30
187.00 35.62
188.00 35.04
189.00 34.96
190.00 34.81
191.00 34.19
192.00 33.21
193.00 32.27
194.00 31.82
195.00 32.18
196.00 33.66
197.00 36.86
198.00 42.08
199.00 39.43
200.00 34.70
201.00 32.75
202.00 33.05
203.00 35.67
204.00 41.15
205.00 43.88
206.00 40.21
207.00 39.01
208.00 39.53
209.00 40.19
210.00 39.79
211.00 39.02
212.00 39.09
213.00 40.50
214.00 41.47
215.00 38.46
216.00 34.81
217.00 32.03
218.00 29.79
219.00 27.92
220.00 26.61
221.00 26.02
222.00 26.18
223.00 26.96
224.00 27.97
225.00 28.86
226.00 29.71
227.00 31.07
228.00 33.49
229.00 37.46
230.00 42.86
231.00 44.27
232.00 42.01
233.00 41.03
234.00 41.26
235.00 42.37
236.00 44.11
237.00 45.64
238.00 45.56
239.00 44.55
240.00 43.74
241.00 43.01
242.00 42.42
243.00 42.83
244.00 45.34
245.00 52.44
246.00 59.69
247.00 48.06
248.00 44.41
249.00 43.42
250.00 45.03
251.00 50.02
252.00 47.58
253.00 42.74
254.00 41.50
255.00 43.11
256.00 47.48
257.00 56.52
258.00 50.94
259.00 41.81
260.00 37.18
261.00 35.10
262.00 34.95
263.00 36.42
264.00 38.99
265.00 41.18
266.00 40.87
267.00 38.44
268.00 35.90
269.00 34.11
270.00 33.23
271.00 33.21
272.00 34.05
273.00 35.72
274.00 37.91
275.00 40.00
276.00 41.20
277.00 39.57
278.00 36.02
279.00 33.09
280.00 31.20
281.00 30.04
282.00 29.22
283.00 28.43
284.00 27.64
285.00 26.96
286.00 26.49
287.00 26.18
288.00 25.94
289.00 25.66
290.00 25.40
291.00 25.34
292.00 25.66
293.00 26.45
294.00 27.56
295.00 28.51
296.00 28.66
297.00 27.87
298.00 26.47
299.00 24.81
300.00 23.17
301.00 21.76
302.00 20.67
303.00 19.88
304.00 19.33
305.00 19.02
306.00 18.98
307.00 19.27
308.00 19.91
309.00 20.75
310.00 21.40
311.00 21.45
312.00 20.93
313.00 20.18
314.00 19.48
315.00 18.99
316.00 18.81
317.00 19.02
318.00 19.58
319.00 20.27
320.00 20.70
321.00 20.57
322.00 20.03
323.00 19.55
324.00 19.52
325.00 20.25
326.00 22.05
327.00 25.38
328.00 29.88
329.00 28.16
330.00 23.90
331.00 21.40
332.00 20.35
333.00 20.57
334.00 22.13
335.00 25.25
336.00 28.21
337.00 25.50
338.00 22.09
339.00 20.26
340.00 19.88
341.00 20.88
342.00 23.13
343.00 24.50
344.00 22.06
345.00 19.32
346.00 17.95
347.00 18.08
348.00 19.97
349.00 24.78
350.00 40.20
351.00 27.49
352.00 23.34
353.00 24.35
354.00 29.15
355.00 18.73
356.00 11.70
357.00 7.23
358.00 4.16
359.00 2.06
