NAME ATR4518R7_0880_X_CO_M45_10T
FREQUENCY 0880
GAIN 14.91 dBd
TILT	ELECTRICAL
COMMENT DATE 05.08.2013 -45 degrees polarized system Lever position 10T deg
HORIZONTAL 360
0.00 0.01
1.00 0.00
2.00 0.00
3.00 0.00
4.00 0.01
5.00 0.03
6.00 0.05
7.00 0.08
8.00 0.11
9.00 0.15
10.00 0.20
11.00 0.26
12.00 0.32
13.00 0.38
14.00 0.46
15.00 0.54
16.00 0.62
17.00 0.72
18.00 0.82
19.00 0.92
20.00 1.03
21.00 1.15
22.00 1.28
23.00 1.41
24.00 1.55
25.00 1.70
26.00 1.85
27.00 2.01
28.00 2.17
29.00 2.35
30.00 2.53
31.00 2.71
32.00 2.91
33.00 3.11
34.00 3.31
35.00 3.53
36.00 3.75
37.00 3.97
38.00 4.21
39.00 4.45
40.00 4.70
41.00 4.95
42.00 5.21
43.00 5.48
44.00 5.76
45.00 6.04
46.00 6.33
47.00 6.62
48.00 6.92
49.00 7.23
50.00 7.54
51.00 7.87
52.00 8.20
53.00 8.53
54.00 8.87
55.00 9.22
56.00 9.57
57.00 9.93
58.00 10.29
59.00 10.66
60.00 11.04
61.00 11.42
62.00 11.81
63.00 12.20
64.00 12.60
65.00 13.00
66.00 13.41
67.00 13.82
68.00 14.23
69.00 14.65
70.00 15.08
71.00 15.51
72.00 15.94
73.00 16.38
74.00 16.82
75.00 17.26
76.00 17.71
77.00 18.16
78.00 18.61
79.00 19.07
80.00 19.53
81.00 19.99
82.00 20.46
83.00 20.93
84.00 21.40
85.00 21.87
86.00 22.34
87.00 22.81
88.00 23.29
89.00 23.76
90.00 24.23
91.00 24.70
92.00 25.16
93.00 25.62
94.00 26.07
95.00 26.52
96.00 26.95
97.00 27.38
98.00 27.79
99.00 28.19
100.00 28.58
101.00 28.95
102.00 29.30
103.00 29.64
104.00 29.97
105.00 30.28
106.00 30.58
107.00 30.87
108.00 31.15
109.00 31.43
110.00 31.70
111.00 31.97
112.00 32.24
113.00 32.52
114.00 32.80
115.00 33.09
116.00 33.38
117.00 33.69
118.00 34.01
119.00 34.34
120.00 34.67
121.00 35.01
122.00 35.36
123.00 35.71
124.00 36.05
125.00 36.37
126.00 36.67
127.00 36.94
128.00 37.16
129.00 37.33
130.00 37.43
131.00 37.46
132.00 37.43
133.00 37.33
134.00 37.17
135.00 36.96
136.00 36.72
137.00 36.45
138.00 36.17
139.00 35.88
140.00 35.59
141.00 35.32
142.00 35.05
143.00 34.81
144.00 34.58
145.00 34.37
146.00 34.19
147.00 34.04
148.00 33.91
149.00 33.80
150.00 33.73
151.00 33.68
152.00 33.66
153.00 33.67
154.00 33.70
155.00 33.77
156.00 33.86
157.00 33.98
158.00 34.14
159.00 34.33
160.00 34.54
161.00 34.80
162.00 35.09
163.00 35.41
164.00 35.77
165.00 36.18
166.00 36.62
167.00 37.12
168.00 37.66
169.00 38.25
170.00 38.90
171.00 39.63
172.00 40.41
173.00 41.26
174.00 42.19
175.00 43.21
176.00 44.28
177.00 45.40
178.00 46.51
179.00 47.53
180.00 48.30
181.00 48.65
182.00 48.53
183.00 48.03
184.00 47.29
185.00 46.49
186.00 45.65
187.00 44.90
188.00 44.21
189.00 43.58
190.00 43.05
191.00 42.58
192.00 42.16
193.00 41.81
194.00 41.51
195.00 41.26
196.00 41.05
197.00 40.86
198.00 40.71
199.00 40.57
200.00 40.46
201.00 40.35
202.00 40.23
203.00 40.11
204.00 39.98
205.00 39.82
206.00 39.64
207.00 39.43
208.00 39.19
209.00 38.93
210.00 38.62
211.00 38.31
212.00 37.97
213.00 37.61
214.00 37.26
215.00 36.89
216.00 36.52
217.00 36.16
218.00 35.81
219.00 35.47
220.00 35.14
221.00 34.83
222.00 34.54
223.00 34.28
224.00 34.02
225.00 33.80
226.00 33.60
227.00 33.41
228.00 33.26
229.00 33.13
230.00 33.02
231.00 32.93
232.00 32.87
233.00 32.83
234.00 32.81
235.00 32.82
236.00 32.85
237.00 32.90
238.00 32.96
239.00 33.03
240.00 33.12
241.00 33.20
242.00 33.29
243.00 33.36
244.00 33.41
245.00 33.42
246.00 33.38
247.00 33.29
248.00 33.12
249.00 32.89
250.00 32.57
251.00 32.18
252.00 31.74
253.00 31.23
254.00 30.69
255.00 30.10
256.00 29.51
257.00 28.90
258.00 28.28
259.00 27.67
260.00 27.06
261.00 26.46
262.00 25.87
263.00 25.30
264.00 24.74
265.00 24.19
266.00 23.66
267.00 23.15
268.00 22.64
269.00 22.15
270.00 21.68
271.00 21.21
272.00 20.76
273.00 20.32
274.00 19.89
275.00 19.47
276.00 19.06
277.00 18.66
278.00 18.27
279.00 17.88
280.00 17.50
281.00 17.13
282.00 16.77
283.00 16.41
284.00 16.05
285.00 15.70
286.00 15.36
287.00 15.01
288.00 14.68
289.00 14.34
290.00 14.01
291.00 13.68
292.00 13.35
293.00 13.03
294.00 12.71
295.00 12.39
296.00 12.07
297.00 11.76
298.00 11.45
299.00 11.14
300.00 10.83
301.00 10.52
302.00 10.22
303.00 9.92
304.00 9.62
305.00 9.32
306.00 9.03
307.00 8.74
308.00 8.45
309.00 8.16
310.00 7.88
311.00 7.60
312.00 7.33
313.00 7.05
314.00 6.79
315.00 6.52
316.00 6.26
317.00 6.01
318.00 5.75
319.00 5.51
320.00 5.26
321.00 5.02
322.00 4.79
323.00 4.56
324.00 4.34
325.00 4.12
326.00 3.91
327.00 3.70
328.00 3.49
329.00 3.30
330.00 3.10
331.00 2.92
332.00 2.73
333.00 2.56
334.00 2.39
335.00 2.22
336.00 2.06
337.00 1.91
338.00 1.76
339.00 1.62
340.00 1.48
341.00 1.35
342.00 1.23
343.00 1.11
344.00 0.99
345.00 0.89
346.00 0.79
347.00 0.69
348.00 0.60
349.00 0.52
350.00 0.44
351.00 0.37
352.00 0.31
353.00 0.25
354.00 0.20
355.00 0.15
356.00 0.11
357.00 0.08
358.00 0.05
359.00 0.03
VERTICAL 360
0.00 41.37
1.00 22.64
2.00 15.52
3.00 10.89
4.00 7.53
5.00 5.02
6.00 3.13
7.00 1.75
8.00 0.79
9.00 0.22
10.00 0.00
11.00 0.13
12.00 0.63
13.00 1.51
14.00 2.81
15.00 4.58
16.00 6.93
17.00 10.05
18.00 14.35
19.00 21.21
20.00 40.98
21.00 25.15
22.00 21.02
23.00 20.08
24.00 21.03
25.00 23.95
26.00 30.30
27.00 37.50
28.00 27.86
29.00 23.83
30.00 21.90
31.00 21.09
32.00 21.05
33.00 21.73
34.00 23.18
35.00 25.50
36.00 28.68
37.00 31.85
38.00 32.97
39.00 32.70
40.00 32.90
41.00 33.73
42.00 34.52
43.00 34.58
44.00 33.63
45.00 31.58
46.00 29.07
47.00 27.00
48.00 25.74
49.00 25.35
50.00 25.73
51.00 26.78
52.00 28.32
53.00 30.26
54.00 32.92
55.00 37.42
56.00 43.45
57.00 36.59
58.00 31.62
59.00 29.04
60.00 27.91
61.00 27.77
62.00 28.12
63.00 28.23
64.00 27.62
65.00 26.69
66.00 26.00
67.00 25.76
68.00 25.98
69.00 26.52
70.00 27.04
71.00 27.29
72.00 27.50
73.00 28.13
74.00 29.49
75.00 31.64
76.00 34.19
77.00 34.98
78.00 33.07
79.00 31.35
80.00 31.05
81.00 32.58
82.00 36.19
83.00 37.00
84.00 31.98
85.00 28.65
86.00 27.27
87.00 27.56
88.00 29.40
89.00 31.87
90.00 31.45
91.00 28.83
92.00 26.87
93.00 25.98
94.00 26.15
95.00 27.42
96.00 29.78
97.00 32.65
98.00 34.12
99.00 33.62
100.00 32.90
101.00 32.83
102.00 33.77
103.00 35.87
104.00 38.73
105.00 41.12
106.00 43.23
107.00 46.08
108.00 45.59
109.00 42.20
110.00 39.69
111.00 37.84
112.00 36.45
113.00 35.63
114.00 35.32
115.00 35.33
116.00 35.58
117.00 36.12
118.00 37.00
119.00 38.28
120.00 39.98
121.00 41.79
122.00 43.22
123.00 44.92
124.00 48.81
125.00 55.94
126.00 48.21
127.00 42.74
128.00 39.73
129.00 38.24
130.00 38.14
131.00 39.50
132.00 42.55
133.00 47.91
134.00 54.77
135.00 48.06
136.00 42.47
137.00 38.81
138.00 36.24
139.00 34.50
140.00 33.56
141.00 33.47
142.00 34.18
143.00 35.38
144.00 36.32
145.00 36.28
146.00 35.54
147.00 34.79
148.00 34.29
149.00 34.04
150.00 34.01
151.00 34.20
152.00 34.65
153.00 35.34
154.00 36.26
155.00 37.38
156.00 38.71
157.00 40.05
158.00 40.67
159.00 39.91
160.00 38.49
161.00 37.39
162.00 36.98
163.00 36.98
164.00 37.78
165.00 39.49
166.00 42.41
167.00 46.68
168.00 49.92
169.00 48.93
170.00 48.53
171.00 50.91
172.00 52.08
173.00 47.15
174.00 42.80
175.00 39.59
176.00 37.16
177.00 35.55
178.00 34.91
179.00 35.18
180.00 36.28
181.00 38.10
182.00 39.67
183.00 39.49
184.00 37.74
185.00 35.61
186.00 33.69
187.00 32.22
188.00 31.33
189.00 31.04
190.00 31.21
191.00 31.58
192.00 31.83
193.00 31.96
194.00 32.11
195.00 32.45
196.00 32.98
197.00 33.68
198.00 34.63
199.00 35.94
200.00 37.43
201.00 38.01
202.00 37.01
203.00 35.76
204.00 35.19
205.00 35.40
206.00 36.19
207.00 37.33
208.00 38.72
209.00 40.43
210.00 42.76
211.00 46.06
212.00 49.70
213.00 49.21
214.00 45.88
215.00 43.17
216.00 41.15
217.00 39.62
218.00 38.32
219.00 37.12
220.00 36.02
221.00 35.16
222.00 34.76
223.00 35.03
224.00 36.09
225.00 37.86
226.00 39.92
227.00 41.88
228.00 43.99
229.00 46.58
230.00 48.66
231.00 47.20
232.00 43.25
233.00 40.18
234.00 38.57
235.00 38.00
236.00 37.76
237.00 37.63
238.00 38.14
239.00 39.53
240.00 40.72
241.00 40.54
242.00 40.48
243.00 41.59
244.00 43.09
245.00 43.25
246.00 41.91
247.00 39.88
248.00 38.16
249.00 37.52
250.00 38.09
251.00 39.42
252.00 40.33
253.00 39.45
254.00 37.20
255.00 35.11
256.00 33.98
257.00 33.94
258.00 34.69
259.00 35.55
260.00 35.49
261.00 34.28
262.00 32.84
263.00 32.02
264.00 32.09
265.00 32.99
266.00 34.36
267.00 35.69
268.00 36.26
269.00 35.50
270.00 34.18
271.00 33.39
272.00 33.47
273.00 34.23
274.00 35.20
275.00 35.83
276.00 35.68
277.00 34.83
278.00 33.84
279.00 33.15
280.00 32.83
281.00 32.80
282.00 32.97
283.00 33.40
284.00 34.07
285.00 34.73
286.00 34.99
287.00 34.62
288.00 33.73
289.00 32.66
290.00 31.90
291.00 31.81
292.00 32.49
293.00 33.80
294.00 35.23
295.00 36.07
296.00 35.99
297.00 35.38
298.00 35.01
299.00 35.25
300.00 35.84
301.00 36.21
302.00 36.41
303.00 36.92
304.00 37.56
305.00 37.43
306.00 36.59
307.00 35.87
308.00 35.59
309.00 35.64
310.00 35.87
311.00 36.22
312.00 36.91
313.00 38.60
314.00 42.85
315.00 54.11
316.00 41.37
317.00 35.14
318.00 31.54
319.00 29.11
320.00 27.35
321.00 26.12
322.00 25.44
323.00 25.38
324.00 26.07
325.00 27.70
326.00 30.75
327.00 36.90
328.00 40.92
329.00 31.26
330.00 26.18
331.00 23.01
332.00 20.97
333.00 19.82
334.00 19.46
335.00 19.85
336.00 21.01
337.00 23.07
338.00 26.41
339.00 32.42
340.00 54.76
341.00 34.09
342.00 29.32
343.00 27.95
344.00 29.08
345.00 34.21
346.00 43.32
347.00 29.11
348.00 23.94
349.00 21.26
350.00 19.97
351.00 19.73
352.00 20.42
353.00 22.13
354.00 25.17
355.00 30.06
356.00 32.92
357.00 29.29
358.00 27.83
359.00 30.85
