NAME ATR4518R7_1880_X_CO_M45_03T_yyR
FREQUENCY 1880
GAIN 14.82 dBd
TILT	ELECTRICAL
COMMENT DATE 05.08.2013 -45 degrees polarized system Lever position 03T deg
HORIZONTAL 360
0.00 0.13
1.00 0.10
2.00 0.07
3.00 0.05
4.00 0.03
5.00 0.02
6.00 0.01
7.00 0.00
8.00 0.00
9.00 0.00
10.00 0.01
11.00 0.02
12.00 0.04
13.00 0.06
14.00 0.10
15.00 0.14
16.00 0.18
17.00 0.24
18.00 0.30
19.00 0.37
20.00 0.46
21.00 0.55
22.00 0.65
23.00 0.76
24.00 0.88
25.00 1.01
26.00 1.15
27.00 1.30
28.00 1.47
29.00 1.64
30.00 1.82
31.00 2.02
32.00 2.22
33.00 2.43
34.00 2.66
35.00 2.89
36.00 3.14
37.00 3.39
38.00 3.65
39.00 3.93
40.00 4.21
41.00 4.49
42.00 4.79
43.00 5.10
44.00 5.41
45.00 5.72
46.00 6.05
47.00 6.38
48.00 6.72
49.00 7.06
50.00 7.41
51.00 7.76
52.00 8.12
53.00 8.48
54.00 8.85
55.00 9.21
56.00 9.59
57.00 9.96
58.00 10.33
59.00 10.71
60.00 11.09
61.00 11.47
62.00 11.84
63.00 12.22
64.00 12.59
65.00 12.97
66.00 13.34
67.00 13.71
68.00 14.07
69.00 14.44
70.00 14.79
71.00 15.15
72.00 15.51
73.00 15.86
74.00 16.22
75.00 16.58
76.00 16.94
77.00 17.31
78.00 17.68
79.00 18.06
80.00 18.44
81.00 18.84
82.00 19.25
83.00 19.67
84.00 20.11
85.00 20.56
86.00 21.03
87.00 21.52
88.00 22.02
89.00 22.55
90.00 23.09
91.00 23.65
92.00 24.23
93.00 24.82
94.00 25.42
95.00 26.03
96.00 26.64
97.00 27.24
98.00 27.82
99.00 28.38
100.00 28.89
101.00 29.34
102.00 29.73
103.00 30.03
104.00 30.26
105.00 30.39
106.00 30.44
107.00 30.42
108.00 30.33
109.00 30.18
110.00 30.00
111.00 29.80
112.00 29.57
113.00 29.34
114.00 29.11
115.00 28.89
116.00 28.68
117.00 28.48
118.00 28.32
119.00 28.17
120.00 28.06
121.00 27.97
122.00 27.93
123.00 27.92
124.00 27.96
125.00 28.04
126.00 28.18
127.00 28.36
128.00 28.60
129.00 28.91
130.00 29.29
131.00 29.73
132.00 30.26
133.00 30.88
134.00 31.60
135.00 32.45
136.00 33.43
137.00 34.59
138.00 35.97
139.00 37.63
140.00 39.69
141.00 42.39
142.00 46.23
143.00 52.98
144.00 70.83
145.00 51.43
146.00 46.16
147.00 43.12
148.00 41.07
149.00 39.58
150.00 38.48
151.00 37.65
152.00 37.03
153.00 36.59
154.00 36.30
155.00 36.13
156.00 36.07
157.00 36.11
158.00 36.23
159.00 36.41
160.00 36.65
161.00 36.91
162.00 37.18
163.00 37.42
164.00 37.61
165.00 37.72
166.00 37.75
167.00 37.68
168.00 37.53
169.00 37.31
170.00 37.07
171.00 36.81
172.00 36.56
173.00 36.35
174.00 36.17
175.00 36.05
176.00 35.98
177.00 35.98
178.00 36.04
179.00 36.18
180.00 36.38
181.00 36.65
182.00 37.00
183.00 37.41
184.00 37.91
185.00 38.48
186.00 39.13
187.00 39.85
188.00 40.65
189.00 41.52
190.00 42.46
191.00 43.47
192.00 44.52
193.00 45.62
194.00 46.73
195.00 47.84
196.00 48.92
197.00 49.95
198.00 50.91
199.00 51.74
200.00 52.40
201.00 52.77
202.00 52.73
203.00 52.18
204.00 51.24
205.00 49.99
206.00 48.63
207.00 47.28
208.00 45.96
209.00 44.74
210.00 43.62
211.00 42.58
212.00 41.65
213.00 40.79
214.00 40.02
215.00 39.32
216.00 38.68
217.00 38.11
218.00 37.59
219.00 37.12
220.00 36.71
221.00 36.33
222.00 35.99
223.00 35.69
224.00 35.43
225.00 35.19
226.00 34.98
227.00 34.81
228.00 34.65
229.00 34.52
230.00 34.41
231.00 34.32
232.00 34.25
233.00 34.20
234.00 34.17
235.00 34.16
236.00 34.15
237.00 34.16
238.00 34.17
239.00 34.18
240.00 34.18
241.00 34.16
242.00 34.11
243.00 34.02
244.00 33.89
245.00 33.71
246.00 33.47
247.00 33.16
248.00 32.81
249.00 32.40
250.00 31.94
251.00 31.46
252.00 30.96
253.00 30.43
254.00 29.91
255.00 29.38
256.00 28.86
257.00 28.35
258.00 27.85
259.00 27.36
260.00 26.89
261.00 26.43
262.00 25.99
263.00 25.55
264.00 25.14
265.00 24.73
266.00 24.33
267.00 23.95
268.00 23.57
269.00 23.20
270.00 22.83
271.00 22.46
272.00 22.09
273.00 21.73
274.00 21.37
275.00 21.00
276.00 20.63
277.00 20.26
278.00 19.89
279.00 19.52
280.00 19.14
281.00 18.77
282.00 18.39
283.00 18.01
284.00 17.63
285.00 17.24
286.00 16.86
287.00 16.48
288.00 16.10
289.00 15.73
290.00 15.35
291.00 14.98
292.00 14.60
293.00 14.23
294.00 13.87
295.00 13.50
296.00 13.15
297.00 12.79
298.00 12.43
299.00 12.08
300.00 11.73
301.00 11.39
302.00 11.04
303.00 10.70
304.00 10.37
305.00 10.03
306.00 9.70
307.00 9.37
308.00 9.05
309.00 8.73
310.00 8.41
311.00 8.10
312.00 7.79
313.00 7.48
314.00 7.18
315.00 6.89
316.00 6.59
317.00 6.31
318.00 6.02
319.00 5.75
320.00 5.48
321.00 5.21
322.00 4.95
323.00 4.70
324.00 4.45
325.00 4.21
326.00 3.98
327.00 3.76
328.00 3.54
329.00 3.33
330.00 3.13
331.00 2.93
332.00 2.74
333.00 2.56
334.00 2.39
335.00 2.23
336.00 2.07
337.00 1.92
338.00 1.78
339.00 1.64
340.00 1.52
341.00 1.40
342.00 1.28
343.00 1.18
344.00 1.08
345.00 0.98
346.00 0.89
347.00 0.81
348.00 0.73
349.00 0.66
350.00 0.59
351.00 0.53
352.00 0.47
353.00 0.42
354.00 0.37
355.00 0.32
356.00 0.28
357.00 0.23
358.00 0.20
359.00 0.16
VERTICAL 360
0.00 3.74
1.00 1.70
2.00 0.48
3.00 0.00
4.00 0.25
5.00 1.26
6.00 3.20
7.00 6.44
8.00 12.11
9.00 26.12
10.00 18.83
11.00 13.22
12.00 11.95
13.00 12.93
14.00 16.33
15.00 25.80
16.00 27.49
17.00 17.57
18.00 14.44
19.00 13.73
20.00 14.91
21.00 18.49
22.00 26.56
23.00 25.71
24.00 19.16
25.00 16.80
26.00 16.53
27.00 17.91
28.00 21.22
29.00 26.47
30.00 25.31
31.00 20.45
32.00 17.94
33.00 17.17
34.00 17.75
35.00 19.58
36.00 22.89
37.00 28.65
38.00 44.73
39.00 35.49
40.00 29.00
41.00 26.40
42.00 25.07
43.00 24.16
44.00 23.20
45.00 22.11
46.00 21.07
47.00 20.26
48.00 19.80
49.00 19.78
50.00 20.33
51.00 21.64
52.00 24.04
53.00 28.30
54.00 36.60
55.00 36.32
56.00 29.41
57.00 26.42
58.00 25.19
59.00 25.02
60.00 25.64
61.00 26.85
62.00 28.42
63.00 29.94
64.00 30.84
65.00 30.87
66.00 30.45
67.00 30.18
68.00 30.34
69.00 30.89
70.00 31.58
71.00 32.01
72.00 31.97
73.00 31.79
74.00 31.96
75.00 32.46
76.00 32.48
77.00 31.25
78.00 29.31
79.00 27.51
80.00 26.29
81.00 25.75
82.00 25.77
83.00 25.98
84.00 25.98
85.00 25.69
86.00 25.35
87.00 25.29
88.00 25.78
89.00 27.14
90.00 29.51
91.00 32.05
92.00 31.81
93.00 29.56
94.00 28.05
95.00 27.81
96.00 28.76
97.00 30.84
98.00 33.97
99.00 37.82
100.00 41.11
101.00 42.39
102.00 42.18
103.00 41.02
104.00 39.52
105.00 38.49
106.00 38.07
107.00 37.92
108.00 37.62
109.00 36.99
110.00 36.26
111.00 35.78
112.00 35.74
113.00 36.04
114.00 36.35
115.00 36.34
116.00 36.00
117.00 35.71
118.00 35.88
119.00 36.71
120.00 38.01
121.00 39.10
122.00 39.52
123.00 39.84
124.00 40.76
125.00 42.23
126.00 43.28
127.00 42.46
128.00 40.02
129.00 37.46
130.00 35.54
131.00 34.33
132.00 33.70
133.00 33.51
134.00 33.64
135.00 34.07
136.00 34.91
137.00 36.24
138.00 37.74
139.00 38.34
140.00 37.81
141.00 37.32
142.00 37.42
143.00 37.81
144.00 38.07
145.00 38.35
146.00 39.30
147.00 41.79
148.00 47.06
149.00 49.10
150.00 42.92
151.00 39.61
152.00 38.57
153.00 39.32
154.00 42.02
155.00 47.78
156.00 59.22
157.00 54.40
158.00 50.51
159.00 48.83
160.00 46.08
161.00 42.56
162.00 39.60
163.00 37.84
164.00 37.46
165.00 38.15
166.00 38.52
167.00 37.37
168.00 36.02
169.00 35.56
170.00 35.61
171.00 36.01
172.00 36.10
173.00 35.81
174.00 35.68
175.00 36.24
176.00 37.85
177.00 40.65
178.00 45.78
179.00 52.36
180.00 54.13
181.00 50.01
182.00 48.33
183.00 47.50
184.00 45.62
185.00 44.43
186.00 45.52
187.00 47.41
188.00 45.19
189.00 42.78
190.00 42.93
191.00 44.96
192.00 45.99
193.00 45.54
194.00 47.09
195.00 52.13
196.00 54.87
197.00 53.45
198.00 53.25
199.00 48.29
200.00 44.99
201.00 45.43
202.00 51.17
203.00 63.30
204.00 53.43
205.00 64.98
206.00 50.07
207.00 41.60
208.00 38.45
209.00 37.56
210.00 37.01
211.00 35.52
212.00 33.93
213.00 33.01
214.00 32.57
215.00 32.24
216.00 32.07
217.00 32.39
218.00 33.37
219.00 34.95
220.00 37.00
221.00 39.34
222.00 41.31
223.00 41.77
224.00 41.04
225.00 40.51
226.00 40.88
227.00 42.13
228.00 42.47
229.00 40.03
230.00 37.32
231.00 35.90
232.00 35.90
233.00 37.21
234.00 39.64
235.00 43.00
236.00 47.63
237.00 56.71
238.00 64.62
239.00 51.52
240.00 47.19
241.00 44.80
242.00 43.99
243.00 44.89
244.00 47.38
245.00 50.27
246.00 50.59
247.00 48.34
248.00 46.19
249.00 45.59
250.00 47.25
251.00 51.02
252.00 50.11
253.00 45.70
254.00 43.11
255.00 41.78
256.00 41.09
257.00 40.79
258.00 40.76
259.00 41.02
260.00 41.71
261.00 42.78
262.00 43.60
263.00 43.43
264.00 42.61
265.00 41.72
266.00 40.68
267.00 39.23
268.00 37.47
269.00 35.72
270.00 34.14
271.00 32.83
272.00 31.88
273.00 31.35
274.00 31.22
275.00 31.38
276.00 31.66
277.00 31.83
278.00 31.72
279.00 31.30
280.00 30.61
281.00 29.80
282.00 28.90
283.00 27.94
284.00 26.94
285.00 26.02
286.00 25.23
287.00 24.59
288.00 24.06
289.00 23.64
290.00 23.39
291.00 23.43
292.00 23.84
293.00 24.59
294.00 25.50
295.00 26.29
296.00 26.90
297.00 27.46
298.00 27.96
299.00 27.92
300.00 27.00
301.00 25.64
302.00 24.42
303.00 23.56
304.00 23.05
305.00 22.77
306.00 22.62
307.00 22.54
308.00 22.60
309.00 22.90
310.00 23.44
311.00 24.07
312.00 24.56
313.00 24.78
314.00 24.81
315.00 24.79
316.00 24.77
317.00 24.72
318.00 24.63
319.00 24.51
320.00 24.31
321.00 23.91
322.00 23.25
323.00 22.38
324.00 21.42
325.00 20.49
326.00 19.69
327.00 19.17
328.00 19.15
329.00 19.86
330.00 21.59
331.00 24.56
332.00 27.79
333.00 27.03
334.00 23.82
335.00 21.53
336.00 20.43
337.00 20.48
338.00 21.89
339.00 25.32
340.00 30.75
341.00 28.35
342.00 23.75
343.00 22.26
344.00 23.71
345.00 30.86
346.00 31.73
347.00 21.34
348.00 17.23
349.00 15.50
350.00 15.44
351.00 17.05
352.00 21.00
353.00 29.83
354.00 32.92
355.00 27.67
356.00 24.98
357.00 17.52
358.00 11.18
359.00 6.79
