NAME ATR4518R7_2140_X_CO_M45_01T_yyR
FREQUENCY 2140
GAIN 15.74 dBd
TILT	ELECTRICAL
COMMENT DATE 05.08.2013 -45 degrees polarized system Lever position 01T deg
HORIZONTAL 360
0.00 0.00
1.00 0.00
2.00 0.01
3.00 0.01
4.00 0.02
5.00 0.04
6.00 0.06
7.00 0.08
8.00 0.10
9.00 0.13
10.00 0.16
11.00 0.19
12.00 0.23
13.00 0.28
14.00 0.33
15.00 0.39
16.00 0.46
17.00 0.53
18.00 0.62
19.00 0.72
20.00 0.83
21.00 0.96
22.00 1.10
23.00 1.26
24.00 1.43
25.00 1.62
26.00 1.83
27.00 2.05
28.00 2.29
29.00 2.56
30.00 2.84
31.00 3.15
32.00 3.48
33.00 3.82
34.00 4.19
35.00 4.58
36.00 4.99
37.00 5.42
38.00 5.87
39.00 6.34
40.00 6.83
41.00 7.34
42.00 7.87
43.00 8.41
44.00 8.97
45.00 9.53
46.00 10.11
47.00 10.69
48.00 11.27
49.00 11.85
50.00 12.43
51.00 13.00
52.00 13.56
53.00 14.11
54.00 14.63
55.00 15.13
56.00 15.62
57.00 16.08
58.00 16.52
59.00 16.93
60.00 17.33
61.00 17.70
62.00 18.06
63.00 18.40
64.00 18.72
65.00 19.02
66.00 19.31
67.00 19.58
68.00 19.85
69.00 20.09
70.00 20.33
71.00 20.55
72.00 20.76
73.00 20.96
74.00 21.16
75.00 21.35
76.00 21.54
77.00 21.74
78.00 21.94
79.00 22.15
80.00 22.38
81.00 22.62
82.00 22.88
83.00 23.17
84.00 23.48
85.00 23.82
86.00 24.19
87.00 24.59
88.00 25.02
89.00 25.48
90.00 25.98
91.00 26.51
92.00 27.06
93.00 27.64
94.00 28.23
95.00 28.82
96.00 29.39
97.00 29.93
98.00 30.42
99.00 30.83
100.00 31.15
101.00 31.37
102.00 31.48
103.00 31.51
104.00 31.46
105.00 31.36
106.00 31.24
107.00 31.09
108.00 30.96
109.00 30.83
110.00 30.73
111.00 30.66
112.00 30.62
113.00 30.61
114.00 30.65
115.00 30.73
116.00 30.84
117.00 31.00
118.00 31.20
119.00 31.44
120.00 31.72
121.00 32.05
122.00 32.40
123.00 32.79
124.00 33.19
125.00 33.59
126.00 33.98
127.00 34.32
128.00 34.58
129.00 34.75
130.00 34.79
131.00 34.71
132.00 34.51
133.00 34.23
134.00 33.90
135.00 33.54
136.00 33.19
137.00 32.87
138.00 32.59
139.00 32.36
140.00 32.20
141.00 32.12
142.00 32.11
143.00 32.20
144.00 32.37
145.00 32.64
146.00 33.03
147.00 33.54
148.00 34.18
149.00 34.98
150.00 35.96
151.00 37.16
152.00 38.63
153.00 40.39
154.00 42.49
155.00 44.67
156.00 46.00
157.00 45.33
158.00 43.38
159.00 41.36
160.00 39.64
161.00 38.24
162.00 37.13
163.00 36.25
164.00 35.57
165.00 35.07
166.00 34.72
167.00 34.50
168.00 34.42
169.00 34.46
170.00 34.61
171.00 34.87
172.00 35.24
173.00 35.70
174.00 36.25
175.00 36.88
176.00 37.55
177.00 38.23
178.00 38.87
179.00 39.41
180.00 39.79
181.00 39.98
182.00 39.99
183.00 39.87
184.00 39.68
185.00 39.47
186.00 39.28
187.00 39.14
188.00 39.05
189.00 39.01
190.00 39.01
191.00 39.01
192.00 38.99
193.00 38.89
194.00 38.69
195.00 38.37
196.00 37.94
197.00 37.41
198.00 36.82
199.00 36.23
200.00 35.65
201.00 35.11
202.00 34.63
203.00 34.23
204.00 33.91
205.00 33.68
206.00 33.54
207.00 33.49
208.00 33.54
209.00 33.68
210.00 33.93
211.00 34.28
212.00 34.73
213.00 35.30
214.00 35.95
215.00 36.68
216.00 37.46
217.00 38.23
218.00 38.88
219.00 39.29
220.00 39.37
221.00 39.12
222.00 38.60
223.00 37.95
224.00 37.26
225.00 36.61
226.00 36.02
227.00 35.52
228.00 35.12
229.00 34.81
230.00 34.59
231.00 34.46
232.00 34.41
233.00 34.42
234.00 34.50
235.00 34.63
236.00 34.79
237.00 34.96
238.00 35.12
239.00 35.27
240.00 35.36
241.00 35.39
242.00 35.33
243.00 35.20
244.00 34.99
245.00 34.72
246.00 34.40
247.00 34.05
248.00 33.67
249.00 33.29
250.00 32.91
251.00 32.52
252.00 32.15
253.00 31.78
254.00 31.42
255.00 31.06
256.00 30.71
257.00 30.36
258.00 30.00
259.00 29.65
260.00 29.29
261.00 28.93
262.00 28.56
263.00 28.19
264.00 27.80
265.00 27.41
266.00 27.01
267.00 26.59
268.00 26.16
269.00 25.72
270.00 25.27
271.00 24.81
272.00 24.34
273.00 23.86
274.00 23.37
275.00 22.88
276.00 22.38
277.00 21.88
278.00 21.38
279.00 20.89
280.00 20.40
281.00 19.91
282.00 19.43
283.00 18.96
284.00 18.49
285.00 18.03
286.00 17.58
287.00 17.14
288.00 16.71
289.00 16.29
290.00 15.88
291.00 15.48
292.00 15.08
293.00 14.70
294.00 14.31
295.00 13.94
296.00 13.58
297.00 13.22
298.00 12.87
299.00 12.52
300.00 12.18
301.00 11.85
302.00 11.52
303.00 11.20
304.00 10.88
305.00 10.56
306.00 10.26
307.00 9.95
308.00 9.65
309.00 9.35
310.00 9.06
311.00 8.77
312.00 8.49
313.00 8.21
314.00 7.93
315.00 7.66
316.00 7.38
317.00 7.12
318.00 6.85
319.00 6.59
320.00 6.33
321.00 6.07
322.00 5.81
323.00 5.55
324.00 5.30
325.00 5.04
326.00 4.79
327.00 4.55
328.00 4.30
329.00 4.06
330.00 3.81
331.00 3.58
332.00 3.34
333.00 3.11
334.00 2.89
335.00 2.67
336.00 2.46
337.00 2.25
338.00 2.05
339.00 1.86
340.00 1.68
341.00 1.50
342.00 1.34
343.00 1.18
344.00 1.03
345.00 0.90
346.00 0.77
347.00 0.66
348.00 0.55
349.00 0.45
350.00 0.37
351.00 0.29
352.00 0.23
353.00 0.17
354.00 0.13
355.00 0.09
356.00 0.06
357.00 0.03
358.00 0.02
359.00 0.01
VERTICAL 360
0.00 0.34
1.00 0.00
2.00 0.53
3.00 2.06
4.00 4.90
5.00 9.84
6.00 19.08
7.00 18.72
8.00 13.75
9.00 12.90
10.00 14.60
11.00 18.58
12.00 21.33
13.00 18.64
14.00 16.89
15.00 17.74
16.00 22.27
17.00 35.58
18.00 23.15
19.00 17.74
20.00 16.03
21.00 16.43
22.00 18.93
23.00 25.00
24.00 31.62
25.00 23.44
26.00 19.74
27.00 18.81
28.00 19.53
29.00 21.37
30.00 23.61
31.00 25.42
32.00 26.66
33.00 27.59
34.00 27.33
35.00 25.49
36.00 23.39
37.00 21.87
38.00 21.11
39.00 21.16
40.00 22.10
41.00 24.14
42.00 27.76
43.00 34.21
44.00 37.71
45.00 31.46
46.00 28.00
47.00 26.67
48.00 26.86
49.00 28.44
50.00 31.39
51.00 35.23
52.00 37.80
53.00 37.55
54.00 36.42
55.00 35.55
56.00 35.32
57.00 36.14
58.00 38.36
59.00 41.31
60.00 41.73
61.00 39.68
62.00 37.82
63.00 36.51
64.00 35.60
65.00 35.06
66.00 35.08
67.00 35.96
68.00 37.87
69.00 41.04
70.00 46.12
71.00 56.31
72.00 56.36
73.00 44.61
74.00 39.25
75.00 36.51
76.00 35.23
77.00 34.47
78.00 33.51
79.00 32.10
80.00 30.49
81.00 29.33
82.00 29.02
83.00 29.54
84.00 30.49
85.00 31.12
86.00 30.89
87.00 30.54
88.00 31.41
89.00 34.53
90.00 40.01
91.00 39.74
92.00 35.77
93.00 33.32
94.00 32.05
95.00 32.08
96.00 33.52
97.00 36.36
98.00 40.36
99.00 43.59
100.00 43.54
101.00 43.92
102.00 46.86
103.00 48.21
104.00 45.65
105.00 44.40
106.00 44.14
107.00 43.26
108.00 41.72
109.00 40.75
110.00 41.08
111.00 42.80
112.00 45.25
113.00 47.26
114.00 47.85
115.00 47.59
116.00 48.59
117.00 51.75
118.00 53.72
119.00 53.86
120.00 55.51
121.00 52.04
122.00 47.10
123.00 43.92
124.00 42.17
125.00 41.87
126.00 42.95
127.00 44.67
128.00 45.74
129.00 45.57
130.00 44.86
131.00 45.05
132.00 47.21
133.00 50.93
134.00 51.27
135.00 46.92
136.00 42.56
137.00 39.82
138.00 38.73
139.00 38.87
140.00 39.62
141.00 40.61
142.00 41.85
143.00 43.23
144.00 44.28
145.00 44.63
146.00 44.11
147.00 42.39
148.00 39.99
149.00 38.03
150.00 37.03
151.00 36.92
152.00 37.46
153.00 38.62
154.00 41.12
155.00 48.30
156.00 52.37
157.00 40.03
158.00 35.95
159.00 34.59
160.00 34.96
161.00 36.38
162.00 38.01
163.00 38.94
164.00 38.62
165.00 37.41
166.00 36.49
167.00 36.64
168.00 38.11
169.00 40.53
170.00 42.01
171.00 41.11
172.00 39.49
173.00 37.98
174.00 36.74
175.00 36.15
176.00 36.58
177.00 37.99
178.00 39.47
179.00 39.91
180.00 40.20
181.00 41.32
182.00 42.88
183.00 43.48
184.00 43.01
185.00 43.00
186.00 44.62
187.00 47.66
188.00 47.88
189.00 44.49
190.00 41.33
191.00 39.51
192.00 39.26
193.00 40.05
194.00 40.45
195.00 40.27
196.00 40.79
197.00 42.28
198.00 43.73
199.00 44.01
200.00 43.65
201.00 43.98
202.00 45.28
203.00 46.12
204.00 45.82
205.00 44.98
206.00 42.69
207.00 39.82
208.00 37.73
209.00 36.58
210.00 35.84
211.00 34.74
212.00 33.21
213.00 31.90
214.00 31.10
215.00 30.83
216.00 31.35
217.00 33.22
218.00 37.21
219.00 43.23
220.00 43.42
221.00 39.95
222.00 37.28
223.00 35.50
224.00 35.21
225.00 36.84
226.00 41.12
227.00 50.81
228.00 59.60
229.00 52.60
230.00 52.59
231.00 49.96
232.00 47.28
233.00 46.46
234.00 46.97
235.00 48.18
236.00 49.01
237.00 48.23
238.00 46.42
239.00 44.66
240.00 43.09
241.00 41.34
242.00 39.71
243.00 39.08
244.00 40.20
245.00 43.91
246.00 53.11
247.00 55.61
248.00 48.28
249.00 46.14
250.00 45.44
251.00 44.90
252.00 43.83
253.00 42.20
254.00 40.60
255.00 39.65
256.00 39.50
257.00 39.96
258.00 40.65
259.00 41.35
260.00 42.21
261.00 43.25
262.00 43.17
263.00 41.34
264.00 39.65
265.00 39.01
266.00 39.07
267.00 38.92
268.00 37.78
269.00 35.84
270.00 33.99
271.00 32.80
272.00 32.38
273.00 32.58
274.00 33.09
275.00 33.62
276.00 34.10
277.00 34.58
278.00 34.91
279.00 34.75
280.00 33.93
281.00 32.81
282.00 31.95
283.00 31.72
284.00 32.16
285.00 33.04
286.00 33.88
287.00 34.18
288.00 33.75
289.00 32.88
290.00 32.09
291.00 31.61
292.00 31.30
293.00 30.87
294.00 30.18
295.00 29.41
296.00 28.88
297.00 28.81
298.00 29.20
299.00 29.85
300.00 30.58
301.00 31.48
302.00 32.86
303.00 35.34
304.00 39.85
305.00 41.08
306.00 35.15
307.00 31.04
308.00 28.94
309.00 28.51
310.00 29.95
311.00 34.46
312.00 42.39
313.00 33.32
314.00 27.13
315.00 23.51
316.00 21.04
317.00 19.29
318.00 18.11
319.00 17.45
320.00 17.23
321.00 17.41
322.00 17.92
323.00 18.71
324.00 19.64
325.00 20.37
326.00 20.43
327.00 19.66
328.00 18.53
329.00 17.66
330.00 17.53
331.00 18.54
332.00 21.35
333.00 28.07
334.00 33.27
335.00 24.20
336.00 20.58
337.00 19.63
338.00 20.68
339.00 24.32
340.00 35.22
341.00 30.54
342.00 23.34
343.00 21.33
344.00 22.24
345.00 26.39
346.00 28.97
347.00 23.52
348.00 20.41
349.00 19.84
350.00 21.22
351.00 23.93
352.00 26.14
353.00 28.75
354.00 32.00
355.00 19.41
356.00 11.72
357.00 6.89
358.00 3.65
359.00 1.53
