NAME ATR4518R7_0880_X_CO_M45_09T
FREQUENCY 0880
GAIN 14.88 dBd
TILT	ELECTRICAL
COMMENT DATE 05.08.2013 -45 degrees polarized system Lever position 09T deg
HORIZONTAL 360
0.00 0.00
1.00 0.00
2.00 0.00
3.00 0.01
4.00 0.02
5.00 0.04
6.00 0.07
7.00 0.11
8.00 0.15
9.00 0.19
10.00 0.24
11.00 0.30
12.00 0.37
13.00 0.44
14.00 0.52
15.00 0.60
16.00 0.70
17.00 0.79
18.00 0.90
19.00 1.01
20.00 1.13
21.00 1.25
22.00 1.38
23.00 1.52
24.00 1.66
25.00 1.81
26.00 1.97
27.00 2.14
28.00 2.31
29.00 2.48
30.00 2.67
31.00 2.86
32.00 3.06
33.00 3.26
34.00 3.48
35.00 3.69
36.00 3.92
37.00 4.15
38.00 4.39
39.00 4.64
40.00 4.89
41.00 5.15
42.00 5.42
43.00 5.69
44.00 5.97
45.00 6.26
46.00 6.55
47.00 6.85
48.00 7.16
49.00 7.47
50.00 7.79
51.00 8.12
52.00 8.45
53.00 8.79
54.00 9.13
55.00 9.49
56.00 9.85
57.00 10.21
58.00 10.58
59.00 10.95
60.00 11.34
61.00 11.72
62.00 12.11
63.00 12.51
64.00 12.91
65.00 13.32
66.00 13.73
67.00 14.15
68.00 14.57
69.00 15.00
70.00 15.43
71.00 15.86
72.00 16.30
73.00 16.74
74.00 17.19
75.00 17.64
76.00 18.09
77.00 18.55
78.00 19.01
79.00 19.47
80.00 19.94
81.00 20.41
82.00 20.88
83.00 21.36
84.00 21.83
85.00 22.31
86.00 22.79
87.00 23.27
88.00 23.75
89.00 24.23
90.00 24.71
91.00 25.19
92.00 25.66
93.00 26.13
94.00 26.59
95.00 27.04
96.00 27.48
97.00 27.91
98.00 28.33
99.00 28.73
100.00 29.12
101.00 29.50
102.00 29.86
103.00 30.21
104.00 30.54
105.00 30.86
106.00 31.17
107.00 31.47
108.00 31.76
109.00 32.05
110.00 32.34
111.00 32.63
112.00 32.93
113.00 33.23
114.00 33.54
115.00 33.86
116.00 34.20
117.00 34.55
118.00 34.92
119.00 35.30
120.00 35.71
121.00 36.13
122.00 36.56
123.00 37.00
124.00 37.44
125.00 37.87
126.00 38.29
127.00 38.67
128.00 39.00
129.00 39.26
130.00 39.44
131.00 39.52
132.00 39.50
133.00 39.39
134.00 39.20
135.00 38.94
136.00 38.64
137.00 38.30
138.00 37.96
139.00 37.61
140.00 37.27
141.00 36.95
142.00 36.64
143.00 36.37
144.00 36.12
145.00 35.90
146.00 35.71
147.00 35.56
148.00 35.43
149.00 35.33
150.00 35.27
151.00 35.24
152.00 35.24
153.00 35.28
154.00 35.35
155.00 35.46
156.00 35.60
157.00 35.78
158.00 35.99
159.00 36.25
160.00 36.54
161.00 36.89
162.00 37.27
163.00 37.70
164.00 38.20
165.00 38.73
166.00 39.35
167.00 40.02
168.00 40.77
169.00 41.61
170.00 42.55
171.00 43.59
172.00 44.74
173.00 46.03
174.00 47.38
175.00 48.75
176.00 49.93
177.00 50.59
178.00 50.52
179.00 49.75
180.00 48.67
181.00 47.47
182.00 46.35
183.00 45.34
184.00 44.46
185.00 43.67
186.00 43.00
187.00 42.41
188.00 41.90
189.00 41.47
190.00 41.11
191.00 40.80
192.00 40.55
193.00 40.34
194.00 40.19
195.00 40.06
196.00 39.98
197.00 39.91
198.00 39.88
199.00 39.86
200.00 39.85
201.00 39.85
202.00 39.85
203.00 39.82
204.00 39.79
205.00 39.72
206.00 39.62
207.00 39.48
208.00 39.29
209.00 39.07
210.00 38.81
211.00 38.51
212.00 38.20
213.00 37.85
214.00 37.49
215.00 37.13
216.00 36.76
217.00 36.40
218.00 36.06
219.00 35.71
220.00 35.39
221.00 35.10
222.00 34.81
223.00 34.56
224.00 34.32
225.00 34.11
226.00 33.93
227.00 33.77
228.00 33.63
229.00 33.53
230.00 33.45
231.00 33.40
232.00 33.37
233.00 33.38
234.00 33.41
235.00 33.47
236.00 33.55
237.00 33.66
238.00 33.79
239.00 33.93
240.00 34.09
241.00 34.25
242.00 34.40
243.00 34.53
244.00 34.63
245.00 34.67
246.00 34.63
247.00 34.51
248.00 34.29
249.00 33.96
250.00 33.54
251.00 33.02
252.00 32.44
253.00 31.81
254.00 31.14
255.00 30.46
256.00 29.76
257.00 29.07
258.00 28.39
259.00 27.72
260.00 27.07
261.00 26.43
262.00 25.81
263.00 25.21
264.00 24.63
265.00 24.07
266.00 23.52
267.00 22.99
268.00 22.48
269.00 21.98
270.00 21.50
271.00 21.03
272.00 20.58
273.00 20.13
274.00 19.70
275.00 19.28
276.00 18.86
277.00 18.46
278.00 18.07
279.00 17.68
280.00 17.30
281.00 16.93
282.00 16.56
283.00 16.20
284.00 15.84
285.00 15.49
286.00 15.14
287.00 14.80
288.00 14.46
289.00 14.13
290.00 13.79
291.00 13.46
292.00 13.13
293.00 12.81
294.00 12.48
295.00 12.17
296.00 11.85
297.00 11.53
298.00 11.22
299.00 10.91
300.00 10.61
301.00 10.30
302.00 9.99
303.00 9.69
304.00 9.39
305.00 9.10
306.00 8.80
307.00 8.51
308.00 8.23
309.00 7.94
310.00 7.66
311.00 7.38
312.00 7.11
313.00 6.84
314.00 6.58
315.00 6.31
316.00 6.06
317.00 5.80
318.00 5.56
319.00 5.31
320.00 5.07
321.00 4.84
322.00 4.61
323.00 4.38
324.00 4.16
325.00 3.95
326.00 3.74
327.00 3.53
328.00 3.33
329.00 3.14
330.00 2.95
331.00 2.77
332.00 2.59
333.00 2.42
334.00 2.25
335.00 2.09
336.00 1.94
337.00 1.79
338.00 1.64
339.00 1.51
340.00 1.37
341.00 1.25
342.00 1.13
343.00 1.02
344.00 0.91
345.00 0.81
346.00 0.71
347.00 0.62
348.00 0.54
349.00 0.46
350.00 0.38
351.00 0.32
352.00 0.26
353.00 0.21
354.00 0.16
355.00 0.12
356.00 0.08
357.00 0.05
358.00 0.03
359.00 0.01
VERTICAL 360
0.00 22.81
1.00 15.81
2.00 11.18
3.00 7.79
4.00 5.23
5.00 3.29
6.00 1.86
7.00 0.86
8.00 0.25
9.00 0.00
10.00 0.10
11.00 0.55
12.00 1.38
13.00 2.63
14.00 4.35
15.00 6.64
16.00 9.70
17.00 13.93
18.00 20.54
19.00 39.30
20.00 25.91
21.00 21.32
22.00 20.16
23.00 20.90
24.00 23.60
25.00 29.88
26.00 44.69
27.00 28.00
28.00 23.55
29.00 21.59
30.00 20.86
31.00 20.94
32.00 21.68
33.00 23.04
34.00 25.08
35.00 27.59
36.00 29.58
37.00 29.94
38.00 29.75
39.00 30.30
40.00 31.87
41.00 33.60
42.00 33.44
43.00 31.51
44.00 29.35
45.00 27.28
46.00 25.42
47.00 24.04
48.00 23.32
49.00 23.36
50.00 24.15
51.00 25.66
52.00 27.76
53.00 30.36
54.00 33.71
55.00 38.76
56.00 40.68
57.00 34.31
58.00 30.25
59.00 28.06
60.00 27.17
61.00 27.25
62.00 27.93
63.00 28.48
64.00 28.23
65.00 27.44
66.00 26.83
67.00 26.73
68.00 27.20
69.00 28.04
70.00 28.75
71.00 28.86
72.00 28.79
73.00 29.31
74.00 30.86
75.00 33.66
76.00 36.92
77.00 36.02
78.00 32.59
79.00 30.42
80.00 29.88
81.00 30.98
82.00 33.40
83.00 33.48
84.00 30.02
85.00 27.18
86.00 25.74
87.00 25.68
88.00 26.86
89.00 28.81
90.00 29.87
91.00 28.88
92.00 27.27
93.00 26.16
94.00 25.94
95.00 26.74
96.00 28.48
97.00 30.84
98.00 32.80
99.00 33.16
100.00 32.39
101.00 31.79
102.00 31.96
103.00 33.00
104.00 34.72
105.00 36.76
106.00 39.04
107.00 41.33
108.00 41.45
109.00 39.49
110.00 37.71
111.00 36.35
112.00 35.27
113.00 34.60
114.00 34.38
115.00 34.47
116.00 34.74
117.00 35.19
118.00 35.88
119.00 36.86
120.00 38.10
121.00 39.37
122.00 40.34
123.00 41.34
124.00 43.18
125.00 46.43
126.00 48.87
127.00 45.22
128.00 41.30
129.00 39.07
130.00 38.44
131.00 39.42
132.00 42.07
133.00 46.38
134.00 48.98
135.00 45.49
136.00 41.67
137.00 38.72
138.00 36.44
139.00 34.74
140.00 33.68
141.00 33.37
142.00 33.81
143.00 34.77
144.00 35.62
145.00 35.71
146.00 35.17
147.00 34.51
148.00 34.03
149.00 33.74
150.00 33.59
151.00 33.57
152.00 33.77
153.00 34.20
154.00 34.86
155.00 35.74
156.00 36.86
157.00 38.19
158.00 39.32
159.00 39.30
160.00 37.99
161.00 36.51
162.00 35.57
163.00 35.39
164.00 36.06
165.00 37.71
166.00 40.62
167.00 45.53
168.00 54.85
169.00 54.66
170.00 48.98
171.00 46.91
172.00 46.22
173.00 46.19
174.00 46.82
175.00 46.77
176.00 43.78
177.00 40.34
178.00 38.21
179.00 37.44
180.00 37.81
181.00 38.97
182.00 40.11
183.00 40.06
184.00 38.54
185.00 36.38
186.00 34.26
187.00 32.55
188.00 31.43
189.00 30.94
190.00 30.98
191.00 31.26
192.00 31.47
193.00 31.49
194.00 31.51
195.00 31.72
196.00 32.18
197.00 32.89
198.00 33.86
199.00 35.17
200.00 36.72
201.00 37.58
202.00 36.79
203.00 35.40
204.00 34.53
205.00 34.39
206.00 34.81
207.00 35.54
208.00 36.45
209.00 37.58
210.00 39.19
211.00 41.60
212.00 45.21
213.00 49.98
214.00 50.91
215.00 46.74
216.00 43.29
217.00 40.86
218.00 39.08
219.00 37.62
220.00 36.37
221.00 35.35
222.00 34.70
223.00 34.59
224.00 35.11
225.00 36.17
226.00 37.45
227.00 38.69
228.00 40.03
229.00 41.64
230.00 43.49
231.00 45.22
232.00 44.81
233.00 42.40
234.00 40.73
235.00 40.20
236.00 39.92
237.00 39.36
238.00 39.29
239.00 40.20
240.00 41.09
241.00 40.73
242.00 40.54
243.00 41.69
244.00 43.55
245.00 44.13
246.00 43.09
247.00 41.09
248.00 39.11
249.00 38.19
250.00 38.67
251.00 40.20
252.00 41.53
253.00 40.67
254.00 38.00
255.00 35.54
256.00 34.25
257.00 34.24
258.00 35.30
259.00 36.68
260.00 36.93
261.00 35.44
262.00 33.57
263.00 32.44
264.00 32.41
265.00 33.48
266.00 35.40
267.00 37.64
268.00 38.99
269.00 37.77
270.00 35.66
271.00 34.55
272.00 34.79
273.00 36.19
274.00 38.20
275.00 39.74
276.00 39.21
277.00 37.02
278.00 35.09
279.00 34.13
280.00 34.09
281.00 34.69
282.00 35.65
283.00 36.74
284.00 37.70
285.00 38.17
286.00 38.08
287.00 37.53
288.00 36.56
289.00 35.41
290.00 34.54
291.00 34.31
292.00 34.80
293.00 35.79
294.00 36.86
295.00 37.70
296.00 38.29
297.00 38.53
298.00 38.48
299.00 38.56
300.00 38.84
301.00 38.82
302.00 38.45
303.00 38.13
304.00 37.47
305.00 35.99
306.00 34.50
307.00 33.82
308.00 34.13
309.00 35.27
310.00 36.95
311.00 38.88
312.00 41.31
313.00 45.71
314.00 47.95
315.00 38.77
316.00 33.03
317.00 29.33
318.00 26.83
319.00 25.12
320.00 24.01
321.00 23.37
322.00 23.20
323.00 23.55
324.00 24.53
325.00 26.31
326.00 29.36
327.00 35.33
328.00 54.77
329.00 33.13
330.00 27.42
331.00 24.23
332.00 22.35
333.00 21.43
334.00 21.39
335.00 22.23
336.00 24.05
337.00 27.22
338.00 32.95
339.00 48.49
340.00 35.51
341.00 30.52
342.00 28.89
343.00 29.57
344.00 33.36
345.00 39.61
346.00 30.10
347.00 24.69
348.00 21.78
349.00 20.33
350.00 19.97
351.00 20.56
352.00 22.11
353.00 24.61
354.00 27.53
355.00 28.63
356.00 27.60
357.00 27.49
358.00 31.00
359.00 38.30
