NAME ATR4518R7_1750_X_CO_M45_07T_yyR
FREQUENCY 1750
GAIN 14.58 dBd
TILT	ELECTRICAL
COMMENT DATE 05.08.2013 -45 degrees polarized system Lever position 07T deg
HORIZONTAL 360
0.00 0.01
1.00 0.00
2.00 0.00
3.00 0.00
4.00 0.00
5.00 0.01
6.00 0.03
7.00 0.05
8.00 0.08
9.00 0.11
10.00 0.15
11.00 0.19
12.00 0.25
13.00 0.31
14.00 0.38
15.00 0.46
16.00 0.55
17.00 0.65
18.00 0.75
19.00 0.87
20.00 1.00
21.00 1.13
22.00 1.28
23.00 1.44
24.00 1.61
25.00 1.79
26.00 1.98
27.00 2.18
28.00 2.39
29.00 2.61
30.00 2.84
31.00 3.08
32.00 3.34
33.00 3.60
34.00 3.88
35.00 4.16
36.00 4.45
37.00 4.75
38.00 5.06
39.00 5.38
40.00 5.70
41.00 6.03
42.00 6.37
43.00 6.71
44.00 7.06
45.00 7.41
46.00 7.77
47.00 8.13
48.00 8.49
49.00 8.86
50.00 9.22
51.00 9.59
52.00 9.96
53.00 10.32
54.00 10.69
55.00 11.05
56.00 11.41
57.00 11.76
58.00 12.11
59.00 12.45
60.00 12.79
61.00 13.12
62.00 13.44
63.00 13.75
64.00 14.05
65.00 14.35
66.00 14.62
67.00 14.90
68.00 15.16
69.00 15.41
70.00 15.66
71.00 15.90
72.00 16.13
73.00 16.35
74.00 16.58
75.00 16.80
76.00 17.02
77.00 17.24
78.00 17.47
79.00 17.70
80.00 17.94
81.00 18.19
82.00 18.44
83.00 18.71
84.00 18.98
85.00 19.27
86.00 19.56
87.00 19.87
88.00 20.19
89.00 20.51
90.00 20.85
91.00 21.18
92.00 21.53
93.00 21.87
94.00 22.21
95.00 22.54
96.00 22.86
97.00 23.17
98.00 23.46
99.00 23.73
100.00 23.98
101.00 24.20
102.00 24.41
103.00 24.58
104.00 24.74
105.00 24.89
106.00 25.02
107.00 25.14
108.00 25.27
109.00 25.40
110.00 25.53
111.00 25.68
112.00 25.84
113.00 26.02
114.00 26.22
115.00 26.45
116.00 26.69
117.00 26.96
118.00 27.25
119.00 27.56
120.00 27.88
121.00 28.22
122.00 28.57
123.00 28.91
124.00 29.25
125.00 29.58
126.00 29.89
127.00 30.17
128.00 30.42
129.00 30.65
130.00 30.85
131.00 31.03
132.00 31.20
133.00 31.37
134.00 31.56
135.00 31.77
136.00 32.01
137.00 32.31
138.00 32.68
139.00 33.14
140.00 33.69
141.00 34.36
142.00 35.18
143.00 36.18
144.00 37.42
145.00 38.96
146.00 40.90
147.00 43.30
148.00 45.87
149.00 46.90
150.00 44.96
151.00 42.13
152.00 39.65
153.00 37.62
154.00 35.97
155.00 34.60
156.00 33.45
157.00 32.49
158.00 31.68
159.00 30.99
160.00 30.42
161.00 29.95
162.00 29.57
163.00 29.29
164.00 29.08
165.00 28.94
166.00 28.89
167.00 28.90
168.00 28.99
169.00 29.15
170.00 29.39
171.00 29.70
172.00 30.10
173.00 30.58
174.00 31.14
175.00 31.80
176.00 32.56
177.00 33.43
178.00 34.40
179.00 35.46
180.00 36.58
181.00 37.67
182.00 38.58
183.00 39.09
184.00 39.06
185.00 38.52
186.00 37.68
187.00 36.73
188.00 35.79
189.00 34.93
190.00 34.17
191.00 33.51
192.00 32.95
193.00 32.48
194.00 32.10
195.00 31.81
196.00 31.59
197.00 31.45
198.00 31.37
199.00 31.36
200.00 31.42
201.00 31.53
202.00 31.70
203.00 31.93
204.00 32.21
205.00 32.53
206.00 32.90
207.00 33.29
208.00 33.70
209.00 34.11
210.00 34.49
211.00 34.81
212.00 35.04
213.00 35.16
214.00 35.15
215.00 35.02
216.00 34.78
217.00 34.46
218.00 34.09
219.00 33.70
220.00 33.31
221.00 32.94
222.00 32.60
223.00 32.31
224.00 32.07
225.00 31.89
226.00 31.76
227.00 31.70
228.00 31.70
229.00 31.77
230.00 31.91
231.00 32.14
232.00 32.44
233.00 32.83
234.00 33.32
235.00 33.91
236.00 34.61
237.00 35.43
238.00 36.37
239.00 37.40
240.00 38.46
241.00 39.40
242.00 39.97
243.00 39.90
244.00 39.19
245.00 38.05
246.00 36.77
247.00 35.51
248.00 34.34
249.00 33.27
250.00 32.32
251.00 31.47
252.00 30.71
253.00 30.05
254.00 29.45
255.00 28.92
256.00 28.45
257.00 28.04
258.00 27.66
259.00 27.33
260.00 27.03
261.00 26.76
262.00 26.50
263.00 26.27
264.00 26.03
265.00 25.80
266.00 25.56
267.00 25.31
268.00 25.05
269.00 24.76
270.00 24.45
271.00 24.12
272.00 23.76
273.00 23.37
274.00 22.96
275.00 22.53
276.00 22.08
277.00 21.62
278.00 21.15
279.00 20.67
280.00 20.19
281.00 19.70
282.00 19.21
283.00 18.73
284.00 18.24
285.00 17.76
286.00 17.28
287.00 16.81
288.00 16.34
289.00 15.88
290.00 15.42
291.00 14.96
292.00 14.51
293.00 14.07
294.00 13.63
295.00 13.19
296.00 12.76
297.00 12.34
298.00 11.92
299.00 11.50
300.00 11.09
301.00 10.69
302.00 10.29
303.00 9.90
304.00 9.51
305.00 9.13
306.00 8.75
307.00 8.38
308.00 8.02
309.00 7.67
310.00 7.32
311.00 6.98
312.00 6.65
313.00 6.33
314.00 6.01
315.00 5.71
316.00 5.41
317.00 5.12
318.00 4.84
319.00 4.57
320.00 4.31
321.00 4.06
322.00 3.82
323.00 3.58
324.00 3.36
325.00 3.14
326.00 2.94
327.00 2.74
328.00 2.55
329.00 2.37
330.00 2.20
331.00 2.04
332.00 1.89
333.00 1.75
334.00 1.61
335.00 1.48
336.00 1.36
337.00 1.25
338.00 1.14
339.00 1.04
340.00 0.94
341.00 0.86
342.00 0.77
343.00 0.70
344.00 0.62
345.00 0.56
346.00 0.50
347.00 0.44
348.00 0.38
349.00 0.34
350.00 0.29
351.00 0.25
352.00 0.21
353.00 0.17
354.00 0.14
355.00 0.11
356.00 0.08
357.00 0.06
358.00 0.04
359.00 0.02
VERTICAL 360
0.00 26.79
1.00 14.85
2.00 8.85
3.00 5.09
4.00 2.60
5.00 1.04
6.00 0.20
7.00 0.00
8.00 0.39
9.00 1.40
10.00 3.11
11.00 5.74
12.00 9.71
13.00 15.65
14.00 19.99
15.00 16.83
16.00 15.19
17.00 15.91
18.00 19.04
19.00 25.73
20.00 26.77
21.00 20.38
22.00 17.48
23.00 16.41
24.00 16.58
25.00 17.92
26.00 20.85
27.00 26.41
28.00 29.44
29.00 23.32
30.00 20.07
31.00 19.01
32.00 19.58
33.00 21.83
34.00 26.80
35.00 38.56
36.00 29.20
37.00 22.98
38.00 20.14
39.00 18.93
40.00 18.94
41.00 20.08
42.00 22.45
43.00 26.52
44.00 34.63
45.00 46.15
46.00 30.91
47.00 26.29
48.00 23.74
49.00 22.28
50.00 21.56
51.00 21.30
52.00 21.18
53.00 20.96
54.00 20.66
55.00 20.50
56.00 20.67
57.00 21.29
58.00 22.37
59.00 23.80
60.00 25.41
61.00 27.00
62.00 28.43
63.00 29.68
64.00 30.80
65.00 31.67
66.00 32.20
67.00 32.61
68.00 32.98
69.00 32.96
70.00 32.53
71.00 31.99
72.00 31.50
73.00 31.02
74.00 30.48
75.00 29.75
76.00 28.87
77.00 28.07
78.00 27.52
79.00 27.20
80.00 26.95
81.00 26.65
82.00 26.20
83.00 25.67
84.00 25.28
85.00 25.20
86.00 25.37
87.00 25.70
88.00 26.38
89.00 27.72
90.00 29.47
91.00 30.48
92.00 29.56
93.00 28.29
94.00 28.03
95.00 28.73
96.00 30.22
97.00 32.37
98.00 34.77
99.00 36.68
100.00 37.76
101.00 38.42
102.00 39.17
103.00 40.58
104.00 42.58
105.00 43.40
106.00 42.00
107.00 40.10
108.00 38.89
109.00 38.84
110.00 39.92
111.00 40.98
112.00 40.03
113.00 37.77
114.00 35.78
115.00 34.49
116.00 33.93
117.00 33.98
118.00 34.34
119.00 34.76
120.00 35.14
121.00 35.54
122.00 36.00
123.00 36.41
124.00 36.35
125.00 35.33
126.00 33.66
127.00 32.28
128.00 31.83
129.00 32.47
130.00 34.03
131.00 36.00
132.00 38.08
133.00 40.94
134.00 45.89
135.00 51.92
136.00 46.68
137.00 41.57
138.00 38.86
139.00 37.97
140.00 38.93
141.00 42.91
142.00 52.61
143.00 41.62
144.00 35.76
145.00 33.28
146.00 32.70
147.00 33.46
148.00 34.98
149.00 36.03
150.00 35.51
151.00 34.45
152.00 33.97
153.00 33.91
154.00 33.53
155.00 32.92
156.00 32.90
157.00 33.98
158.00 36.28
159.00 39.42
160.00 41.33
161.00 39.56
162.00 36.80
163.00 34.98
164.00 34.26
165.00 34.42
166.00 34.89
167.00 34.94
168.00 34.55
169.00 34.54
170.00 35.55
171.00 37.65
172.00 39.60
173.00 38.90
174.00 37.17
175.00 36.50
176.00 37.22
177.00 39.43
178.00 43.38
179.00 50.13
180.00 61.84
181.00 46.34
182.00 39.52
183.00 35.78
184.00 33.89
185.00 33.30
186.00 33.58
187.00 34.25
188.00 34.75
189.00 34.47
190.00 33.41
191.00 32.33
192.00 31.93
193.00 32.46
194.00 33.95
195.00 35.97
196.00 37.52
197.00 37.76
198.00 37.29
199.00 37.30
200.00 38.75
201.00 42.17
202.00 43.74
203.00 40.85
204.00 40.50
205.00 44.60
206.00 41.84
207.00 34.14
208.00 30.13
209.00 28.20
210.00 27.74
211.00 28.47
212.00 30.21
213.00 32.69
214.00 35.37
215.00 37.69
216.00 39.52
217.00 41.10
218.00 43.07
219.00 46.19
220.00 47.89
221.00 44.08
222.00 40.20
223.00 37.39
224.00 35.46
225.00 34.49
226.00 34.54
227.00 35.42
228.00 36.32
229.00 36.00
230.00 34.62
231.00 33.28
232.00 32.48
233.00 32.29
234.00 32.82
235.00 34.34
236.00 37.26
237.00 41.74
238.00 45.06
239.00 44.65
240.00 44.73
241.00 44.81
242.00 43.40
243.00 42.27
244.00 42.44
245.00 43.23
246.00 42.82
247.00 41.35
248.00 40.57
249.00 40.71
250.00 40.35
251.00 38.42
252.00 36.19
253.00 34.63
254.00 33.93
255.00 34.06
256.00 34.77
257.00 35.47
258.00 35.51
259.00 34.96
260.00 34.23
261.00 33.43
262.00 32.63
263.00 31.97
264.00 31.70
265.00 31.97
266.00 32.65
267.00 33.32
268.00 33.57
269.00 33.57
270.00 33.83
271.00 34.62
272.00 35.82
273.00 36.88
274.00 36.95
275.00 35.69
276.00 33.68
277.00 31.63
278.00 29.88
279.00 28.50
280.00 27.44
281.00 26.65
282.00 26.03
283.00 25.51
284.00 25.07
285.00 24.71
286.00 24.46
287.00 24.39
288.00 24.55
289.00 24.95
290.00 25.47
291.00 26.01
292.00 26.56
293.00 27.31
294.00 28.24
295.00 28.53
296.00 27.12
297.00 24.86
298.00 22.94
299.00 21.62
300.00 20.75
301.00 20.14
302.00 19.66
303.00 19.31
304.00 19.24
305.00 19.68
306.00 20.88
307.00 23.19
308.00 27.09
309.00 31.01
310.00 27.72
311.00 23.37
312.00 20.56
313.00 18.82
314.00 17.91
315.00 17.74
316.00 18.32
317.00 19.76
318.00 22.38
319.00 27.15
320.00 36.22
321.00 31.34
322.00 25.32
323.00 22.63
324.00 21.57
325.00 21.63
326.00 22.67
327.00 24.70
328.00 27.56
329.00 29.66
330.00 29.35
331.00 29.23
332.00 31.19
333.00 31.29
334.00 25.49
335.00 21.01
336.00 18.28
337.00 16.76
338.00 16.11
339.00 16.16
340.00 16.80
341.00 17.93
342.00 19.25
343.00 20.22
344.00 20.52
345.00 20.71
346.00 21.73
347.00 24.79
348.00 32.32
349.00 28.53
350.00 21.22
351.00 17.93
352.00 16.80
353.00 17.53
354.00 20.63
355.00 28.01
356.00 28.16
357.00 21.84
358.00 20.67
359.00 24.67
