NAME ATR4518R7_1850_X_CO_M45_09T_yyR
FREQUENCY 1850
GAIN 14.87 dBd
TILT	ELECTRICAL
COMMENT DATE 05.08.2013 -45 degrees polarized system Lever position 09T deg
HORIZONTAL 360
0.00 0.11
1.00 0.08
2.00 0.05
3.00 0.03
4.00 0.02
5.00 0.01
6.00 0.00
7.00 0.00
8.00 0.01
9.00 0.02
10.00 0.04
11.00 0.07
12.00 0.10
13.00 0.13
14.00 0.18
15.00 0.23
16.00 0.29
17.00 0.36
18.00 0.44
19.00 0.52
20.00 0.62
21.00 0.72
22.00 0.83
23.00 0.95
24.00 1.08
25.00 1.22
26.00 1.37
27.00 1.53
28.00 1.70
29.00 1.88
30.00 2.07
31.00 2.26
32.00 2.47
33.00 2.69
34.00 2.92
35.00 3.16
36.00 3.41
37.00 3.66
38.00 3.93
39.00 4.20
40.00 4.49
41.00 4.78
42.00 5.08
43.00 5.39
44.00 5.70
45.00 6.03
46.00 6.36
47.00 6.70
48.00 7.04
49.00 7.39
50.00 7.75
51.00 8.12
52.00 8.49
53.00 8.87
54.00 9.25
55.00 9.64
56.00 10.03
57.00 10.43
58.00 10.84
59.00 11.25
60.00 11.66
61.00 12.08
62.00 12.51
63.00 12.93
64.00 13.36
65.00 13.80
66.00 14.23
67.00 14.67
68.00 15.11
69.00 15.55
70.00 15.99
71.00 16.43
72.00 16.87
73.00 17.30
74.00 17.74
75.00 18.18
76.00 18.62
77.00 19.06
78.00 19.50
79.00 19.95
80.00 20.40
81.00 20.86
82.00 21.33
83.00 21.81
84.00 22.30
85.00 22.81
86.00 23.33
87.00 23.88
88.00 24.46
89.00 25.06
90.00 25.69
91.00 26.36
92.00 27.06
93.00 27.79
94.00 28.57
95.00 29.38
96.00 30.22
97.00 31.08
98.00 31.94
99.00 32.78
100.00 33.56
101.00 34.24
102.00 34.76
103.00 35.08
104.00 35.21
105.00 35.16
106.00 34.97
107.00 34.69
108.00 34.37
109.00 34.03
110.00 33.70
111.00 33.39
112.00 33.11
113.00 32.85
114.00 32.63
115.00 32.44
116.00 32.26
117.00 32.11
118.00 31.98
119.00 31.86
120.00 31.75
121.00 31.64
122.00 31.55
123.00 31.46
124.00 31.37
125.00 31.30
126.00 31.23
127.00 31.18
128.00 31.14
129.00 31.11
130.00 31.11
131.00 31.12
132.00 31.16
133.00 31.23
134.00 31.32
135.00 31.43
136.00 31.57
137.00 31.73
138.00 31.91
139.00 32.10
140.00 32.29
141.00 32.49
142.00 32.67
143.00 32.83
144.00 32.97
145.00 33.07
146.00 33.13
147.00 33.15
148.00 33.13
149.00 33.08
150.00 33.01
151.00 32.92
152.00 32.83
153.00 32.76
154.00 32.70
155.00 32.67
156.00 32.68
157.00 32.74
158.00 32.85
159.00 33.02
160.00 33.25
161.00 33.56
162.00 33.94
163.00 34.41
164.00 34.98
165.00 35.67
166.00 36.48
167.00 37.44
168.00 38.57
169.00 39.94
170.00 41.58
171.00 43.62
172.00 46.19
173.00 49.47
174.00 53.05
175.00 53.48
176.00 50.43
177.00 47.54
178.00 45.38
179.00 43.79
180.00 42.61
181.00 41.74
182.00 41.14
183.00 40.75
184.00 40.56
185.00 40.57
186.00 40.75
187.00 41.14
188.00 41.74
189.00 42.58
190.00 43.74
191.00 45.32
192.00 47.51
193.00 50.80
194.00 56.66
195.00 76.43
196.00 56.00
197.00 50.01
198.00 46.49
199.00 44.01
200.00 42.13
201.00 40.63
202.00 39.41
203.00 38.41
204.00 37.57
205.00 36.88
206.00 36.31
207.00 35.84
208.00 35.47
209.00 35.17
210.00 34.94
211.00 34.77
212.00 34.65
213.00 34.57
214.00 34.52
215.00 34.48
216.00 34.45
217.00 34.41
218.00 34.36
219.00 34.27
220.00 34.14
221.00 33.96
222.00 33.74
223.00 33.48
224.00 33.18
225.00 32.85
226.00 32.51
227.00 32.15
228.00 31.79
229.00 31.43
230.00 31.08
231.00 30.74
232.00 30.42
233.00 30.11
234.00 29.82
235.00 29.54
236.00 29.28
237.00 29.03
238.00 28.79
239.00 28.57
240.00 28.35
241.00 28.13
242.00 27.91
243.00 27.70
244.00 27.48
245.00 27.26
246.00 27.04
247.00 26.80
248.00 26.56
249.00 26.31
250.00 26.05
251.00 25.79
252.00 25.51
253.00 25.23
254.00 24.94
255.00 24.64
256.00 24.34
257.00 24.03
258.00 23.72
259.00 23.40
260.00 23.08
261.00 22.76
262.00 22.44
263.00 22.12
264.00 21.80
265.00 21.48
266.00 21.16
267.00 20.84
268.00 20.52
269.00 20.20
270.00 19.88
271.00 19.57
272.00 19.25
273.00 18.94
274.00 18.63
275.00 18.32
276.00 18.02
277.00 17.71
278.00 17.41
279.00 17.11
280.00 16.82
281.00 16.53
282.00 16.24
283.00 15.96
284.00 15.67
285.00 15.39
286.00 15.12
287.00 14.85
288.00 14.58
289.00 14.31
290.00 14.05
291.00 13.79
292.00 13.53
293.00 13.27
294.00 13.02
295.00 12.77
296.00 12.52
297.00 12.26
298.00 12.01
299.00 11.76
300.00 11.51
301.00 11.26
302.00 11.01
303.00 10.75
304.00 10.50
305.00 10.24
306.00 9.98
307.00 9.72
308.00 9.45
309.00 9.19
310.00 8.92
311.00 8.65
312.00 8.38
313.00 8.11
314.00 7.84
315.00 7.57
316.00 7.30
317.00 7.03
318.00 6.76
319.00 6.49
320.00 6.22
321.00 5.96
322.00 5.70
323.00 5.44
324.00 5.18
325.00 4.93
326.00 4.69
327.00 4.45
328.00 4.21
329.00 3.98
330.00 3.76
331.00 3.54
332.00 3.33
333.00 3.12
334.00 2.92
335.00 2.73
336.00 2.54
337.00 2.37
338.00 2.20
339.00 2.03
340.00 1.88
341.00 1.73
342.00 1.58
343.00 1.45
344.00 1.32
345.00 1.20
346.00 1.09
347.00 0.98
348.00 0.88
349.00 0.78
350.00 0.69
351.00 0.61
352.00 0.53
353.00 0.46
354.00 0.39
355.00 0.33
356.00 0.28
357.00 0.23
358.00 0.18
359.00 0.14
VERTICAL 360
0.00 29.11
1.00 36.23
2.00 20.24
3.00 12.80
4.00 8.11
5.00 4.85
6.00 2.57
7.00 1.05
8.00 0.21
9.00 0.00
10.00 0.47
11.00 1.66
12.00 3.76
13.00 7.12
14.00 12.94
15.00 25.92
16.00 18.49
17.00 13.09
18.00 11.59
19.00 12.16
20.00 14.77
21.00 20.72
22.00 27.43
23.00 19.34
24.00 15.88
25.00 15.13
26.00 16.34
27.00 19.79
28.00 27.84
29.00 31.98
30.00 22.66
31.00 19.32
32.00 18.08
33.00 18.24
34.00 19.85
35.00 23.65
36.00 29.86
37.00 26.05
38.00 21.03
39.00 18.83
40.00 18.35
41.00 19.13
42.00 20.96
43.00 23.83
44.00 28.25
45.00 35.54
46.00 33.58
47.00 27.00
48.00 23.70
49.00 22.23
50.00 22.07
51.00 22.91
52.00 24.24
53.00 25.02
54.00 24.44
55.00 23.15
56.00 22.02
57.00 21.45
58.00 21.54
59.00 22.27
60.00 23.59
61.00 25.35
62.00 27.31
63.00 29.07
64.00 30.26
65.00 30.95
66.00 31.54
67.00 32.44
68.00 33.87
69.00 35.95
70.00 38.71
71.00 41.59
72.00 42.20
73.00 39.88
74.00 37.08
75.00 34.85
76.00 33.34
77.00 32.45
78.00 31.98
79.00 31.76
80.00 31.71
81.00 31.67
82.00 31.43
83.00 31.13
84.00 31.14
85.00 31.74
86.00 33.03
87.00 35.14
88.00 38.15
89.00 39.67
90.00 36.24
91.00 32.47
92.00 30.09
93.00 28.98
94.00 29.00
95.00 29.95
96.00 31.45
97.00 32.82
98.00 33.63
99.00 34.24
100.00 35.22
101.00 36.89
102.00 39.22
103.00 41.22
104.00 41.77
105.00 41.94
106.00 42.85
107.00 44.27
108.00 45.25
109.00 44.49
110.00 42.15
111.00 39.98
112.00 38.80
113.00 38.57
114.00 38.84
115.00 39.00
116.00 38.57
117.00 37.60
118.00 36.54
119.00 35.79
120.00 35.55
121.00 35.86
122.00 36.59
123.00 37.46
124.00 38.11
125.00 38.33
126.00 38.18
127.00 37.91
128.00 37.81
129.00 37.99
130.00 38.26
131.00 38.47
132.00 39.11
133.00 41.47
134.00 47.82
135.00 45.62
136.00 38.27
137.00 35.10
138.00 34.23
139.00 35.05
140.00 36.78
141.00 37.54
142.00 36.81
143.00 36.50
144.00 37.31
145.00 38.06
146.00 37.32
147.00 36.74
148.00 38.71
149.00 49.28
150.00 42.91
151.00 34.55
152.00 31.34
153.00 30.29
154.00 30.61
155.00 31.95
156.00 34.25
157.00 37.51
158.00 39.81
159.00 38.49
160.00 37.44
161.00 38.91
162.00 42.37
163.00 40.14
164.00 35.85
165.00 33.80
166.00 33.21
167.00 33.26
168.00 33.76
169.00 35.12
170.00 37.67
171.00 40.92
172.00 43.36
173.00 45.18
174.00 45.72
175.00 43.11
176.00 40.55
177.00 38.87
178.00 37.88
179.00 37.92
180.00 39.58
181.00 43.27
182.00 48.37
183.00 52.34
184.00 54.25
185.00 49.03
186.00 45.75
187.00 46.91
188.00 56.96
189.00 48.96
190.00 41.18
191.00 37.89
192.00 36.39
193.00 35.98
194.00 36.40
195.00 37.55
196.00 39.33
197.00 41.69
198.00 44.43
199.00 45.68
200.00 44.24
201.00 42.47
202.00 40.19
203.00 37.36
204.00 35.45
205.00 35.40
206.00 38.00
207.00 46.38
208.00 52.23
209.00 42.67
210.00 41.16
211.00 39.72
212.00 36.60
213.00 34.51
214.00 34.28
215.00 35.91
216.00 39.50
217.00 44.82
218.00 47.45
219.00 46.08
220.00 46.66
221.00 52.72
222.00 56.82
223.00 43.21
224.00 37.92
225.00 34.99
226.00 33.50
227.00 33.21
228.00 34.13
229.00 36.44
230.00 40.08
231.00 42.58
232.00 41.46
233.00 40.61
234.00 41.51
235.00 44.02
236.00 45.22
237.00 41.56
238.00 38.03
239.00 36.11
240.00 35.67
241.00 36.68
242.00 39.50
243.00 45.59
244.00 50.39
245.00 42.28
246.00 38.41
247.00 36.65
248.00 36.03
249.00 36.13
250.00 36.65
251.00 37.07
252.00 36.64
253.00 35.25
254.00 33.74
255.00 32.83
256.00 32.80
257.00 33.62
258.00 34.80
259.00 35.33
260.00 34.89
261.00 34.31
262.00 34.24
263.00 34.70
264.00 35.20
265.00 34.98
266.00 33.81
267.00 32.23
268.00 30.82
269.00 29.94
270.00 29.69
271.00 29.85
272.00 30.17
273.00 30.57
274.00 31.19
275.00 32.02
276.00 32.66
277.00 32.58
278.00 31.63
279.00 30.26
280.00 28.98
281.00 28.00
282.00 27.23
283.00 26.54
284.00 25.81
285.00 25.09
286.00 24.56
287.00 24.43
288.00 24.86
289.00 25.93
290.00 27.66
291.00 29.92
292.00 31.80
293.00 31.73
294.00 30.24
295.00 28.80
296.00 27.72
297.00 26.90
298.00 26.29
299.00 26.02
300.00 26.32
301.00 27.40
302.00 29.39
303.00 31.47
304.00 30.96
305.00 28.31
306.00 25.93
307.00 24.16
308.00 22.80
309.00 21.68
310.00 20.85
311.00 20.43
312.00 20.59
313.00 21.43
314.00 22.87
315.00 24.27
316.00 24.12
317.00 22.27
318.00 20.23
319.00 18.75
320.00 17.96
321.00 17.87
322.00 18.49
323.00 19.95
324.00 22.46
325.00 26.19
326.00 28.78
327.00 26.27
328.00 23.42
329.00 21.83
330.00 21.06
331.00 20.58
332.00 20.05
333.00 19.56
334.00 19.39
335.00 19.75
336.00 20.82
337.00 22.79
338.00 25.34
339.00 25.17
340.00 21.33
341.00 17.97
342.00 15.99
343.00 15.40
344.00 16.34
345.00 19.43
346.00 27.12
347.00 32.12
348.00 23.18
349.00 21.09
350.00 22.32
351.00 27.65
352.00 33.99
353.00 23.99
354.00 19.73
355.00 18.17
356.00 18.51
357.00 20.61
358.00 23.94
359.00 26.30
