NAME ATR4518R7_2350_X_CO_P45_07T_yyR
FREQUENCY 2350
GAIN 15.28 dBd
TILT	ELECTRICAL
COMMENT DATE 05.08.2013 +45 degrees polarized system Lever position 07T deg
HORIZONTAL 360
0.00 0.03
1.00 0.05
2.00 0.08
3.00 0.11
4.00 0.14
5.00 0.18
6.00 0.22
7.00 0.26
8.00 0.30
9.00 0.35
10.00 0.41
11.00 0.46
12.00 0.52
13.00 0.58
14.00 0.65
15.00 0.72
16.00 0.80
17.00 0.88
18.00 0.97
19.00 1.06
20.00 1.16
21.00 1.26
22.00 1.37
23.00 1.49
24.00 1.62
25.00 1.75
26.00 1.89
27.00 2.04
28.00 2.19
29.00 2.35
30.00 2.52
31.00 2.70
32.00 2.88
33.00 3.07
34.00 3.27
35.00 3.48
36.00 3.70
37.00 3.92
38.00 4.15
39.00 4.39
40.00 4.64
41.00 4.89
42.00 5.15
43.00 5.43
44.00 5.70
45.00 5.99
46.00 6.29
47.00 6.59
48.00 6.91
49.00 7.23
50.00 7.56
51.00 7.90
52.00 8.26
53.00 8.62
54.00 8.99
55.00 9.37
56.00 9.77
57.00 10.17
58.00 10.59
59.00 11.01
60.00 11.45
61.00 11.90
62.00 12.35
63.00 12.82
64.00 13.30
65.00 13.79
66.00 14.29
67.00 14.80
68.00 15.31
69.00 15.84
70.00 16.38
71.00 16.93
72.00 17.49
73.00 18.06
74.00 18.64
75.00 19.24
76.00 19.85
77.00 20.49
78.00 21.14
79.00 21.82
80.00 22.53
81.00 23.27
82.00 24.05
83.00 24.86
84.00 25.71
85.00 26.60
86.00 27.53
87.00 28.47
88.00 29.42
89.00 30.32
90.00 31.13
91.00 31.78
92.00 32.21
93.00 32.39
94.00 32.33
95.00 32.10
96.00 31.78
97.00 31.41
98.00 31.05
99.00 30.73
100.00 30.47
101.00 30.27
102.00 30.16
103.00 30.12
104.00 30.16
105.00 30.29
106.00 30.50
107.00 30.80
108.00 31.20
109.00 31.68
110.00 32.27
111.00 32.97
112.00 33.77
113.00 34.69
114.00 35.71
115.00 36.82
116.00 37.97
117.00 39.06
118.00 39.92
119.00 40.36
120.00 40.28
121.00 39.77
122.00 39.05
123.00 38.27
124.00 37.52
125.00 36.87
126.00 36.32
127.00 35.89
128.00 35.56
129.00 35.33
130.00 35.21
131.00 35.19
132.00 35.25
133.00 35.41
134.00 35.65
135.00 35.98
136.00 36.40
137.00 36.89
138.00 37.44
139.00 38.04
140.00 38.64
141.00 39.18
142.00 39.58
143.00 39.76
144.00 39.69
145.00 39.38
146.00 38.88
147.00 38.29
148.00 37.67
149.00 37.10
150.00 36.59
151.00 36.17
152.00 35.86
153.00 35.65
154.00 35.57
155.00 35.61
156.00 35.79
157.00 36.11
158.00 36.58
159.00 37.23
160.00 38.08
161.00 39.15
162.00 40.50
163.00 42.17
164.00 44.20
165.00 46.47
166.00 48.25
167.00 48.17
168.00 46.43
169.00 44.43
170.00 42.71
171.00 41.37
172.00 40.34
173.00 39.58
174.00 39.06
175.00 38.74
176.00 38.59
177.00 38.58
178.00 38.70
179.00 38.91
180.00 39.18
181.00 39.46
182.00 39.69
183.00 39.82
184.00 39.83
185.00 39.71
186.00 39.48
187.00 39.21
188.00 38.93
189.00 38.69
190.00 38.53
191.00 38.45
192.00 38.46
193.00 38.55
194.00 38.70
195.00 38.88
196.00 39.02
197.00 39.06
198.00 38.92
199.00 38.59
200.00 38.08
201.00 37.46
202.00 36.78
203.00 36.13
204.00 35.53
205.00 35.03
206.00 34.64
207.00 34.38
208.00 34.24
209.00 34.26
210.00 34.41
211.00 34.72
212.00 35.19
213.00 35.81
214.00 36.59
215.00 37.47
216.00 38.37
217.00 39.08
218.00 39.34
219.00 39.01
220.00 38.17
221.00 37.09
222.00 36.00
223.00 34.99
224.00 34.12
225.00 33.41
226.00 32.86
227.00 32.46
228.00 32.20
229.00 32.09
230.00 32.12
231.00 32.29
232.00 32.58
233.00 32.99
234.00 33.51
235.00 34.11
236.00 34.73
237.00 35.26
238.00 35.58
239.00 35.56
240.00 35.17
241.00 34.46
242.00 33.57
243.00 32.62
244.00 31.68
245.00 30.79
246.00 29.98
247.00 29.25
248.00 28.60
249.00 28.02
250.00 27.51
251.00 27.06
252.00 26.66
253.00 26.33
254.00 26.04
255.00 25.80
256.00 25.61
257.00 25.46
258.00 25.34
259.00 25.27
260.00 25.24
261.00 25.23
262.00 25.26
263.00 25.32
264.00 25.39
265.00 25.47
266.00 25.56
267.00 25.63
268.00 25.68
269.00 25.68
270.00 25.63
271.00 25.50
272.00 25.30
273.00 25.02
274.00 24.66
275.00 24.25
276.00 23.79
277.00 23.28
278.00 22.76
279.00 22.22
280.00 21.68
281.00 21.14
282.00 20.61
283.00 20.09
284.00 19.58
285.00 19.08
286.00 18.60
287.00 18.12
288.00 17.66
289.00 17.20
290.00 16.76
291.00 16.32
292.00 15.89
293.00 15.46
294.00 15.04
295.00 14.62
296.00 14.21
297.00 13.79
298.00 13.39
299.00 12.99
300.00 12.59
301.00 12.19
302.00 11.80
303.00 11.41
304.00 11.04
305.00 10.66
306.00 10.30
307.00 9.94
308.00 9.59
309.00 9.25
310.00 8.92
311.00 8.59
312.00 8.28
313.00 7.97
314.00 7.67
315.00 7.37
316.00 7.08
317.00 6.80
318.00 6.52
319.00 6.25
320.00 5.98
321.00 5.72
322.00 5.46
323.00 5.20
324.00 4.94
325.00 4.68
326.00 4.43
327.00 4.18
328.00 3.93
329.00 3.69
330.00 3.44
331.00 3.20
332.00 2.97
333.00 2.74
334.00 2.52
335.00 2.30
336.00 2.09
337.00 1.89
338.00 1.69
339.00 1.51
340.00 1.33
341.00 1.17
342.00 1.02
343.00 0.87
344.00 0.74
345.00 0.62
346.00 0.51
347.00 0.42
348.00 0.33
349.00 0.25
350.00 0.19
351.00 0.14
352.00 0.09
353.00 0.06
354.00 0.03
355.00 0.02
356.00 0.01
357.00 0.00
358.00 0.01
359.00 0.02
VERTICAL 360
0.00 23.53
1.00 21.22
2.00 13.79
3.00 7.99
4.00 4.15
5.00 1.70
6.00 0.36
7.00 0.00
8.00 0.65
9.00 2.48
10.00 6.03
11.00 13.20
12.00 28.54
13.00 14.01
14.00 11.26
15.00 12.02
16.00 15.57
17.00 19.88
18.00 17.45
19.00 15.08
20.00 15.27
21.00 17.68
22.00 21.45
23.00 22.01
24.00 19.45
25.00 18.06
26.00 18.53
27.00 21.63
28.00 30.88
29.00 27.52
30.00 20.77
31.00 18.90
32.00 19.28
33.00 21.07
34.00 24.20
35.00 30.02
36.00 44.22
37.00 36.20
38.00 33.31
39.00 34.45
40.00 33.24
41.00 30.02
42.00 28.26
43.00 28.12
44.00 29.90
45.00 35.05
46.00 38.53
47.00 30.67
48.00 26.61
49.00 24.60
50.00 23.93
51.00 24.47
52.00 26.31
53.00 29.98
54.00 36.44
55.00 33.95
56.00 28.11
57.00 25.49
58.00 24.72
59.00 25.18
60.00 26.53
61.00 28.52
62.00 30.85
63.00 33.07
64.00 34.77
65.00 35.94
66.00 36.59
67.00 36.64
68.00 36.32
69.00 36.02
70.00 35.86
71.00 35.53
72.00 34.65
73.00 33.23
74.00 31.70
75.00 30.58
76.00 30.00
77.00 29.51
78.00 28.79
79.00 28.13
80.00 27.97
81.00 28.58
82.00 29.89
83.00 30.88
84.00 29.87
85.00 27.54
86.00 25.75
87.00 25.35
88.00 26.41
89.00 28.25
90.00 29.45
91.00 29.09
92.00 28.14
93.00 28.15
94.00 29.38
95.00 30.51
96.00 30.18
97.00 29.06
98.00 28.28
99.00 28.94
100.00 31.91
101.00 37.37
102.00 39.31
103.00 36.14
104.00 34.79
105.00 36.31
106.00 42.40
107.00 56.42
108.00 48.59
109.00 48.74
110.00 50.16
111.00 52.18
112.00 44.77
113.00 39.79
114.00 38.18
115.00 38.44
116.00 39.46
117.00 39.99
118.00 40.19
119.00 40.81
120.00 40.44
121.00 39.39
122.00 38.57
123.00 37.45
124.00 37.59
125.00 40.28
126.00 40.95
127.00 38.11
128.00 38.00
129.00 40.03
130.00 41.15
131.00 41.95
132.00 43.63
133.00 42.75
134.00 40.73
135.00 38.51
136.00 36.08
137.00 34.65
138.00 34.39
139.00 34.77
140.00 35.64
141.00 37.75
142.00 42.88
143.00 56.90
144.00 46.71
145.00 42.97
146.00 44.45
147.00 51.03
148.00 53.19
149.00 49.95
150.00 46.95
151.00 40.62
152.00 37.12
153.00 36.39
154.00 38.11
155.00 42.77
156.00 51.75
157.00 49.04
158.00 42.80
159.00 39.64
160.00 39.27
161.00 40.29
162.00 36.91
163.00 33.42
164.00 32.72
165.00 34.67
166.00 39.57
167.00 48.99
168.00 42.40
169.00 37.29
170.00 36.38
171.00 37.57
172.00 38.44
173.00 38.58
174.00 39.81
175.00 41.75
176.00 42.26
177.00 42.18
178.00 43.74
179.00 45.63
180.00 43.17
181.00 40.40
182.00 39.85
183.00 41.79
184.00 45.89
185.00 49.14
186.00 46.25
187.00 41.60
188.00 40.03
189.00 39.36
190.00 36.92
191.00 36.18
192.00 38.34
193.00 38.06
194.00 35.59
195.00 36.03
196.00 38.33
197.00 40.68
198.00 45.93
199.00 48.53
200.00 47.11
201.00 52.88
202.00 41.19
203.00 38.46
204.00 41.31
205.00 47.21
206.00 45.21
207.00 44.20
208.00 44.53
209.00 49.41
210.00 49.73
211.00 40.88
212.00 39.28
213.00 42.04
214.00 51.68
215.00 50.40
216.00 41.59
217.00 38.29
218.00 37.07
219.00 36.42
220.00 35.31
221.00 34.02
222.00 33.44
223.00 33.96
224.00 34.89
225.00 35.11
226.00 35.11
227.00 35.71
228.00 36.74
229.00 37.53
230.00 37.73
231.00 37.87
232.00 38.20
233.00 38.41
234.00 38.30
235.00 38.04
236.00 37.75
237.00 36.48
238.00 34.20
239.00 32.49
240.00 31.73
241.00 31.42
242.00 31.09
243.00 30.79
244.00 31.02
245.00 32.19
246.00 34.06
247.00 35.27
248.00 34.98
249.00 34.06
250.00 33.53
251.00 33.69
252.00 33.95
253.00 33.81
254.00 33.58
255.00 33.22
256.00 33.02
257.00 33.62
258.00 34.86
259.00 35.51
260.00 34.69
261.00 33.53
262.00 33.63
263.00 35.61
264.00 38.72
265.00 39.23
266.00 35.18
267.00 31.21
268.00 29.37
269.00 29.83
270.00 32.70
271.00 38.68
272.00 48.73
273.00 41.59
274.00 36.77
275.00 34.54
276.00 33.08
277.00 32.53
278.00 33.81
279.00 37.16
280.00 39.35
281.00 37.51
282.00 35.33
283.00 33.04
284.00 30.89
285.00 29.19
286.00 27.79
287.00 26.34
288.00 24.65
289.00 22.80
290.00 20.94
291.00 19.20
292.00 17.64
293.00 16.27
294.00 15.08
295.00 14.07
296.00 13.30
297.00 12.76
298.00 12.51
299.00 12.60
300.00 13.05
301.00 13.90
302.00 15.23
303.00 17.26
304.00 20.45
305.00 25.80
306.00 30.10
307.00 24.62
308.00 21.41
309.00 20.24
310.00 20.30
311.00 21.46
312.00 23.94
313.00 26.94
314.00 26.56
315.00 24.39
316.00 23.93
317.00 25.92
318.00 32.35
319.00 35.95
320.00 25.62
321.00 21.33
322.00 19.58
323.00 19.81
324.00 22.33
325.00 29.26
326.00 34.24
327.00 24.00
328.00 20.17
329.00 18.98
330.00 19.97
331.00 23.16
332.00 24.72
333.00 20.68
334.00 17.49
335.00 15.79
336.00 15.14
337.00 15.37
338.00 16.39
339.00 17.83
340.00 19.19
341.00 20.80
342.00 23.79
343.00 27.19
344.00 24.80
345.00 21.79
346.00 20.97
347.00 22.31
348.00 26.31
349.00 30.51
350.00 25.64
351.00 22.11
352.00 20.95
353.00 21.35
354.00 22.64
355.00 24.19
356.00 26.58
357.00 33.72
358.00 33.40
359.00 25.12
