NAME ATR4518R7_2535_X_CO_P45_10T_yL
FREQUENCY 2535
GAIN 15.21 dBd
TILT	ELECTRICAL
COMMENT DATE 05.08.2013 +45 degrees polarized system Lever position 10T deg
HORIZONTAL 360
0.00 0.11
1.00 0.06
2.00 0.02
3.00 0.00
4.00 0.00
5.00 0.01
6.00 0.05
7.00 0.09
8.00 0.15
9.00 0.21
10.00 0.29
11.00 0.38
12.00 0.47
13.00 0.57
14.00 0.68
15.00 0.79
16.00 0.91
17.00 1.03
18.00 1.15
19.00 1.27
20.00 1.40
21.00 1.52
22.00 1.64
23.00 1.77
24.00 1.90
25.00 2.04
26.00 2.18
27.00 2.34
28.00 2.49
29.00 2.66
30.00 2.83
31.00 3.02
32.00 3.21
33.00 3.42
34.00 3.63
35.00 3.86
36.00 4.09
37.00 4.33
38.00 4.57
39.00 4.82
40.00 5.08
41.00 5.33
42.00 5.59
43.00 5.84
44.00 6.10
45.00 6.34
46.00 6.59
47.00 6.82
48.00 7.06
49.00 7.28
50.00 7.50
51.00 7.72
52.00 7.92
53.00 8.12
54.00 8.32
55.00 8.50
56.00 8.68
57.00 8.86
58.00 9.04
59.00 9.21
60.00 9.39
61.00 9.56
62.00 9.74
63.00 9.94
64.00 10.16
65.00 10.39
66.00 10.62
67.00 10.87
68.00 11.12
69.00 11.37
70.00 11.64
71.00 11.91
72.00 12.18
73.00 12.47
74.00 12.75
75.00 13.04
76.00 13.33
77.00 13.62
78.00 13.90
79.00 14.17
80.00 14.45
81.00 14.71
82.00 14.96
83.00 15.22
84.00 15.46
85.00 15.69
86.00 15.93
87.00 16.17
88.00 16.40
89.00 16.64
90.00 16.89
91.00 17.14
92.00 17.42
93.00 17.70
94.00 18.01
95.00 18.32
96.00 18.66
97.00 19.02
98.00 19.38
99.00 19.76
100.00 20.16
101.00 20.55
102.00 20.95
103.00 21.32
104.00 21.70
105.00 22.06
106.00 22.40
107.00 22.72
108.00 23.03
109.00 23.33
110.00 23.62
111.00 23.92
112.00 24.24
113.00 24.58
114.00 24.95
115.00 25.37
116.00 25.83
117.00 26.35
118.00 26.91
119.00 27.53
120.00 28.17
121.00 28.84
122.00 29.48
123.00 30.05
124.00 30.51
125.00 30.78
126.00 30.83
127.00 30.69
128.00 30.40
129.00 30.01
130.00 29.59
131.00 29.17
132.00 28.79
133.00 28.47
134.00 28.21
135.00 28.04
136.00 27.94
137.00 27.94
138.00 28.02
139.00 28.19
140.00 28.45
141.00 28.81
142.00 29.26
143.00 29.80
144.00 30.44
145.00 31.17
146.00 31.98
147.00 32.86
148.00 33.78
149.00 34.68
150.00 35.50
151.00 36.15
152.00 36.57
153.00 36.76
154.00 36.76
155.00 36.66
156.00 36.55
157.00 36.48
158.00 36.52
159.00 36.71
160.00 37.06
161.00 37.62
162.00 38.43
163.00 39.54
164.00 41.07
165.00 43.17
166.00 46.15
167.00 50.53
168.00 54.11
169.00 49.91
170.00 45.60
171.00 42.63
172.00 40.53
173.00 38.98
174.00 37.85
175.00 37.04
176.00 36.51
177.00 36.22
178.00 36.18
179.00 36.37
180.00 36.82
181.00 37.54
182.00 38.58
183.00 39.96
184.00 41.70
185.00 43.56
186.00 44.63
187.00 43.79
188.00 41.73
189.00 39.59
190.00 37.77
191.00 36.31
192.00 35.16
193.00 34.29
194.00 33.65
195.00 33.24
196.00 33.03
197.00 33.03
198.00 33.22
199.00 33.62
200.00 34.24
201.00 35.10
202.00 36.23
203.00 37.64
204.00 39.35
205.00 41.16
206.00 42.51
207.00 42.50
208.00 41.24
209.00 39.59
210.00 38.09
211.00 36.88
212.00 35.96
213.00 35.30
214.00 34.89
215.00 34.69
216.00 34.69
217.00 34.86
218.00 35.18
219.00 35.60
220.00 36.06
221.00 36.45
222.00 36.64
223.00 36.51
224.00 36.07
225.00 35.37
226.00 34.56
227.00 33.72
228.00 32.94
229.00 32.26
230.00 31.68
231.00 31.22
232.00 30.87
233.00 30.63
234.00 30.50
235.00 30.47
236.00 30.54
237.00 30.70
238.00 30.94
239.00 31.25
240.00 31.61
241.00 32.01
242.00 32.40
243.00 32.73
244.00 32.96
245.00 33.03
246.00 32.91
247.00 32.57
248.00 32.05
249.00 31.40
250.00 30.66
251.00 29.88
252.00 29.10
253.00 28.33
254.00 27.58
255.00 26.87
256.00 26.19
257.00 25.56
258.00 24.96
259.00 24.40
260.00 23.88
261.00 23.39
262.00 22.94
263.00 22.53
264.00 22.14
265.00 21.78
266.00 21.45
267.00 21.15
268.00 20.86
269.00 20.59
270.00 20.33
271.00 20.09
272.00 19.86
273.00 19.62
274.00 19.39
275.00 19.16
276.00 18.93
277.00 18.70
278.00 18.48
279.00 18.25
280.00 18.02
281.00 17.81
282.00 17.61
283.00 17.41
284.00 17.23
285.00 17.05
286.00 16.89
287.00 16.73
288.00 16.59
289.00 16.45
290.00 16.31
291.00 16.17
292.00 16.03
293.00 15.87
294.00 15.70
295.00 15.52
296.00 15.32
297.00 15.10
298.00 14.86
299.00 14.59
300.00 14.32
301.00 14.02
302.00 13.71
303.00 13.44
304.00 13.16
305.00 12.88
306.00 12.59
307.00 12.30
308.00 12.00
309.00 11.71
310.00 11.40
311.00 11.08
312.00 10.76
313.00 10.41
314.00 10.07
315.00 9.70
316.00 9.33
317.00 8.95
318.00 8.57
319.00 8.19
320.00 7.80
321.00 7.42
322.00 7.06
323.00 6.69
324.00 6.36
325.00 6.02
326.00 5.71
327.00 5.41
328.00 5.13
329.00 4.87
330.00 4.62
331.00 4.39
332.00 4.17
333.00 3.96
334.00 3.76
335.00 3.56
336.00 3.38
337.00 3.20
338.00 3.02
339.00 2.85
340.00 2.69
341.00 2.52
342.00 2.35
343.00 2.19
344.00 2.03
345.00 1.87
346.00 1.71
347.00 1.56
348.00 1.41
349.00 1.27
350.00 1.13
351.00 1.00
352.00 0.87
353.00 0.74
354.00 0.63
355.00 0.52
356.00 0.41
357.00 0.33
358.00 0.24
359.00 0.18
VERTICAL 360
0.00 19.99
1.00 21.17
2.00 22.45
3.00 19.22
4.00 15.17
5.00 10.71
6.00 6.64
7.00 3.43
8.00 1.26
9.00 0.15
10.00 0.12
11.00 1.22
12.00 3.69
13.00 8.33
14.00 19.35
15.00 18.64
16.00 12.16
17.00 11.44
18.00 13.75
19.00 19.25
20.00 24.07
21.00 18.94
22.00 16.90
23.00 18.15
24.00 23.64
25.00 42.61
26.00 26.23
27.00 24.13
28.00 26.38
29.00 36.42
30.00 30.59
31.00 23.16
32.00 21.23
33.00 22.89
34.00 29.68
35.00 28.71
36.00 21.07
37.00 17.08
38.00 14.66
39.00 13.46
40.00 13.41
41.00 14.42
42.00 16.34
43.00 19.04
44.00 22.57
45.00 27.44
46.00 35.28
47.00 36.35
48.00 30.39
49.00 27.95
50.00 27.31
51.00 27.37
52.00 27.26
53.00 26.95
54.00 27.28
55.00 29.15
56.00 32.57
57.00 34.87
58.00 35.15
59.00 33.64
60.00 30.61
61.00 28.78
62.00 28.44
63.00 29.11
64.00 29.89
65.00 29.95
66.00 30.26
67.00 31.61
68.00 33.13
69.00 32.97
70.00 31.44
71.00 30.78
72.00 32.01
73.00 34.58
74.00 36.64
75.00 35.88
76.00 33.45
77.00 32.53
78.00 33.09
79.00 33.65
80.00 34.37
81.00 35.67
82.00 37.18
83.00 40.86
84.00 48.96
85.00 43.02
86.00 39.02
87.00 36.82
88.00 35.61
89.00 35.12
90.00 34.49
91.00 33.49
92.00 33.34
93.00 35.52
94.00 41.36
95.00 49.37
96.00 50.04
97.00 45.19
98.00 43.35
99.00 50.14
100.00 52.38
101.00 46.97
102.00 44.21
103.00 39.65
104.00 39.93
105.00 41.87
106.00 38.64
107.00 37.49
108.00 36.27
109.00 34.27
110.00 34.63
111.00 36.90
112.00 37.22
113.00 36.39
114.00 35.90
115.00 35.05
116.00 33.75
117.00 32.47
118.00 32.14
119.00 33.00
120.00 34.72
121.00 37.22
122.00 40.60
123.00 43.67
124.00 44.15
125.00 40.67
126.00 36.21
127.00 34.03
128.00 34.55
129.00 34.63
130.00 31.63
131.00 30.36
132.00 31.94
133.00 35.65
134.00 38.59
135.00 39.12
136.00 38.44
137.00 39.26
138.00 43.22
139.00 43.04
140.00 40.47
141.00 40.35
142.00 40.26
143.00 39.13
144.00 38.61
145.00 40.30
146.00 41.13
147.00 37.23
148.00 35.38
149.00 35.99
150.00 37.39
151.00 37.41
152.00 36.35
153.00 35.85
154.00 36.84
155.00 38.14
156.00 37.18
157.00 36.36
158.00 37.00
159.00 38.16
160.00 40.09
161.00 45.35
162.00 44.23
163.00 38.64
164.00 36.45
165.00 36.26
166.00 38.73
167.00 49.09
168.00 44.27
169.00 39.42
170.00 40.25
171.00 43.20
172.00 47.54
173.00 47.86
174.00 39.21
175.00 35.96
176.00 34.84
177.00 33.82
178.00 33.70
179.00 35.72
180.00 40.01
181.00 48.51
182.00 47.78
183.00 39.69
184.00 37.63
185.00 36.91
186.00 35.20
187.00 33.88
188.00 33.04
189.00 31.88
190.00 31.22
191.00 31.92
192.00 33.92
193.00 36.60
194.00 40.17
195.00 43.21
196.00 39.14
197.00 36.63
198.00 36.56
199.00 37.33
200.00 37.88
201.00 37.75
202.00 36.02
203.00 33.89
204.00 32.83
205.00 32.98
206.00 33.54
207.00 34.42
208.00 37.22
209.00 39.48
210.00 35.57
211.00 33.28
212.00 32.25
213.00 31.87
214.00 33.47
215.00 37.79
216.00 37.67
217.00 35.07
218.00 35.05
219.00 35.60
220.00 35.14
221.00 34.59
222.00 34.27
223.00 34.05
224.00 33.62
225.00 32.90
226.00 32.70
227.00 33.69
228.00 35.02
229.00 34.87
230.00 34.00
231.00 33.63
232.00 33.90
233.00 34.08
234.00 33.47
235.00 33.16
236.00 34.26
237.00 36.32
238.00 37.22
239.00 37.36
240.00 38.46
241.00 39.18
242.00 39.13
243.00 41.00
244.00 44.88
245.00 44.22
246.00 43.33
247.00 43.93
248.00 41.91
249.00 38.08
250.00 35.33
251.00 34.44
252.00 35.01
253.00 35.60
254.00 35.45
255.00 35.75
256.00 37.26
257.00 39.54
258.00 40.73
259.00 41.01
260.00 42.64
261.00 46.13
262.00 47.90
263.00 45.30
264.00 44.27
265.00 45.61
266.00 47.43
267.00 46.31
268.00 42.80
269.00 39.21
270.00 36.23
271.00 34.69
272.00 35.50
273.00 39.55
274.00 43.70
275.00 40.15
276.00 37.64
277.00 36.35
278.00 36.48
279.00 37.28
280.00 36.51
281.00 34.97
282.00 33.69
283.00 32.80
284.00 32.29
285.00 31.84
286.00 31.55
287.00 32.06
288.00 33.69
289.00 35.32
290.00 34.77
291.00 33.82
292.00 33.92
293.00 34.38
294.00 33.92
295.00 32.51
296.00 31.11
297.00 30.04
298.00 28.77
299.00 26.77
300.00 24.35
301.00 21.99
302.00 19.90
303.00 18.08
304.00 16.36
305.00 14.72
306.00 13.23
307.00 12.00
308.00 11.16
309.00 10.75
310.00 10.82
311.00 11.46
312.00 12.79
313.00 15.06
314.00 18.82
315.00 25.44
316.00 24.02
317.00 18.20
318.00 16.20
319.00 16.53
320.00 19.13
321.00 25.58
322.00 39.56
323.00 24.63
324.00 20.98
325.00 20.10
326.00 21.24
327.00 25.36
328.00 43.58
329.00 27.12
330.00 22.20
331.00 21.92
332.00 26.52
333.00 36.19
334.00 21.44
335.00 17.24
336.00 16.61
337.00 19.60
338.00 32.57
339.00 21.21
340.00 15.24
341.00 13.21
342.00 13.29
343.00 15.20
344.00 19.37
345.00 27.58
346.00 31.54
347.00 27.23
348.00 27.05
349.00 26.01
350.00 22.44
351.00 19.93
352.00 19.39
353.00 21.05
354.00 25.73
355.00 34.98
356.00 29.81
357.00 24.86
358.00 21.92
359.00 20.27
