NAME ATR4518R7_2350_X_CO_P45_01T_yyR
FREQUENCY 2350
GAIN 15.65 dBd
TILT	ELECTRICAL
COMMENT DATE 05.08.2013 +45 degrees polarized system Lever position 01T deg
HORIZONTAL 360
0.00 0.01
1.00 0.00
2.00 0.00
3.00 0.01
4.00 0.02
5.00 0.04
6.00 0.07
7.00 0.10
8.00 0.14
9.00 0.18
10.00 0.23
11.00 0.29
12.00 0.35
13.00 0.42
14.00 0.50
15.00 0.57
16.00 0.66
17.00 0.74
18.00 0.84
19.00 0.93
20.00 1.03
21.00 1.14
22.00 1.25
23.00 1.37
24.00 1.49
25.00 1.62
26.00 1.76
27.00 1.90
28.00 2.05
29.00 2.21
30.00 2.38
31.00 2.56
32.00 2.74
33.00 2.94
34.00 3.14
35.00 3.36
36.00 3.59
37.00 3.82
38.00 4.07
39.00 4.33
40.00 4.60
41.00 4.88
42.00 5.18
43.00 5.48
44.00 5.79
45.00 6.11
46.00 6.44
47.00 6.78
48.00 7.13
49.00 7.48
50.00 7.84
51.00 8.21
52.00 8.58
53.00 8.95
54.00 9.33
55.00 9.72
56.00 10.10
57.00 10.49
58.00 10.88
59.00 11.27
60.00 11.67
61.00 12.07
62.00 12.47
63.00 12.88
64.00 13.28
65.00 13.70
66.00 14.12
67.00 14.55
68.00 14.99
69.00 15.44
70.00 15.90
71.00 16.36
72.00 16.84
73.00 17.33
74.00 17.83
75.00 18.34
76.00 18.86
77.00 19.39
78.00 19.92
79.00 20.47
80.00 21.02
81.00 21.56
82.00 22.11
83.00 22.65
84.00 23.18
85.00 23.70
86.00 24.20
87.00 24.69
88.00 25.17
89.00 25.63
90.00 26.08
91.00 26.53
92.00 26.96
93.00 27.41
94.00 27.85
95.00 28.31
96.00 28.79
97.00 29.28
98.00 29.80
99.00 30.35
100.00 30.93
101.00 31.54
102.00 32.18
103.00 32.84
104.00 33.52
105.00 34.22
106.00 34.92
107.00 35.61
108.00 36.28
109.00 36.92
110.00 37.52
111.00 38.08
112.00 38.59
113.00 39.08
114.00 39.57
115.00 40.06
116.00 40.59
117.00 41.17
118.00 41.84
119.00 42.61
120.00 43.50
121.00 44.52
122.00 45.68
123.00 46.92
124.00 48.11
125.00 48.99
126.00 49.17
127.00 48.60
128.00 47.54
129.00 46.33
130.00 45.18
131.00 44.15
132.00 43.29
133.00 42.59
134.00 42.03
135.00 41.62
136.00 41.36
137.00 41.22
138.00 41.22
139.00 41.35
140.00 41.62
141.00 42.04
142.00 42.61
143.00 43.36
144.00 44.30
145.00 45.44
146.00 46.77
147.00 48.18
148.00 49.35
149.00 49.70
150.00 48.94
151.00 47.47
152.00 45.84
153.00 44.32
154.00 42.99
155.00 41.85
156.00 40.89
157.00 40.09
158.00 39.43
159.00 38.89
160.00 38.46
161.00 38.14
162.00 37.91
163.00 37.76
164.00 37.69
165.00 37.69
166.00 37.74
167.00 37.85
168.00 38.00
169.00 38.17
170.00 38.36
171.00 38.55
172.00 38.73
173.00 38.88
174.00 38.99
175.00 39.06
176.00 39.09
177.00 39.08
178.00 39.05
179.00 38.99
180.00 38.92
181.00 38.83
182.00 38.74
183.00 38.63
184.00 38.50
185.00 38.35
186.00 38.15
187.00 37.91
188.00 37.62
189.00 37.28
190.00 36.90
191.00 36.49
192.00 36.07
193.00 35.65
194.00 35.25
195.00 34.88
196.00 34.55
197.00 34.27
198.00 34.05
199.00 33.90
200.00 33.82
201.00 33.81
202.00 33.89
203.00 34.07
204.00 34.34
205.00 34.72
206.00 35.22
207.00 35.85
208.00 36.65
209.00 37.62
210.00 38.82
211.00 40.31
212.00 42.21
213.00 44.70
214.00 48.25
215.00 54.20
216.00 68.12
217.00 54.79
218.00 49.15
219.00 45.97
220.00 43.88
221.00 42.41
222.00 41.35
223.00 40.60
224.00 40.10
225.00 39.80
226.00 39.65
227.00 39.63
228.00 39.70
229.00 39.78
230.00 39.82
231.00 39.73
232.00 39.44
233.00 38.93
234.00 38.21
235.00 37.37
236.00 36.45
237.00 35.53
238.00 34.65
239.00 33.83
240.00 33.07
241.00 32.40
242.00 31.79
243.00 31.27
244.00 30.82
245.00 30.43
246.00 30.12
247.00 29.87
248.00 29.68
249.00 29.55
250.00 29.47
251.00 29.44
252.00 29.47
253.00 29.53
254.00 29.64
255.00 29.79
256.00 29.97
257.00 30.17
258.00 30.39
259.00 30.62
260.00 30.85
261.00 31.07
262.00 31.27
263.00 31.41
264.00 31.51
265.00 31.53
266.00 31.47
267.00 31.33
268.00 31.09
269.00 30.78
270.00 30.39
271.00 29.94
272.00 29.44
273.00 28.91
274.00 28.35
275.00 27.77
276.00 27.18
277.00 26.59
278.00 25.99
279.00 25.40
280.00 24.81
281.00 24.22
282.00 23.64
283.00 23.07
284.00 22.49
285.00 21.93
286.00 21.37
287.00 20.81
288.00 20.26
289.00 19.71
290.00 19.16
291.00 18.61
292.00 18.07
293.00 17.53
294.00 16.99
295.00 16.46
296.00 15.93
297.00 15.40
298.00 14.87
299.00 14.35
300.00 13.83
301.00 13.32
302.00 12.81
303.00 12.31
304.00 11.82
305.00 11.34
306.00 10.87
307.00 10.41
308.00 9.96
309.00 9.52
310.00 9.08
311.00 8.67
312.00 8.26
313.00 7.87
314.00 7.49
315.00 7.13
316.00 6.77
317.00 6.43
318.00 6.11
319.00 5.79
320.00 5.49
321.00 5.20
322.00 4.92
323.00 4.66
324.00 4.41
325.00 4.16
326.00 3.93
327.00 3.71
328.00 3.50
329.00 3.30
330.00 3.11
331.00 2.92
332.00 2.74
333.00 2.57
334.00 2.41
335.00 2.26
336.00 2.11
337.00 1.96
338.00 1.82
339.00 1.69
340.00 1.56
341.00 1.43
342.00 1.31
343.00 1.19
344.00 1.08
345.00 0.97
346.00 0.87
347.00 0.77
348.00 0.68
349.00 0.59
350.00 0.50
351.00 0.43
352.00 0.35
353.00 0.29
354.00 0.23
355.00 0.17
356.00 0.13
357.00 0.09
358.00 0.06
359.00 0.03
VERTICAL 360
0.00 0.48
1.00 0.00
2.00 0.51
3.00 2.13
4.00 5.29
5.00 11.27
6.00 21.29
7.00 15.39
8.00 12.18
9.00 12.94
10.00 17.43
11.00 25.59
12.00 18.33
13.00 14.05
14.00 13.43
15.00 15.61
16.00 21.25
17.00 24.71
18.00 20.14
19.00 18.18
20.00 18.58
21.00 21.52
22.00 29.02
23.00 23.82
24.00 17.71
25.00 15.60
26.00 15.61
27.00 16.62
28.00 17.25
29.00 16.66
30.00 15.42
31.00 14.41
32.00 14.01
33.00 14.17
34.00 14.79
35.00 16.02
36.00 18.31
37.00 22.64
38.00 32.28
39.00 33.62
40.00 25.53
41.00 22.47
42.00 21.46
43.00 22.48
44.00 26.77
45.00 45.80
46.00 30.00
47.00 24.26
48.00 22.27
49.00 21.74
50.00 22.19
51.00 23.66
52.00 26.43
53.00 30.97
54.00 38.68
55.00 42.45
56.00 35.65
57.00 32.71
58.00 32.95
59.00 36.94
60.00 48.32
61.00 39.05
62.00 32.94
63.00 29.94
64.00 28.13
65.00 27.00
66.00 26.42
67.00 26.31
68.00 26.70
69.00 27.65
70.00 29.02
71.00 30.23
72.00 30.88
73.00 31.33
74.00 32.04
75.00 32.51
76.00 31.70
77.00 29.90
78.00 28.18
79.00 27.26
80.00 27.39
81.00 28.29
82.00 28.95
83.00 28.34
84.00 27.33
85.00 27.48
86.00 29.53
87.00 33.20
88.00 35.38
89.00 33.73
90.00 30.89
91.00 29.16
92.00 29.67
93.00 33.29
94.00 43.45
95.00 50.02
96.00 42.22
97.00 41.65
98.00 43.17
99.00 44.10
100.00 38.20
101.00 34.95
102.00 34.86
103.00 36.61
104.00 39.68
105.00 43.20
106.00 40.15
107.00 37.79
108.00 39.25
109.00 43.72
110.00 47.36
111.00 45.55
112.00 43.16
113.00 44.49
114.00 52.53
115.00 60.24
116.00 56.69
117.00 47.18
118.00 42.15
119.00 41.20
120.00 42.09
121.00 42.52
122.00 41.70
123.00 40.91
124.00 40.76
125.00 39.43
126.00 37.16
127.00 36.47
128.00 38.34
129.00 41.92
130.00 41.56
131.00 40.14
132.00 41.45
133.00 43.67
134.00 43.39
135.00 42.32
136.00 41.19
137.00 40.06
138.00 39.61
139.00 39.83
140.00 40.55
141.00 41.93
142.00 43.13
143.00 42.39
144.00 42.12
145.00 45.01
146.00 53.16
147.00 53.86
148.00 44.70
149.00 41.43
150.00 43.39
151.00 42.17
152.00 36.29
153.00 34.84
154.00 37.27
155.00 39.97
156.00 38.58
157.00 38.26
158.00 38.93
159.00 39.17
160.00 38.64
161.00 37.73
162.00 38.68
163.00 42.44
164.00 43.75
165.00 42.24
166.00 43.28
167.00 46.25
168.00 50.23
169.00 48.82
170.00 41.85
171.00 37.36
172.00 35.28
173.00 35.01
174.00 36.26
175.00 37.73
176.00 36.85
177.00 35.50
178.00 36.11
179.00 38.74
180.00 39.70
181.00 36.84
182.00 35.34
183.00 35.87
184.00 37.90
185.00 39.62
186.00 41.28
187.00 46.50
188.00 44.64
189.00 41.90
190.00 46.03
191.00 59.19
192.00 53.64
193.00 59.10
194.00 49.11
195.00 49.94
196.00 52.20
197.00 40.76
198.00 37.34
199.00 36.65
200.00 35.83
201.00 34.76
202.00 35.31
203.00 38.47
204.00 43.14
205.00 43.97
206.00 44.82
207.00 48.61
208.00 47.11
209.00 41.61
210.00 38.88
211.00 39.12
212.00 41.32
213.00 41.71
214.00 39.90
215.00 37.82
216.00 36.38
217.00 36.82
218.00 39.51
219.00 41.60
220.00 40.04
221.00 38.58
222.00 38.13
223.00 38.25
224.00 38.91
225.00 40.38
226.00 41.97
227.00 39.94
228.00 36.29
229.00 34.49
230.00 35.05
231.00 38.28
232.00 45.61
233.00 54.87
234.00 43.69
235.00 38.83
236.00 37.37
237.00 38.58
238.00 42.72
239.00 48.30
240.00 44.01
241.00 39.41
242.00 37.32
243.00 37.54
244.00 41.02
245.00 46.21
246.00 40.37
247.00 36.45
248.00 35.37
249.00 35.72
250.00 36.43
251.00 36.51
252.00 35.40
253.00 33.20
254.00 30.71
255.00 28.72
256.00 27.46
257.00 26.76
258.00 26.26
259.00 25.67
260.00 24.97
261.00 24.39
262.00 24.13
263.00 24.23
264.00 24.55
265.00 24.89
266.00 25.13
267.00 25.35
268.00 25.73
269.00 26.57
270.00 28.14
271.00 30.58
272.00 33.46
273.00 35.29
274.00 34.99
275.00 33.09
276.00 30.37
277.00 27.61
278.00 25.30
279.00 23.70
280.00 22.97
281.00 23.06
282.00 23.65
283.00 24.24
284.00 24.58
285.00 24.94
286.00 25.75
287.00 27.02
288.00 27.79
289.00 27.23
290.00 26.34
291.00 26.32
292.00 27.77
293.00 31.83
294.00 49.00
295.00 36.13
296.00 29.02
297.00 26.28
298.00 25.33
299.00 25.47
300.00 26.42
301.00 28.24
302.00 31.02
303.00 33.07
304.00 31.80
305.00 30.12
306.00 29.86
307.00 30.55
308.00 29.88
309.00 27.75
310.00 27.14
311.00 30.07
312.00 36.37
313.00 28.89
314.00 23.82
315.00 22.00
316.00 22.22
317.00 24.43
318.00 30.01
319.00 40.73
320.00 30.42
321.00 25.58
322.00 23.77
323.00 23.51
324.00 24.56
325.00 26.43
326.00 27.12
327.00 26.27
328.00 25.94
329.00 26.77
330.00 28.02
331.00 27.26
332.00 24.07
333.00 20.93
334.00 19.15
335.00 19.36
336.00 22.59
337.00 35.25
338.00 30.84
339.00 23.99
340.00 23.24
341.00 25.59
342.00 32.39
343.00 36.29
344.00 27.68
345.00 24.69
346.00 24.84
347.00 28.33
348.00 35.95
349.00 31.74
350.00 28.60
351.00 29.39
352.00 27.76
353.00 23.97
354.00 23.49
355.00 25.90
356.00 17.02
357.00 9.40
358.00 4.81
359.00 2.00
