NAME ATR4518R7_0880_X_CO_P45_03T
FREQUENCY 0880
GAIN 14.65 dBd
TILT	ELECTRICAL
COMMENT DATE 05.08.2013 +45 degrees polarized system Lever position 03T deg
HORIZONTAL 360
0.00 0.01
1.00 0.00
2.00 0.01
3.00 0.01
4.00 0.02
5.00 0.04
6.00 0.06
7.00 0.09
8.00 0.13
9.00 0.17
10.00 0.22
11.00 0.28
12.00 0.34
13.00 0.41
14.00 0.48
15.00 0.56
16.00 0.65
17.00 0.75
18.00 0.85
19.00 0.95
20.00 1.07
21.00 1.19
22.00 1.31
23.00 1.45
24.00 1.59
25.00 1.73
26.00 1.88
27.00 2.04
28.00 2.21
29.00 2.38
30.00 2.55
31.00 2.74
32.00 2.93
33.00 3.13
34.00 3.33
35.00 3.54
36.00 3.75
37.00 3.97
38.00 4.20
39.00 4.43
40.00 4.67
41.00 4.92
42.00 5.17
43.00 5.43
44.00 5.69
45.00 5.96
46.00 6.23
47.00 6.51
48.00 6.80
49.00 7.09
50.00 7.38
51.00 7.69
52.00 7.99
53.00 8.31
54.00 8.62
55.00 8.95
56.00 9.28
57.00 9.61
58.00 9.95
59.00 10.29
60.00 10.64
61.00 10.99
62.00 11.35
63.00 11.71
64.00 12.08
65.00 12.45
66.00 12.83
67.00 13.21
68.00 13.60
69.00 14.00
70.00 14.39
71.00 14.80
72.00 15.21
73.00 15.62
74.00 16.04
75.00 16.47
76.00 16.90
77.00 17.33
78.00 17.77
79.00 18.22
80.00 18.67
81.00 19.13
82.00 19.59
83.00 20.06
84.00 20.52
85.00 20.99
86.00 21.46
87.00 21.93
88.00 22.40
89.00 22.86
90.00 23.32
91.00 23.76
92.00 24.20
93.00 24.61
94.00 25.01
95.00 25.38
96.00 25.72
97.00 26.03
98.00 26.31
99.00 26.55
100.00 26.76
101.00 26.93
102.00 27.07
103.00 27.18
104.00 27.25
105.00 27.31
106.00 27.33
107.00 27.35
108.00 27.35
109.00 27.34
110.00 27.32
111.00 27.30
112.00 27.28
113.00 27.27
114.00 27.25
115.00 27.25
116.00 27.25
117.00 27.25
118.00 27.27
119.00 27.29
120.00 27.33
121.00 27.38
122.00 27.44
123.00 27.52
124.00 27.61
125.00 27.71
126.00 27.82
127.00 27.95
128.00 28.10
129.00 28.26
130.00 28.44
131.00 28.63
132.00 28.84
133.00 29.07
134.00 29.32
135.00 29.59
136.00 29.88
137.00 30.19
138.00 30.53
139.00 30.89
140.00 31.27
141.00 31.69
142.00 32.14
143.00 32.62
144.00 33.14
145.00 33.71
146.00 34.31
147.00 34.97
148.00 35.69
149.00 36.46
150.00 37.32
151.00 38.24
152.00 39.25
153.00 40.35
154.00 41.53
155.00 42.75
156.00 43.93
157.00 44.89
158.00 45.39
159.00 45.26
160.00 44.57
161.00 43.57
162.00 42.45
163.00 41.35
164.00 40.32
165.00 39.37
166.00 38.52
167.00 37.74
168.00 37.04
169.00 36.41
170.00 35.83
171.00 35.32
172.00 34.85
173.00 34.42
174.00 34.04
175.00 33.70
176.00 33.39
177.00 33.11
178.00 32.86
179.00 32.64
180.00 32.45
181.00 32.28
182.00 32.14
183.00 32.02
184.00 31.92
185.00 31.84
186.00 31.78
187.00 31.74
188.00 31.72
189.00 31.72
190.00 31.73
191.00 31.77
192.00 31.82
193.00 31.88
194.00 31.96
195.00 32.05
196.00 32.16
197.00 32.27
198.00 32.41
199.00 32.55
200.00 32.70
201.00 32.86
202.00 33.03
203.00 33.21
204.00 33.39
205.00 33.58
206.00 33.77
207.00 33.96
208.00 34.15
209.00 34.34
210.00 34.52
211.00 34.69
212.00 34.86
213.00 35.01
214.00 35.15
215.00 35.28
216.00 35.39
217.00 35.49
218.00 35.56
219.00 35.62
220.00 35.65
221.00 35.67
222.00 35.66
223.00 35.64
224.00 35.60
225.00 35.54
226.00 35.46
227.00 35.36
228.00 35.25
229.00 35.12
230.00 34.98
231.00 34.82
232.00 34.65
233.00 34.47
234.00 34.28
235.00 34.08
236.00 33.87
237.00 33.65
238.00 33.42
239.00 33.18
240.00 32.94
241.00 32.69
242.00 32.44
243.00 32.17
244.00 31.90
245.00 31.63
246.00 31.34
247.00 31.05
248.00 30.75
249.00 30.45
250.00 30.13
251.00 29.80
252.00 29.47
253.00 29.13
254.00 28.77
255.00 28.41
256.00 28.04
257.00 27.65
258.00 27.26
259.00 26.86
260.00 26.45
261.00 26.04
262.00 25.61
263.00 25.18
264.00 24.75
265.00 24.31
266.00 23.87
267.00 23.43
268.00 22.99
269.00 22.54
270.00 22.10
271.00 21.66
272.00 21.22
273.00 20.78
274.00 20.35
275.00 19.91
276.00 19.49
277.00 19.06
278.00 18.64
279.00 18.23
280.00 17.82
281.00 17.42
282.00 17.02
283.00 16.62
284.00 16.23
285.00 15.85
286.00 15.47
287.00 15.10
288.00 14.73
289.00 14.36
290.00 14.00
291.00 13.65
292.00 13.30
293.00 12.95
294.00 12.61
295.00 12.27
296.00 11.94
297.00 11.61
298.00 11.29
299.00 10.97
300.00 10.65
301.00 10.34
302.00 10.03
303.00 9.73
304.00 9.43
305.00 9.13
306.00 8.84
307.00 8.55
308.00 8.26
309.00 7.98
310.00 7.70
311.00 7.43
312.00 7.16
313.00 6.89
314.00 6.63
315.00 6.37
316.00 6.12
317.00 5.87
318.00 5.62
319.00 5.38
320.00 5.15
321.00 4.92
322.00 4.69
323.00 4.47
324.00 4.25
325.00 4.03
326.00 3.82
327.00 3.62
328.00 3.42
329.00 3.23
330.00 3.04
331.00 2.86
332.00 2.68
333.00 2.51
334.00 2.34
335.00 2.18
336.00 2.02
337.00 1.87
338.00 1.72
339.00 1.58
340.00 1.45
341.00 1.32
342.00 1.20
343.00 1.08
344.00 0.97
345.00 0.87
346.00 0.77
347.00 0.67
348.00 0.59
349.00 0.50
350.00 0.43
351.00 0.36
352.00 0.30
353.00 0.24
354.00 0.19
355.00 0.14
356.00 0.11
357.00 0.07
358.00 0.05
359.00 0.03
VERTICAL 360
0.00 1.44
1.00 0.60
2.00 0.12
3.00 0.00
4.00 0.25
5.00 0.88
6.00 1.92
7.00 3.42
8.00 5.46
9.00 8.16
10.00 11.79
11.00 16.99
12.00 25.59
13.00 29.26
14.00 23.83
15.00 22.73
16.00 24.33
17.00 28.75
18.00 31.84
19.00 26.17
20.00 22.39
21.00 20.33
22.00 19.38
23.00 19.34
24.00 20.23
25.00 22.26
26.00 25.83
27.00 30.77
28.00 30.91
29.00 27.87
30.00 26.49
31.00 26.60
32.00 27.96
33.00 31.11
34.00 37.24
35.00 31.31
36.00 24.40
37.00 20.17
38.00 17.43
39.00 15.68
40.00 14.68
41.00 14.22
42.00 14.17
43.00 14.40
44.00 14.88
45.00 15.65
46.00 16.77
47.00 18.29
48.00 20.23
49.00 22.47
50.00 24.85
51.00 27.30
52.00 29.91
53.00 32.91
54.00 36.62
55.00 40.54
56.00 40.33
57.00 37.26
58.00 34.58
59.00 32.61
60.00 31.62
61.00 31.80
62.00 33.05
63.00 35.26
64.00 39.11
65.00 44.50
66.00 37.82
67.00 32.89
68.00 30.74
69.00 30.40
70.00 31.37
71.00 33.16
72.00 34.62
73.00 34.41
74.00 33.29
75.00 32.50
76.00 32.26
77.00 32.15
78.00 31.34
79.00 29.52
80.00 27.67
81.00 26.64
82.00 26.74
83.00 27.91
84.00 29.64
85.00 30.39
86.00 29.29
87.00 27.45
88.00 25.97
89.00 25.35
90.00 25.65
91.00 26.59
92.00 27.59
93.00 28.25
94.00 28.48
95.00 28.44
96.00 28.47
97.00 28.89
98.00 29.73
99.00 30.78
100.00 31.66
101.00 31.92
102.00 31.51
103.00 31.02
104.00 31.02
105.00 31.73
106.00 32.99
107.00 34.13
108.00 34.11
109.00 33.09
110.00 32.17
111.00 31.96
112.00 32.67
113.00 34.39
114.00 36.76
115.00 37.72
116.00 36.45
117.00 35.27
118.00 34.92
119.00 35.21
120.00 36.14
121.00 37.89
122.00 39.91
123.00 40.56
124.00 40.42
125.00 40.80
126.00 40.62
127.00 39.24
128.00 38.29
129.00 38.54
130.00 39.78
131.00 41.26
132.00 41.98
133.00 41.98
134.00 42.47
135.00 44.65
136.00 47.63
137.00 43.69
138.00 39.07
139.00 36.22
140.00 34.55
141.00 33.64
142.00 33.30
143.00 33.37
144.00 33.72
145.00 34.21
146.00 34.85
147.00 35.79
148.00 37.22
149.00 39.13
150.00 40.89
151.00 41.38
152.00 40.50
153.00 38.89
154.00 37.16
155.00 35.92
156.00 35.50
157.00 35.90
158.00 36.87
159.00 38.09
160.00 39.24
161.00 39.80
162.00 39.48
163.00 39.04
164.00 39.23
165.00 40.06
166.00 41.27
167.00 43.18
168.00 45.97
169.00 44.65
170.00 40.33
171.00 37.58
172.00 36.24
173.00 35.64
174.00 35.12
175.00 34.27
176.00 33.17
177.00 32.21
178.00 31.74
179.00 31.75
180.00 32.12
181.00 32.69
182.00 33.32
183.00 34.05
184.00 35.05
185.00 36.47
186.00 38.17
187.00 39.40
188.00 39.55
189.00 38.89
190.00 37.80
191.00 36.37
192.00 34.80
193.00 33.39
194.00 32.37
195.00 31.85
196.00 31.84
197.00 32.28
198.00 33.15
199.00 34.52
200.00 36.56
201.00 39.58
202.00 44.13
203.00 46.52
204.00 41.55
205.00 37.96
206.00 36.20
207.00 35.74
208.00 36.29
209.00 37.75
210.00 40.29
211.00 44.52
212.00 52.03
213.00 53.16
214.00 48.02
215.00 46.67
216.00 47.76
217.00 50.39
218.00 51.93
219.00 50.95
220.00 49.78
221.00 47.70
222.00 43.59
223.00 39.47
224.00 36.48
225.00 34.64
226.00 33.70
227.00 33.34
228.00 33.08
229.00 32.32
230.00 30.93
231.00 29.58
232.00 28.93
233.00 29.30
234.00 30.71
235.00 33.02
236.00 35.79
237.00 38.17
238.00 38.61
239.00 37.17
240.00 35.92
241.00 35.87
242.00 37.38
243.00 41.19
244.00 50.44
245.00 52.77
246.00 45.15
247.00 41.91
248.00 38.81
249.00 36.49
250.00 35.72
251.00 36.60
252.00 38.86
253.00 41.42
254.00 41.77
255.00 40.29
256.00 39.79
257.00 41.73
258.00 45.35
259.00 41.91
260.00 38.53
261.00 37.91
262.00 39.21
263.00 41.58
264.00 44.53
265.00 42.40
266.00 37.18
267.00 34.40
268.00 33.83
269.00 34.77
270.00 36.01
271.00 36.79
272.00 37.21
273.00 35.57
274.00 32.77
275.00 31.03
276.00 30.60
277.00 31.00
278.00 31.65
279.00 32.27
280.00 32.71
281.00 32.55
282.00 32.00
283.00 31.74
284.00 31.96
285.00 32.40
286.00 32.63
287.00 32.51
288.00 32.34
289.00 32.67
290.00 33.89
291.00 36.21
292.00 39.58
293.00 43.93
294.00 48.64
295.00 49.56
296.00 46.01
297.00 41.72
298.00 38.16
299.00 35.83
300.00 34.66
301.00 34.33
302.00 34.51
303.00 35.09
304.00 36.38
305.00 39.11
306.00 41.12
307.00 35.63
308.00 30.61
309.00 27.30
310.00 25.04
311.00 23.37
312.00 21.98
313.00 20.63
314.00 19.29
315.00 18.07
316.00 17.12
317.00 16.56
318.00 16.42
319.00 16.67
320.00 17.23
321.00 17.96
322.00 18.70
323.00 19.43
324.00 20.29
325.00 21.52
326.00 23.32
327.00 25.83
328.00 29.11
329.00 32.74
330.00 35.10
331.00 35.17
332.00 34.19
333.00 33.29
334.00 33.24
335.00 33.82
336.00 32.71
337.00 29.49
338.00 26.53
339.00 24.41
340.00 22.94
341.00 21.96
342.00 21.43
343.00 21.53
344.00 22.57
345.00 25.10
346.00 29.85
347.00 31.22
348.00 25.96
349.00 22.89
350.00 21.80
351.00 22.49
352.00 25.17
353.00 25.36
354.00 18.75
355.00 13.39
356.00 9.50
357.00 6.57
358.00 4.35
359.00 2.67
