NAME ATR4518R7_2655_X_CO_P45_08T_yyR
FREQUENCY 2655
GAIN 15.46 dBd
TILT	ELECTRICAL
COMMENT DATE 05.08.2013 +45 degrees polarized system Lever position 08T deg
HORIZONTAL 360
0.00 0.01
1.00 0.03
2.00 0.06
3.00 0.09
4.00 0.13
5.00 0.18
6.00 0.24
7.00 0.31
8.00 0.39
9.00 0.48
10.00 0.58
11.00 0.69
12.00 0.80
13.00 0.93
14.00 1.07
15.00 1.21
16.00 1.36
17.00 1.51
18.00 1.67
19.00 1.83
20.00 1.99
21.00 2.16
22.00 2.32
23.00 2.47
24.00 2.63
25.00 2.78
26.00 2.93
27.00 3.07
28.00 3.21
29.00 3.35
30.00 3.49
31.00 3.62
32.00 3.76
33.00 3.90
34.00 4.05
35.00 4.21
36.00 4.37
37.00 4.55
38.00 4.74
39.00 4.94
40.00 5.15
41.00 5.38
42.00 5.63
43.00 5.90
44.00 6.18
45.00 6.48
46.00 6.80
47.00 7.14
48.00 7.50
49.00 7.88
50.00 8.27
51.00 8.69
52.00 9.13
53.00 9.58
54.00 10.06
55.00 10.56
56.00 11.08
57.00 11.62
58.00 12.19
59.00 12.77
60.00 13.38
61.00 14.02
62.00 14.68
63.00 15.36
64.00 16.07
65.00 16.80
66.00 17.57
67.00 18.35
68.00 19.16
69.00 20.00
70.00 20.86
71.00 21.74
72.00 22.65
73.00 23.59
74.00 24.56
75.00 25.57
76.00 26.62
77.00 27.72
78.00 28.88
79.00 30.12
80.00 31.46
81.00 32.92
82.00 34.52
83.00 36.28
84.00 38.18
85.00 40.17
86.00 41.96
87.00 43.08
88.00 43.18
89.00 42.51
90.00 41.59
91.00 40.75
92.00 40.06
93.00 39.57
94.00 39.25
95.00 39.04
96.00 38.91
97.00 38.79
98.00 38.59
99.00 38.28
100.00 37.81
101.00 37.19
102.00 36.46
103.00 35.68
104.00 34.91
105.00 34.19
106.00 33.53
107.00 32.97
108.00 32.51
109.00 32.16
110.00 31.92
111.00 31.80
112.00 31.81
113.00 31.94
114.00 32.20
115.00 32.62
116.00 33.19
117.00 33.93
118.00 34.88
119.00 36.05
120.00 37.46
121.00 39.13
122.00 40.98
123.00 42.61
124.00 43.22
125.00 42.44
126.00 40.94
127.00 39.41
128.00 38.10
129.00 37.06
130.00 36.27
131.00 35.72
132.00 35.38
133.00 35.24
134.00 35.28
135.00 35.52
136.00 35.94
137.00 36.56
138.00 37.42
139.00 38.52
140.00 39.95
141.00 41.77
142.00 44.15
143.00 47.36
144.00 51.82
145.00 55.74
146.00 52.67
147.00 48.86
148.00 46.32
149.00 44.65
150.00 43.59
151.00 42.99
152.00 42.79
153.00 42.95
154.00 43.51
155.00 44.51
156.00 46.12
157.00 48.64
158.00 53.01
159.00 64.31
160.00 58.33
161.00 50.21
162.00 45.99
163.00 43.16
164.00 41.06
165.00 39.45
166.00 38.19
167.00 37.20
168.00 36.44
169.00 35.88
170.00 35.51
171.00 35.31
172.00 35.28
173.00 35.44
174.00 35.79
175.00 36.35
176.00 37.16
177.00 38.29
178.00 39.83
179.00 41.97
180.00 45.14
181.00 50.64
182.00 70.98
183.00 52.04
184.00 45.66
185.00 42.12
186.00 39.75
187.00 38.02
188.00 36.75
189.00 35.81
190.00 35.14
191.00 34.70
192.00 34.47
193.00 34.44
194.00 34.61
195.00 34.99
196.00 35.60
197.00 36.46
198.00 37.64
199.00 39.23
200.00 41.40
201.00 44.53
202.00 49.57
203.00 57.61
204.00 50.94
205.00 45.33
206.00 41.95
207.00 39.64
208.00 37.94
209.00 36.65
210.00 35.66
211.00 34.90
212.00 34.32
213.00 33.90
214.00 33.60
215.00 33.42
216.00 33.32
217.00 33.31
218.00 33.36
219.00 33.46
220.00 33.61
221.00 33.78
222.00 33.96
223.00 34.15
224.00 34.33
225.00 34.50
226.00 34.65
227.00 34.78
228.00 34.89
229.00 35.00
230.00 35.11
231.00 35.23
232.00 35.37
233.00 35.53
234.00 35.72
235.00 35.93
236.00 36.18
237.00 36.44
238.00 36.70
239.00 36.94
240.00 37.13
241.00 37.24
242.00 37.25
243.00 37.16
244.00 36.98
245.00 36.73
246.00 36.44
247.00 36.13
248.00 35.84
249.00 35.60
250.00 35.41
251.00 35.28
252.00 35.22
253.00 35.22
254.00 35.27
255.00 35.36
256.00 35.46
257.00 35.52
258.00 35.51
259.00 35.36
260.00 35.04
261.00 34.55
262.00 33.90
263.00 33.13
264.00 32.29
265.00 31.41
266.00 30.54
267.00 29.69
268.00 28.87
269.00 28.09
270.00 27.36
271.00 26.66
272.00 26.01
273.00 25.39
274.00 24.80
275.00 24.25
276.00 23.72
277.00 23.21
278.00 22.72
279.00 22.24
280.00 21.77
281.00 21.31
282.00 20.85
283.00 20.40
284.00 19.95
285.00 19.49
286.00 19.04
287.00 18.58
288.00 18.13
289.00 17.68
290.00 17.23
291.00 16.79
292.00 16.34
293.00 15.91
294.00 15.47
295.00 15.05
296.00 14.63
297.00 14.22
298.00 13.81
299.00 13.41
300.00 13.01
301.00 12.62
302.00 12.23
303.00 11.85
304.00 11.47
305.00 11.09
306.00 10.71
307.00 10.34
308.00 9.98
309.00 9.61
310.00 9.25
311.00 8.89
312.00 8.54
313.00 8.18
314.00 7.84
315.00 7.49
316.00 7.15
317.00 6.82
318.00 6.49
319.00 6.16
320.00 5.85
321.00 5.53
322.00 5.23
323.00 4.93
324.00 4.63
325.00 4.35
326.00 4.07
327.00 3.80
328.00 3.53
329.00 3.28
330.00 3.03
331.00 2.79
332.00 2.56
333.00 2.34
334.00 2.13
335.00 1.93
336.00 1.74
337.00 1.56
338.00 1.39
339.00 1.24
340.00 1.09
341.00 0.95
342.00 0.83
343.00 0.71
344.00 0.61
345.00 0.51
346.00 0.43
347.00 0.35
348.00 0.28
349.00 0.22
350.00 0.17
351.00 0.13
352.00 0.09
353.00 0.06
354.00 0.04
355.00 0.02
356.00 0.00
357.00 0.00
358.00 0.00
359.00 0.00
VERTICAL 360
0.00 21.61
1.00 20.57
2.00 26.89
3.00 21.57
4.00 10.56
5.00 5.15
6.00 2.02
7.00 0.39
8.00 0.00
9.00 0.89
10.00 3.38
11.00 8.42
12.00 24.49
13.00 19.85
14.00 14.36
15.00 15.40
16.00 23.31
17.00 26.06
18.00 15.53
19.00 13.06
20.00 14.29
21.00 20.54
22.00 31.81
23.00 18.80
24.00 16.28
25.00 17.17
26.00 21.65
27.00 30.59
28.00 22.24
29.00 18.99
30.00 20.18
31.00 25.24
32.00 28.47
33.00 23.34
34.00 19.46
35.00 17.31
36.00 17.02
37.00 17.87
38.00 17.94
39.00 17.54
40.00 18.83
41.00 22.83
42.00 26.89
43.00 25.79
44.00 25.31
45.00 24.70
46.00 23.81
47.00 25.16
48.00 29.37
49.00 28.92
50.00 25.08
51.00 23.93
52.00 24.86
53.00 26.81
54.00 27.77
55.00 28.47
56.00 31.86
57.00 35.39
58.00 31.89
59.00 31.19
60.00 34.37
61.00 41.22
62.00 41.88
63.00 40.08
64.00 45.47
65.00 45.35
66.00 38.35
67.00 37.51
68.00 38.88
69.00 38.54
70.00 35.67
71.00 33.55
72.00 33.59
73.00 35.83
74.00 39.31
75.00 39.51
76.00 35.95
77.00 34.57
78.00 36.77
79.00 41.66
80.00 40.44
81.00 41.55
82.00 45.46
83.00 35.24
84.00 32.02
85.00 33.29
86.00 39.05
87.00 43.34
88.00 34.69
89.00 29.04
90.00 26.36
91.00 25.88
92.00 26.53
93.00 27.31
94.00 27.93
95.00 28.13
96.00 28.61
97.00 31.04
98.00 37.05
99.00 41.78
100.00 34.02
101.00 30.03
102.00 29.32
103.00 31.39
104.00 34.76
105.00 37.42
106.00 41.91
107.00 44.53
108.00 44.25
109.00 45.20
110.00 41.42
111.00 42.72
112.00 48.30
113.00 41.00
114.00 37.01
115.00 35.47
116.00 36.18
117.00 38.72
118.00 37.57
119.00 35.64
120.00 37.55
121.00 45.55
122.00 43.13
123.00 38.94
124.00 40.71
125.00 46.96
126.00 57.98
127.00 48.13
128.00 43.03
129.00 50.13
130.00 45.09
131.00 38.22
132.00 40.61
133.00 46.20
134.00 39.36
135.00 40.56
136.00 41.07
137.00 37.59
138.00 39.61
139.00 42.34
140.00 39.50
141.00 34.78
142.00 30.06
143.00 28.53
144.00 30.23
145.00 34.62
146.00 39.05
147.00 39.99
148.00 38.15
149.00 37.58
150.00 39.58
151.00 41.77
152.00 40.46
153.00 38.94
154.00 39.38
155.00 37.84
156.00 34.63
157.00 33.77
158.00 34.58
159.00 34.33
160.00 32.96
161.00 32.29
162.00 32.58
163.00 33.52
164.00 34.78
165.00 36.03
166.00 36.80
167.00 37.40
168.00 39.16
169.00 43.98
170.00 49.27
171.00 41.87
172.00 39.00
173.00 39.48
174.00 43.42
175.00 54.16
176.00 40.62
177.00 34.66
178.00 32.46
179.00 32.60
180.00 34.67
181.00 38.44
182.00 44.13
183.00 56.52
184.00 47.32
185.00 41.55
186.00 40.57
187.00 41.51
188.00 40.44
189.00 37.42
190.00 35.16
191.00 33.72
192.00 33.77
193.00 37.51
194.00 45.47
195.00 36.50
196.00 33.87
197.00 35.11
198.00 36.82
199.00 36.08
200.00 35.17
201.00 36.32
202.00 43.64
203.00 43.00
204.00 35.06
205.00 33.49
206.00 34.18
207.00 35.35
208.00 37.47
209.00 41.64
210.00 45.18
211.00 44.63
212.00 44.60
213.00 45.33
214.00 42.33
215.00 39.13
216.00 38.61
217.00 40.11
218.00 41.72
219.00 41.47
220.00 38.92
221.00 36.72
222.00 36.79
223.00 37.70
224.00 35.28
225.00 32.61
226.00 31.60
227.00 31.47
228.00 31.53
229.00 31.71
230.00 32.14
231.00 33.20
232.00 35.13
233.00 36.96
234.00 37.94
235.00 39.15
236.00 40.55
237.00 40.25
238.00 37.95
239.00 36.33
240.00 36.37
241.00 37.65
242.00 39.38
243.00 41.24
244.00 44.08
245.00 42.54
246.00 36.03
247.00 32.74
248.00 32.12
249.00 33.16
250.00 34.30
251.00 34.10
252.00 33.85
253.00 36.16
254.00 43.70
255.00 39.41
256.00 34.97
257.00 35.11
258.00 37.06
259.00 37.82
260.00 35.99
261.00 33.86
262.00 34.12
263.00 37.67
264.00 39.78
265.00 36.96
266.00 36.82
267.00 38.52
268.00 37.52
269.00 33.61
270.00 30.83
271.00 29.97
272.00 30.80
273.00 33.21
274.00 38.29
275.00 46.75
276.00 39.92
277.00 37.69
278.00 40.78
279.00 49.40
280.00 41.78
281.00 36.98
282.00 35.28
283.00 34.76
284.00 34.39
285.00 34.28
286.00 35.11
287.00 36.95
288.00 39.50
289.00 43.02
290.00 47.71
291.00 49.17
292.00 47.81
293.00 44.30
294.00 39.07
295.00 35.50
296.00 33.51
297.00 32.13
298.00 30.89
299.00 30.41
300.00 31.62
301.00 34.68
302.00 33.96
303.00 28.72
304.00 24.39
305.00 20.60
306.00 17.16
307.00 14.24
308.00 11.98
309.00 10.39
310.00 9.41
311.00 9.11
312.00 9.64
313.00 11.27
314.00 14.50
315.00 20.64
316.00 30.26
317.00 22.42
318.00 18.83
319.00 18.46
320.00 20.50
321.00 26.00
322.00 36.50
323.00 25.31
324.00 20.61
325.00 19.26
326.00 21.01
327.00 30.13
328.00 28.06
329.00 19.58
330.00 17.42
331.00 18.57
332.00 24.77
333.00 34.33
334.00 20.18
335.00 17.20
336.00 18.35
337.00 26.68
338.00 27.50
339.00 17.21
340.00 13.57
341.00 12.45
342.00 13.36
343.00 16.70
344.00 23.61
345.00 27.96
346.00 24.00
347.00 25.15
348.00 35.55
349.00 32.14
350.00 23.50
351.00 21.56
352.00 23.24
353.00 28.53
354.00 35.59
355.00 39.96
356.00 43.39
357.00 34.75
358.00 30.77
359.00 25.76
