NAME ATR4518R7_0806_X_CO_M45_03T
FREQUENCY 0806
GAIN 14.26 dBd
TILT	ELECTRICAL
COMMENT DATE 05.08.2013 -45 degrees polarized system Lever position 03T deg
HORIZONTAL 360
0.00 0.01
1.00 0.02
2.00 0.03
3.00 0.06
4.00 0.09
5.00 0.12
6.00 0.16
7.00 0.20
8.00 0.26
9.00 0.31
10.00 0.38
11.00 0.44
12.00 0.52
13.00 0.60
14.00 0.69
15.00 0.78
16.00 0.88
17.00 0.98
18.00 1.10
19.00 1.21
20.00 1.33
21.00 1.46
22.00 1.60
23.00 1.74
24.00 1.89
25.00 2.04
26.00 2.20
27.00 2.36
28.00 2.53
29.00 2.71
30.00 2.89
31.00 3.08
32.00 3.27
33.00 3.47
34.00 3.68
35.00 3.89
36.00 4.11
37.00 4.33
38.00 4.56
39.00 4.80
40.00 5.04
41.00 5.28
42.00 5.53
43.00 5.79
44.00 6.05
45.00 6.32
46.00 6.59
47.00 6.87
48.00 7.15
49.00 7.44
50.00 7.73
51.00 8.02
52.00 8.33
53.00 8.63
54.00 8.94
55.00 9.25
56.00 9.57
57.00 9.89
58.00 10.21
59.00 10.53
60.00 10.86
61.00 11.20
62.00 11.53
63.00 11.86
64.00 12.20
65.00 12.54
66.00 12.88
67.00 13.22
68.00 13.57
69.00 13.91
70.00 14.26
71.00 14.60
72.00 14.95
73.00 15.29
74.00 15.63
75.00 15.98
76.00 16.32
77.00 16.65
78.00 16.99
79.00 17.32
80.00 17.66
81.00 17.99
82.00 18.31
83.00 18.63
84.00 18.95
85.00 19.26
86.00 19.57
87.00 19.87
88.00 20.16
89.00 20.45
90.00 20.74
91.00 21.01
92.00 21.28
93.00 21.55
94.00 21.80
95.00 22.05
96.00 22.29
97.00 22.52
98.00 22.75
99.00 22.97
100.00 23.19
101.00 23.40
102.00 23.60
103.00 23.81
104.00 24.01
105.00 24.20
106.00 24.40
107.00 24.60
108.00 24.80
109.00 25.00
110.00 25.20
111.00 25.41
112.00 25.62
113.00 25.84
114.00 26.06
115.00 26.30
116.00 26.54
117.00 26.80
118.00 27.06
119.00 27.34
120.00 27.64
121.00 27.94
122.00 28.26
123.00 28.60
124.00 28.96
125.00 29.33
126.00 29.73
127.00 30.14
128.00 30.58
129.00 31.04
130.00 31.52
131.00 32.03
132.00 32.57
133.00 33.14
134.00 33.73
135.00 34.36
136.00 35.01
137.00 35.70
138.00 36.42
139.00 37.15
140.00 37.91
141.00 38.68
142.00 39.43
143.00 40.17
144.00 40.84
145.00 41.43
146.00 41.89
147.00 42.20
148.00 42.35
149.00 42.34
150.00 42.22
151.00 41.99
152.00 41.71
153.00 41.40
154.00 41.08
155.00 40.77
156.00 40.48
157.00 40.21
158.00 39.98
159.00 39.78
160.00 39.60
161.00 39.46
162.00 39.36
163.00 39.29
164.00 39.24
165.00 39.22
166.00 39.24
167.00 39.28
168.00 39.34
169.00 39.42
170.00 39.53
171.00 39.65
172.00 39.80
173.00 39.97
174.00 40.14
175.00 40.34
176.00 40.54
177.00 40.75
178.00 40.96
179.00 41.18
180.00 41.40
181.00 41.61
182.00 41.82
183.00 42.02
184.00 42.20
185.00 42.37
186.00 42.51
187.00 42.64
188.00 42.74
189.00 42.83
190.00 42.88
191.00 42.90
192.00 42.90
193.00 42.88
194.00 42.82
195.00 42.75
196.00 42.65
197.00 42.53
198.00 42.39
199.00 42.22
200.00 42.05
201.00 41.85
202.00 41.64
203.00 41.42
204.00 41.19
205.00 40.95
206.00 40.70
207.00 40.45
208.00 40.19
209.00 39.93
210.00 39.66
211.00 39.39
212.00 39.12
213.00 38.85
214.00 38.58
215.00 38.31
216.00 38.04
217.00 37.77
218.00 37.50
219.00 37.22
220.00 36.95
221.00 36.67
222.00 36.38
223.00 36.09
224.00 35.79
225.00 35.48
226.00 35.16
227.00 34.83
228.00 34.48
229.00 34.12
230.00 33.74
231.00 33.35
232.00 32.95
233.00 32.53
234.00 32.10
235.00 31.66
236.00 31.20
237.00 30.74
238.00 30.27
239.00 29.80
240.00 29.32
241.00 28.84
242.00 28.36
243.00 27.88
244.00 27.40
245.00 26.93
246.00 26.45
247.00 25.99
248.00 25.52
249.00 25.07
250.00 24.62
251.00 24.18
252.00 23.74
253.00 23.31
254.00 22.89
255.00 22.48
256.00 22.07
257.00 21.68
258.00 21.29
259.00 20.91
260.00 20.53
261.00 20.16
262.00 19.80
263.00 19.45
264.00 19.10
265.00 18.77
266.00 18.43
267.00 18.10
268.00 17.78
269.00 17.47
270.00 17.15
271.00 16.85
272.00 16.54
273.00 16.25
274.00 15.95
275.00 15.66
276.00 15.37
277.00 15.09
278.00 14.81
279.00 14.53
280.00 14.25
281.00 13.98
282.00 13.70
283.00 13.43
284.00 13.16
285.00 12.89
286.00 12.62
287.00 12.35
288.00 12.09
289.00 11.82
290.00 11.55
291.00 11.29
292.00 11.02
293.00 10.75
294.00 10.49
295.00 10.23
296.00 9.96
297.00 9.70
298.00 9.43
299.00 9.17
300.00 8.91
301.00 8.65
302.00 8.40
303.00 8.14
304.00 7.88
305.00 7.63
306.00 7.37
307.00 7.13
308.00 6.88
309.00 6.63
310.00 6.39
311.00 6.15
312.00 5.92
313.00 5.68
314.00 5.45
315.00 5.22
316.00 5.00
317.00 4.78
318.00 4.56
319.00 4.35
320.00 4.15
321.00 3.94
322.00 3.74
323.00 3.55
324.00 3.36
325.00 3.17
326.00 2.99
327.00 2.82
328.00 2.65
329.00 2.48
330.00 2.32
331.00 2.16
332.00 2.01
333.00 1.87
334.00 1.73
335.00 1.59
336.00 1.46
337.00 1.34
338.00 1.22
339.00 1.11
340.00 1.00
341.00 0.89
342.00 0.80
343.00 0.71
344.00 0.62
345.00 0.54
346.00 0.46
347.00 0.39
348.00 0.33
349.00 0.27
350.00 0.22
351.00 0.17
352.00 0.13
353.00 0.09
354.00 0.07
355.00 0.04
356.00 0.02
357.00 0.01
358.00 0.00
359.00 0.00
VERTICAL 360
0.00 1.54
1.00 0.70
2.00 0.20
3.00 0.00
4.00 0.11
5.00 0.53
6.00 1.26
7.00 2.32
8.00 3.75
9.00 5.61
10.00 7.99
11.00 11.06
12.00 15.17
13.00 21.20
14.00 33.33
15.00 33.20
16.00 27.41
17.00 27.12
18.00 30.23
19.00 36.03
20.00 29.30
21.00 23.89
22.00 20.85
23.00 19.14
24.00 18.33
25.00 18.23
26.00 18.75
27.00 19.89
28.00 21.71
29.00 24.43
30.00 28.60
31.00 36.15
32.00 48.58
33.00 35.64
34.00 32.50
35.00 32.25
36.00 34.18
37.00 36.62
38.00 32.52
39.00 27.31
40.00 23.58
41.00 20.88
42.00 18.89
43.00 17.42
44.00 16.35
45.00 15.62
46.00 15.18
47.00 15.01
48.00 15.10
49.00 15.45
50.00 16.08
51.00 16.99
52.00 18.19
53.00 19.69
54.00 21.49
55.00 23.60
56.00 25.99
57.00 28.59
58.00 31.10
59.00 32.78
60.00 32.91
61.00 32.01
62.00 31.01
63.00 30.37
64.00 30.25
65.00 30.69
66.00 31.69
67.00 33.21
68.00 35.02
69.00 36.47
70.00 36.71
71.00 35.91
72.00 34.94
73.00 34.28
74.00 33.99
75.00 33.95
76.00 33.84
77.00 33.30
78.00 32.24
79.00 30.95
80.00 29.76
81.00 28.85
82.00 28.24
83.00 27.90
84.00 27.77
85.00 27.76
86.00 27.82
87.00 27.91
88.00 28.05
89.00 28.27
90.00 28.61
91.00 29.11
92.00 29.81
93.00 30.69
94.00 31.70
95.00 32.69
96.00 33.51
97.00 34.08
98.00 34.44
99.00 34.76
100.00 35.25
101.00 36.03
102.00 37.16
103.00 38.52
104.00 39.80
105.00 40.66
106.00 41.09
107.00 41.39
108.00 41.68
109.00 41.76
110.00 41.37
111.00 40.57
112.00 39.72
113.00 39.09
114.00 38.82
115.00 38.97
116.00 39.55
117.00 40.60
118.00 42.18
119.00 44.38
120.00 47.42
121.00 51.69
122.00 56.69
123.00 54.34
124.00 49.24
125.00 45.46
126.00 42.67
127.00 40.68
128.00 39.38
129.00 38.70
130.00 38.58
131.00 38.93
132.00 39.70
133.00 40.80
134.00 42.14
135.00 43.65
136.00 45.25
137.00 46.88
138.00 48.58
139.00 50.23
140.00 51.05
141.00 50.20
142.00 48.59
143.00 47.27
144.00 46.23
145.00 45.05
146.00 43.32
147.00 41.34
148.00 39.53
149.00 38.12
150.00 37.13
151.00 36.51
152.00 36.18
153.00 36.06
154.00 36.07
155.00 36.08
156.00 35.89
157.00 35.31
158.00 34.32
159.00 33.13
160.00 32.04
161.00 31.26
162.00 30.93
163.00 31.12
164.00 31.94
165.00 33.55
166.00 36.23
167.00 40.24
168.00 42.64
169.00 39.06
170.00 35.65
171.00 33.54
172.00 32.43
173.00 32.09
174.00 33.51
175.00 35.47
176.00 38.03
177.00 41.18
178.00 43.29
179.00 44.15
180.00 43.12
181.00 41.62
182.00 40.57
183.00 40.17
184.00 40.47
185.00 41.51
186.00 43.22
187.00 44.16
188.00 42.16
189.00 38.74
190.00 35.86
191.00 33.68
192.00 32.09
193.00 30.98
194.00 30.27
195.00 29.87
196.00 29.72
197.00 29.75
198.00 29.90
199.00 30.16
200.00 30.51
201.00 31.02
202.00 31.73
203.00 32.75
204.00 34.14
205.00 35.96
206.00 38.04
207.00 39.56
208.00 39.20
209.00 37.51
210.00 35.85
211.00 34.71
212.00 34.16
213.00 34.18
214.00 34.75
215.00 35.90
216.00 37.75
217.00 40.63
218.00 45.51
219.00 55.60
220.00 49.30
221.00 43.26
222.00 40.17
223.00 38.37
224.00 37.34
225.00 36.91
226.00 37.08
227.00 37.90
228.00 39.42
229.00 41.51
230.00 43.38
231.00 43.68
232.00 42.55
233.00 41.09
234.00 39.69
235.00 38.50
236.00 37.66
237.00 37.31
238.00 37.53
239.00 38.33
240.00 39.78
241.00 42.08
242.00 45.64
243.00 49.23
244.00 45.96
245.00 41.64
246.00 38.92
247.00 37.40
248.00 36.79
249.00 36.89
250.00 37.53
251.00 38.50
252.00 39.54
253.00 40.34
254.00 40.73
255.00 40.71
256.00 40.38
257.00 39.85
258.00 39.15
259.00 38.36
260.00 37.54
261.00 36.79
262.00 36.20
263.00 35.82
264.00 35.71
265.00 35.83
266.00 36.14
267.00 36.54
268.00 36.94
269.00 37.31
270.00 37.59
271.00 37.64
272.00 37.33
273.00 36.62
274.00 35.67
275.00 34.73
276.00 33.95
277.00 33.44
278.00 33.29
279.00 33.53
280.00 34.19
281.00 35.21
282.00 36.36
283.00 37.21
284.00 37.32
285.00 36.71
286.00 35.77
287.00 34.86
288.00 34.11
289.00 33.51
290.00 33.01
291.00 32.55
292.00 32.14
293.00 31.87
294.00 31.90
295.00 32.39
296.00 33.56
297.00 35.84
298.00 40.46
299.00 57.80
300.00 41.67
301.00 34.62
302.00 30.62
303.00 27.82
304.00 25.66
305.00 23.86
306.00 22.33
307.00 21.01
308.00 19.90
309.00 19.02
310.00 18.39
311.00 18.03
312.00 17.97
313.00 18.21
314.00 18.77
315.00 19.64
316.00 20.81
317.00 22.28
318.00 24.00
319.00 25.95
320.00 28.15
321.00 30.71
322.00 33.81
323.00 37.75
324.00 42.79
325.00 47.67
326.00 49.07
327.00 47.71
328.00 43.32
329.00 38.70
330.00 35.35
331.00 33.27
332.00 32.38
333.00 32.71
334.00 34.37
335.00 36.23
336.00 33.62
337.00 29.17
338.00 25.82
339.00 23.57
340.00 22.23
341.00 21.69
342.00 21.94
343.00 23.09
344.00 25.30
345.00 28.49
346.00 29.68
347.00 26.74
348.00 24.07
349.00 22.82
350.00 23.19
351.00 26.10
352.00 38.41
353.00 25.58
354.00 17.41
355.00 12.53
356.00 9.04
357.00 6.38
358.00 4.32
359.00 2.73
