NAME ATR4518R7_1950_X_CO_P45_08T_yL
FREQUENCY 1950
GAIN 14.82 dBd
TILT	ELECTRICAL
COMMENT DATE 05.08.2013 +45 degrees polarized system Lever position 08T deg
HORIZONTAL 360
0.00 0.07
1.00 0.05
2.00 0.04
3.00 0.02
4.00 0.01
5.00 0.00
6.00 0.00
7.00 0.00
8.00 0.01
9.00 0.01
10.00 0.03
11.00 0.05
12.00 0.08
13.00 0.11
14.00 0.15
15.00 0.20
16.00 0.25
17.00 0.32
18.00 0.39
19.00 0.48
20.00 0.57
21.00 0.66
22.00 0.77
23.00 0.89
24.00 1.02
25.00 1.15
26.00 1.29
27.00 1.44
28.00 1.60
29.00 1.77
30.00 1.94
31.00 2.13
32.00 2.31
33.00 2.51
34.00 2.71
35.00 2.91
36.00 3.12
37.00 3.34
38.00 3.56
39.00 3.78
40.00 4.00
41.00 4.22
42.00 4.44
43.00 4.67
44.00 4.89
45.00 5.11
46.00 5.33
47.00 5.55
48.00 5.76
49.00 5.98
50.00 6.19
51.00 6.40
52.00 6.60
53.00 6.81
54.00 7.01
55.00 7.22
56.00 7.42
57.00 7.63
58.00 7.84
59.00 8.05
60.00 8.26
61.00 8.48
62.00 8.70
63.00 8.92
64.00 9.16
65.00 9.40
66.00 9.64
67.00 9.89
68.00 10.16
69.00 10.42
70.00 10.70
71.00 10.99
72.00 11.28
73.00 11.57
74.00 11.88
75.00 12.19
76.00 12.51
77.00 12.83
78.00 13.15
79.00 13.47
80.00 13.80
81.00 14.13
82.00 14.46
83.00 14.78
84.00 15.10
85.00 15.42
86.00 15.74
87.00 16.05
88.00 16.35
89.00 16.66
90.00 16.95
91.00 17.25
92.00 17.54
93.00 17.84
94.00 18.13
95.00 18.42
96.00 18.72
97.00 19.02
98.00 19.33
99.00 19.65
100.00 19.97
101.00 20.29
102.00 20.63
103.00 20.97
104.00 21.32
105.00 21.67
106.00 22.03
107.00 22.39
108.00 22.75
109.00 23.10
110.00 23.45
111.00 23.80
112.00 24.14
113.00 24.47
114.00 24.79
115.00 25.10
116.00 25.40
117.00 25.70
118.00 25.99
119.00 26.27
120.00 26.55
121.00 26.83
122.00 27.11
123.00 27.38
124.00 27.66
125.00 27.93
126.00 28.20
127.00 28.48
128.00 28.74
129.00 29.00
130.00 29.25
131.00 29.49
132.00 29.71
133.00 29.93
134.00 30.12
135.00 30.30
136.00 30.47
137.00 30.62
138.00 30.76
139.00 30.90
140.00 31.02
141.00 31.15
142.00 31.29
143.00 31.44
144.00 31.60
145.00 31.79
146.00 32.01
147.00 32.25
148.00 32.54
149.00 32.87
150.00 33.25
151.00 33.68
152.00 34.15
153.00 34.67
154.00 35.24
155.00 35.84
156.00 36.45
157.00 37.05
158.00 37.59
159.00 38.02
160.00 38.32
161.00 38.44
162.00 38.39
163.00 38.20
164.00 37.92
165.00 37.59
166.00 37.26
167.00 36.95
168.00 36.68
169.00 36.48
170.00 36.34
171.00 36.26
172.00 36.25
173.00 36.30
174.00 36.41
175.00 36.57
176.00 36.77
177.00 37.01
178.00 37.27
179.00 37.54
180.00 37.80
181.00 38.05
182.00 38.30
183.00 38.52
184.00 38.74
185.00 38.97
186.00 39.21
187.00 39.48
188.00 39.81
189.00 40.23
190.00 40.76
191.00 41.43
192.00 42.28
193.00 43.36
194.00 44.72
195.00 46.35
196.00 48.11
197.00 49.26
198.00 48.60
199.00 46.50
200.00 44.11
201.00 41.96
202.00 40.08
203.00 38.47
204.00 37.08
205.00 35.87
206.00 34.82
207.00 33.90
208.00 33.09
209.00 32.39
210.00 31.77
211.00 31.25
212.00 30.80
213.00 30.42
214.00 30.13
215.00 29.89
216.00 29.73
217.00 29.64
218.00 29.62
219.00 29.66
220.00 29.78
221.00 29.97
222.00 30.23
223.00 30.58
224.00 31.01
225.00 31.54
226.00 32.18
227.00 32.93
228.00 33.82
229.00 34.86
230.00 36.07
231.00 37.49
232.00 39.12
233.00 40.88
234.00 42.49
235.00 43.26
236.00 42.71
237.00 41.24
238.00 39.59
239.00 38.05
240.00 36.72
241.00 35.58
242.00 34.61
243.00 33.79
244.00 33.08
245.00 32.48
246.00 31.96
247.00 31.51
248.00 31.10
249.00 30.73
250.00 30.39
251.00 30.05
252.00 29.70
253.00 29.34
254.00 28.95
255.00 28.53
256.00 28.07
257.00 27.58
258.00 27.06
259.00 26.52
260.00 25.96
261.00 25.41
262.00 24.85
263.00 24.31
264.00 23.79
265.00 23.28
266.00 22.80
267.00 22.35
268.00 21.92
269.00 21.53
270.00 21.16
271.00 20.82
272.00 20.50
273.00 20.21
274.00 19.94
275.00 19.68
276.00 19.45
277.00 19.22
278.00 19.01
279.00 18.79
280.00 18.58
281.00 18.37
282.00 18.15
283.00 17.92
284.00 17.68
285.00 17.43
286.00 17.16
287.00 16.88
288.00 16.59
289.00 16.28
290.00 15.97
291.00 15.64
292.00 15.31
293.00 14.98
294.00 14.65
295.00 14.31
296.00 13.98
297.00 13.64
298.00 13.31
299.00 12.98
300.00 12.65
301.00 12.33
302.00 12.01
303.00 11.68
304.00 11.36
305.00 11.04
306.00 10.71
307.00 10.39
308.00 10.06
309.00 9.73
310.00 9.39
311.00 9.05
312.00 8.71
313.00 8.37
314.00 8.03
315.00 7.69
316.00 7.35
317.00 7.01
318.00 6.68
319.00 6.35
320.00 6.03
321.00 5.71
322.00 5.41
323.00 5.11
324.00 4.81
325.00 4.53
326.00 4.25
327.00 3.99
328.00 3.73
329.00 3.48
330.00 3.24
331.00 3.01
332.00 2.79
333.00 2.58
334.00 2.38
335.00 2.18
336.00 2.00
337.00 1.83
338.00 1.66
339.00 1.51
340.00 1.36
341.00 1.23
342.00 1.10
343.00 0.98
344.00 0.88
345.00 0.78
346.00 0.69
347.00 0.60
348.00 0.53
349.00 0.47
350.00 0.41
351.00 0.35
352.00 0.31
353.00 0.26
354.00 0.23
355.00 0.19
356.00 0.16
357.00 0.14
358.00 0.11
359.00 0.09
VERTICAL 360
0.00 23.43
1.00 20.76
2.00 14.14
3.00 9.15
4.00 5.58
5.00 3.04
6.00 1.32
7.00 0.31
8.00 0.00
9.00 0.43
10.00 1.70
11.00 4.07
12.00 8.08
13.00 15.68
14.00 25.00
15.00 14.36
16.00 11.32
17.00 10.83
18.00 12.13
19.00 15.44
20.00 21.48
21.00 22.20
22.00 17.46
23.00 15.36
24.00 15.11
25.00 16.30
26.00 19.16
27.00 24.72
28.00 29.02
29.00 23.03
30.00 20.25
31.00 20.05
32.00 22.07
33.00 26.80
34.00 33.19
35.00 28.97
36.00 25.34
37.00 23.27
38.00 21.84
39.00 21.02
40.00 20.91
41.00 21.31
42.00 21.69
43.00 21.75
44.00 21.75
45.00 21.91
46.00 22.11
47.00 22.26
48.00 22.66
49.00 23.67
50.00 25.36
51.00 27.12
52.00 27.83
53.00 27.42
54.00 26.84
55.00 26.53
56.00 26.37
57.00 26.26
58.00 26.45
59.00 27.28
60.00 28.94
61.00 31.34
62.00 34.22
63.00 36.99
64.00 38.07
65.00 36.58
66.00 34.37
67.00 32.67
68.00 31.74
69.00 31.44
70.00 31.39
71.00 31.41
72.00 31.70
73.00 32.42
74.00 33.31
75.00 33.86
76.00 33.71
77.00 33.14
78.00 32.87
79.00 33.38
80.00 34.61
81.00 35.87
82.00 36.07
83.00 34.94
84.00 33.60
85.00 33.25
86.00 34.41
87.00 36.98
88.00 39.51
89.00 40.32
90.00 39.33
91.00 36.08
92.00 33.09
93.00 31.60
94.00 31.61
95.00 32.79
96.00 34.60
97.00 36.09
98.00 36.57
99.00 36.27
100.00 35.90
101.00 35.99
102.00 36.71
103.00 37.91
104.00 39.23
105.00 40.37
106.00 41.10
107.00 41.60
108.00 42.75
109.00 45.35
110.00 48.20
111.00 47.19
112.00 45.72
113.00 46.18
114.00 48.38
115.00 51.02
116.00 49.51
117.00 45.23
118.00 41.83
119.00 39.59
120.00 38.25
121.00 37.56
122.00 37.33
123.00 37.24
124.00 36.79
125.00 35.73
126.00 34.50
127.00 33.68
128.00 33.43
129.00 33.61
130.00 33.88
131.00 33.91
132.00 33.60
133.00 32.92
134.00 31.96
135.00 30.96
136.00 30.25
137.00 30.01
138.00 30.28
139.00 30.96
140.00 31.87
141.00 32.89
142.00 34.15
143.00 36.04
144.00 38.91
145.00 42.82
146.00 46.58
147.00 45.69
148.00 41.18
149.00 37.89
150.00 36.45
151.00 36.68
152.00 38.31
153.00 41.38
154.00 47.61
155.00 46.25
156.00 38.03
157.00 33.99
158.00 32.16
159.00 31.78
160.00 32.37
161.00 33.56
162.00 35.38
163.00 38.09
164.00 39.98
165.00 37.91
166.00 35.62
167.00 34.87
168.00 35.42
169.00 37.02
170.00 38.80
171.00 39.60
172.00 39.34
173.00 38.75
174.00 37.30
175.00 34.90
176.00 32.45
177.00 30.80
178.00 30.31
179.00 31.01
180.00 33.13
181.00 36.19
182.00 37.56
183.00 36.77
184.00 36.66
185.00 37.32
186.00 36.76
187.00 34.85
188.00 33.70
189.00 34.30
190.00 37.01
191.00 40.60
192.00 40.02
193.00 39.27
194.00 41.24
195.00 43.84
196.00 42.13
197.00 38.32
198.00 33.91
199.00 30.61
200.00 29.03
201.00 29.12
202.00 30.69
203.00 33.38
204.00 36.90
205.00 42.61
206.00 45.16
207.00 36.99
208.00 32.89
209.00 30.89
210.00 30.13
211.00 30.34
212.00 31.50
213.00 33.59
214.00 36.42
215.00 39.50
216.00 42.19
217.00 42.71
218.00 40.60
219.00 38.50
220.00 37.19
221.00 36.31
222.00 35.55
223.00 35.00
224.00 34.93
225.00 35.51
226.00 36.88
227.00 39.17
228.00 41.33
229.00 39.03
230.00 35.23
231.00 32.84
232.00 32.00
233.00 32.62
234.00 34.79
235.00 38.78
236.00 43.97
237.00 44.20
238.00 42.21
239.00 42.23
240.00 44.57
241.00 46.88
242.00 41.72
243.00 37.00
244.00 34.27
245.00 33.05
246.00 33.06
247.00 34.11
248.00 36.09
249.00 38.97
250.00 42.45
251.00 42.11
252.00 37.55
253.00 33.96
254.00 31.79
255.00 30.84
256.00 30.96
257.00 31.96
258.00 33.56
259.00 35.26
260.00 36.75
261.00 38.40
262.00 40.87
263.00 42.66
264.00 40.25
265.00 37.34
266.00 35.65
267.00 34.75
268.00 33.96
269.00 32.88
270.00 31.65
271.00 30.65
272.00 30.25
273.00 30.68
274.00 32.02
275.00 34.17
276.00 36.62
277.00 37.93
278.00 36.55
279.00 33.71
280.00 30.89
281.00 28.49
282.00 26.52
283.00 24.92
284.00 23.67
285.00 22.71
286.00 22.04
287.00 21.67
288.00 21.61
289.00 21.84
290.00 22.31
291.00 22.93
292.00 23.65
293.00 24.41
294.00 25.26
295.00 26.41
296.00 28.21
297.00 31.01
298.00 33.65
299.00 31.96
300.00 29.01
301.00 27.21
302.00 26.32
303.00 25.84
304.00 25.64
305.00 26.06
306.00 27.72
307.00 31.68
308.00 36.60
309.00 30.13
310.00 25.37
311.00 22.84
312.00 21.64
313.00 21.40
314.00 21.99
315.00 23.50
316.00 26.14
317.00 29.55
318.00 29.49
319.00 25.97
320.00 23.16
321.00 21.56
322.00 21.17
323.00 22.32
324.00 26.03
325.00 39.21
326.00 29.40
327.00 22.56
328.00 19.72
329.00 18.71
330.00 18.88
331.00 19.94
332.00 21.86
333.00 24.90
334.00 28.39
335.00 27.19
336.00 24.27
337.00 23.26
338.00 24.36
339.00 27.39
340.00 28.46
341.00 25.19
342.00 23.00
343.00 22.79
344.00 24.96
345.00 31.60
346.00 30.29
347.00 22.73
348.00 19.48
349.00 18.63
350.00 19.95
351.00 24.55
352.00 41.54
353.00 24.46
354.00 19.18
355.00 17.05
356.00 16.58
357.00 17.24
358.00 18.66
359.00 20.73
