NAME ATR4518R7_2140_X_CO_M45_00T_yL
FREQUENCY 2140
GAIN 16.07 dBd
TILT	ELECTRICAL
COMMENT DATE 05.08.2013 -45 degrees polarized system Lever position 00T deg
HORIZONTAL 360
0.00 0.04
1.00 0.07
2.00 0.11
3.00 0.15
4.00 0.21
5.00 0.27
6.00 0.34
7.00 0.41
8.00 0.50
9.00 0.59
10.00 0.69
11.00 0.80
12.00 0.92
13.00 1.05
14.00 1.18
15.00 1.33
16.00 1.48
17.00 1.63
18.00 1.80
19.00 1.97
20.00 2.15
21.00 2.34
22.00 2.53
23.00 2.72
24.00 2.92
25.00 3.13
26.00 3.34
27.00 3.55
28.00 3.77
29.00 3.99
30.00 4.22
31.00 4.44
32.00 4.67
33.00 4.90
34.00 5.13
35.00 5.37
36.00 5.60
37.00 5.84
38.00 6.08
39.00 6.32
40.00 6.56
41.00 6.80
42.00 7.04
43.00 7.28
44.00 7.52
45.00 7.76
46.00 8.00
47.00 8.24
48.00 8.49
49.00 8.73
50.00 8.97
51.00 9.21
52.00 9.45
53.00 9.69
54.00 9.93
55.00 10.18
56.00 10.43
57.00 10.68
58.00 10.94
59.00 11.20
60.00 11.47
61.00 11.75
62.00 12.03
63.00 12.33
64.00 12.64
65.00 12.95
66.00 13.29
67.00 13.63
68.00 13.99
69.00 14.37
70.00 14.76
71.00 15.17
72.00 15.60
73.00 16.04
74.00 16.50
75.00 16.98
76.00 17.47
77.00 17.98
78.00 18.49
79.00 19.02
80.00 19.56
81.00 20.11
82.00 20.65
83.00 21.20
84.00 21.74
85.00 22.27
86.00 22.80
87.00 23.31
88.00 23.81
89.00 24.29
90.00 24.77
91.00 25.24
92.00 25.72
93.00 26.20
94.00 26.70
95.00 27.22
96.00 27.78
97.00 28.39
98.00 29.06
99.00 29.80
100.00 30.62
101.00 31.55
102.00 32.59
103.00 33.78
104.00 35.13
105.00 36.66
106.00 38.42
107.00 40.39
108.00 42.51
109.00 44.53
110.00 45.83
111.00 45.96
112.00 45.26
113.00 44.40
114.00 43.70
115.00 43.28
116.00 43.15
117.00 43.31
118.00 43.75
119.00 44.42
120.00 45.29
121.00 46.13
122.00 46.67
123.00 46.59
124.00 45.84
125.00 44.70
126.00 43.49
127.00 42.37
128.00 41.44
129.00 40.67
130.00 40.06
131.00 39.58
132.00 39.17
133.00 38.78
134.00 38.35
135.00 37.83
136.00 37.19
137.00 36.43
138.00 35.59
139.00 34.70
140.00 33.82
141.00 32.98
142.00 32.21
143.00 31.53
144.00 30.94
145.00 30.47
146.00 30.11
147.00 29.87
148.00 29.75
149.00 29.76
150.00 29.90
151.00 30.18
152.00 30.61
153.00 31.20
154.00 31.95
155.00 32.85
156.00 33.86
157.00 34.84
158.00 35.55
159.00 35.69
160.00 35.14
161.00 34.09
162.00 32.88
163.00 31.69
164.00 30.63
165.00 29.74
166.00 29.00
167.00 28.43
168.00 28.01
169.00 27.74
170.00 27.61
171.00 27.63
172.00 27.80
173.00 28.12
174.00 28.60
175.00 29.25
176.00 30.09
177.00 31.14
178.00 32.41
179.00 33.89
180.00 35.49
181.00 36.88
182.00 37.46
183.00 36.89
184.00 35.61
185.00 34.19
186.00 32.91
187.00 31.85
188.00 31.02
189.00 30.40
190.00 29.98
191.00 29.74
192.00 29.69
193.00 29.81
194.00 30.11
195.00 30.60
196.00 31.31
197.00 32.25
198.00 33.50
199.00 35.14
200.00 37.34
201.00 40.46
202.00 45.42
203.00 54.62
204.00 48.50
205.00 42.39
206.00 38.91
207.00 36.59
208.00 34.94
209.00 33.73
210.00 32.84
211.00 32.22
212.00 31.82
213.00 31.61
214.00 31.60
215.00 31.77
216.00 32.13
217.00 32.70
218.00 33.50
219.00 34.59
220.00 36.06
221.00 38.04
222.00 40.78
223.00 44.48
224.00 47.04
225.00 43.79
226.00 39.79
227.00 36.76
228.00 34.45
229.00 32.63
230.00 31.16
231.00 29.94
232.00 28.93
233.00 28.09
234.00 27.39
235.00 26.82
236.00 26.36
237.00 26.00
238.00 25.74
239.00 25.56
240.00 25.46
241.00 25.44
242.00 25.49
243.00 25.59
244.00 25.75
245.00 25.94
246.00 26.15
247.00 26.35
248.00 26.53
249.00 26.65
250.00 26.68
251.00 26.62
252.00 26.47
253.00 26.23
254.00 25.91
255.00 25.55
256.00 25.17
257.00 24.78
258.00 24.40
259.00 24.03
260.00 23.69
261.00 23.37
262.00 23.06
263.00 22.78
264.00 22.50
265.00 22.22
266.00 21.94
267.00 21.65
268.00 21.34
269.00 21.00
270.00 20.64
271.00 20.26
272.00 19.87
273.00 19.45
274.00 19.03
275.00 18.60
276.00 18.18
277.00 17.76
278.00 17.35
279.00 16.95
280.00 16.57
281.00 16.21
282.00 15.86
283.00 15.53
284.00 15.22
285.00 14.93
286.00 14.64
287.00 14.38
288.00 14.12
289.00 13.87
290.00 13.63
291.00 13.39
292.00 13.14
293.00 12.90
294.00 12.65
295.00 12.40
296.00 12.13
297.00 11.86
298.00 11.58
299.00 11.29
300.00 10.99
301.00 10.68
302.00 10.37
303.00 10.05
304.00 9.74
305.00 9.42
306.00 9.10
307.00 8.79
308.00 8.48
309.00 8.18
310.00 7.88
311.00 7.59
312.00 7.30
313.00 7.01
314.00 6.73
315.00 6.46
316.00 6.18
317.00 5.91
318.00 5.65
319.00 5.38
320.00 5.12
321.00 4.86
322.00 4.60
323.00 4.34
324.00 4.09
325.00 3.85
326.00 3.60
327.00 3.37
328.00 3.14
329.00 2.91
330.00 2.70
331.00 2.49
332.00 2.29
333.00 2.10
334.00 1.92
335.00 1.75
336.00 1.59
337.00 1.44
338.00 1.29
339.00 1.16
340.00 1.03
341.00 0.91
342.00 0.80
343.00 0.70
344.00 0.60
345.00 0.51
346.00 0.43
347.00 0.36
348.00 0.29
349.00 0.23
350.00 0.18
351.00 0.13
352.00 0.09
353.00 0.06
354.00 0.03
355.00 0.02
356.00 0.01
357.00 0.00
358.00 0.01
359.00 0.02
VERTICAL 360
0.00 0.11
1.00 0.11
2.00 1.00
3.00 2.92
4.00 6.25
5.00 12.03
6.00 23.27
7.00 17.39
8.00 13.83
9.00 13.83
10.00 16.20
11.00 19.58
12.00 18.69
13.00 16.28
14.00 15.72
15.00 17.30
16.00 21.57
17.00 27.94
18.00 23.79
19.00 20.45
20.00 19.94
21.00 21.82
22.00 26.18
23.00 26.16
24.00 21.31
25.00 18.66
26.00 17.69
27.00 17.76
28.00 18.35
29.00 19.14
30.00 19.97
31.00 20.67
32.00 20.90
33.00 20.56
34.00 19.86
35.00 19.05
36.00 18.32
37.00 17.96
38.00 18.28
39.00 19.58
40.00 22.35
41.00 27.78
42.00 44.89
43.00 32.15
44.00 27.13
45.00 25.61
46.00 25.71
47.00 26.87
48.00 28.90
49.00 31.91
50.00 36.58
51.00 42.80
52.00 38.09
53.00 33.20
54.00 30.59
55.00 29.50
56.00 29.62
57.00 30.77
58.00 32.77
59.00 35.09
60.00 36.77
61.00 37.12
62.00 36.70
63.00 36.24
64.00 36.05
65.00 36.24
66.00 36.98
67.00 38.32
68.00 39.95
69.00 41.11
70.00 41.13
71.00 40.18
72.00 39.22
73.00 38.89
74.00 39.12
75.00 39.47
76.00 39.48
77.00 38.87
78.00 37.58
79.00 36.30
80.00 35.77
81.00 36.35
82.00 38.06
83.00 40.55
84.00 43.00
85.00 44.68
86.00 43.10
87.00 39.19
88.00 36.51
89.00 35.65
90.00 36.62
91.00 39.38
92.00 43.32
93.00 45.57
94.00 44.57
95.00 41.72
96.00 39.10
97.00 37.96
98.00 38.52
99.00 40.68
100.00 44.12
101.00 47.71
102.00 49.63
103.00 50.14
104.00 51.36
105.00 55.00
106.00 60.38
107.00 57.57
108.00 54.50
109.00 52.08
110.00 49.49
111.00 47.35
112.00 46.00
113.00 45.44
114.00 45.35
115.00 45.02
116.00 44.03
117.00 42.96
118.00 42.49
119.00 42.99
120.00 44.62
121.00 47.42
122.00 51.79
123.00 58.47
124.00 54.89
125.00 50.01
126.00 48.09
127.00 48.00
128.00 49.18
129.00 51.27
130.00 52.56
131.00 49.47
132.00 45.34
133.00 42.31
134.00 40.14
135.00 38.30
136.00 36.79
137.00 36.13
138.00 37.01
139.00 40.27
140.00 45.53
141.00 41.71
142.00 37.75
143.00 36.10
144.00 35.50
145.00 34.97
146.00 34.37
147.00 34.37
148.00 35.79
149.00 39.84
150.00 52.64
151.00 45.76
152.00 39.91
153.00 38.60
154.00 39.41
155.00 41.68
156.00 45.63
157.00 49.97
158.00 45.93
159.00 42.98
160.00 42.95
161.00 44.22
162.00 44.14
163.00 44.16
164.00 46.83
165.00 51.06
166.00 49.85
167.00 50.06
168.00 49.15
169.00 44.36
170.00 41.90
171.00 41.94
172.00 44.53
173.00 52.87
174.00 49.57
175.00 40.99
176.00 36.86
177.00 34.18
178.00 32.26
179.00 31.23
180.00 31.39
181.00 32.91
182.00 35.69
183.00 38.52
184.00 39.28
185.00 38.84
186.00 38.12
187.00 36.76
188.00 35.45
189.00 35.26
190.00 36.72
191.00 40.14
192.00 45.40
193.00 50.29
194.00 49.40
195.00 46.05
196.00 43.96
197.00 42.33
198.00 40.39
199.00 39.20
200.00 39.59
201.00 41.66
202.00 44.76
203.00 47.31
204.00 48.88
205.00 50.09
206.00 50.66
207.00 50.01
208.00 47.52
209.00 44.18
210.00 41.41
211.00 39.86
212.00 39.65
213.00 40.49
214.00 41.17
215.00 40.21
216.00 38.13
217.00 36.15
218.00 34.73
219.00 33.95
220.00 33.75
221.00 34.15
222.00 35.31
223.00 37.37
224.00 40.30
225.00 43.84
226.00 47.74
227.00 53.27
228.00 59.17
229.00 51.52
230.00 49.28
231.00 52.64
232.00 50.98
233.00 43.30
234.00 40.07
235.00 39.65
236.00 41.40
237.00 44.44
238.00 46.82
239.00 47.88
240.00 46.53
241.00 43.23
242.00 40.94
243.00 39.97
244.00 39.76
245.00 39.76
246.00 39.98
247.00 40.99
248.00 43.49
249.00 47.31
250.00 47.35
251.00 45.11
252.00 45.04
253.00 47.09
254.00 48.77
255.00 47.50
256.00 45.87
257.00 43.82
258.00 40.80
259.00 37.84
260.00 35.54
261.00 33.94
262.00 32.88
263.00 32.13
264.00 31.49
265.00 30.91
266.00 30.44
267.00 30.10
268.00 29.86
269.00 29.59
270.00 29.19
271.00 28.67
272.00 28.13
273.00 27.72
274.00 27.51
275.00 27.54
276.00 27.77
277.00 28.14
278.00 28.52
279.00 28.77
280.00 28.84
281.00 28.82
282.00 28.89
283.00 29.22
284.00 29.85
285.00 30.58
286.00 31.07
287.00 31.19
288.00 31.21
289.00 31.53
290.00 32.48
291.00 34.04
292.00 35.13
293.00 34.00
294.00 31.84
295.00 30.24
296.00 29.47
297.00 29.33
298.00 29.39
299.00 29.21
300.00 28.82
301.00 28.78
302.00 29.66
303.00 32.06
304.00 37.07
305.00 50.13
306.00 43.21
307.00 37.63
308.00 34.77
309.00 32.63
310.00 31.46
311.00 31.33
312.00 30.49
313.00 27.44
314.00 24.37
315.00 22.42
316.00 21.49
317.00 21.13
318.00 20.88
319.00 20.60
320.00 20.56
321.00 20.85
322.00 21.15
323.00 20.90
324.00 20.06
325.00 19.01
326.00 17.96
327.00 17.02
328.00 16.40
329.00 16.36
330.00 17.20
331.00 19.26
332.00 23.02
333.00 27.02
334.00 24.12
335.00 20.76
336.00 19.40
337.00 19.95
338.00 22.95
339.00 31.86
340.00 31.42
341.00 23.30
342.00 20.96
343.00 21.50
344.00 25.39
345.00 37.48
346.00 26.08
347.00 20.97
348.00 19.48
349.00 20.37
350.00 23.41
351.00 26.17
352.00 25.11
353.00 26.86
354.00 33.56
355.00 17.26
356.00 10.11
357.00 5.66
358.00 2.76
359.00 0.97
