NAME ATR4518R7_0894_X_CO_P45_08T
FREQUENCY 0894
GAIN 14.67 dBd
TILT	ELECTRICAL
COMMENT DATE 05.08.2013 +45 degrees polarized system Lever position 08T deg
HORIZONTAL 360
0.00 0.00
1.00 0.00
2.00 0.00
3.00 0.00
4.00 0.01
5.00 0.03
6.00 0.05
7.00 0.08
8.00 0.12
9.00 0.16
10.00 0.21
11.00 0.26
12.00 0.32
13.00 0.39
14.00 0.46
15.00 0.54
16.00 0.63
17.00 0.72
18.00 0.81
19.00 0.92
20.00 1.03
21.00 1.14
22.00 1.26
23.00 1.39
24.00 1.52
25.00 1.66
26.00 1.81
27.00 1.96
28.00 2.11
29.00 2.28
30.00 2.45
31.00 2.62
32.00 2.80
33.00 2.99
34.00 3.18
35.00 3.38
36.00 3.58
37.00 3.79
38.00 4.01
39.00 4.23
40.00 4.46
41.00 4.69
42.00 4.93
43.00 5.17
44.00 5.42
45.00 5.67
46.00 5.93
47.00 6.19
48.00 6.46
49.00 6.74
50.00 7.02
51.00 7.30
52.00 7.59
53.00 7.88
54.00 8.18
55.00 8.48
56.00 8.79
57.00 9.10
58.00 9.42
59.00 9.74
60.00 10.06
61.00 10.39
62.00 10.72
63.00 11.06
64.00 11.40
65.00 11.75
66.00 12.09
67.00 12.45
68.00 12.81
69.00 13.17
70.00 13.53
71.00 13.90
72.00 14.27
73.00 14.65
74.00 15.04
75.00 15.42
76.00 15.82
77.00 16.21
78.00 16.62
79.00 17.03
80.00 17.44
81.00 17.86
82.00 18.29
83.00 18.73
84.00 19.17
85.00 19.62
86.00 20.08
87.00 20.55
88.00 21.03
89.00 21.52
90.00 22.02
91.00 22.54
92.00 23.07
93.00 23.61
94.00 24.16
95.00 24.74
96.00 25.32
97.00 25.93
98.00 26.56
99.00 27.20
100.00 27.87
101.00 28.56
102.00 29.27
103.00 29.99
104.00 30.74
105.00 31.50
106.00 32.26
107.00 33.02
108.00 33.77
109.00 34.47
110.00 35.11
111.00 35.66
112.00 36.09
113.00 36.39
114.00 36.53
115.00 36.54
116.00 36.42
117.00 36.22
118.00 35.95
119.00 35.64
120.00 35.32
121.00 35.00
122.00 34.68
123.00 34.39
124.00 34.11
125.00 33.85
126.00 33.63
127.00 33.43
128.00 33.26
129.00 33.11
130.00 32.99
131.00 32.90
132.00 32.84
133.00 32.80
134.00 32.78
135.00 32.80
136.00 32.84
137.00 32.90
138.00 32.99
139.00 33.12
140.00 33.26
141.00 33.44
142.00 33.64
143.00 33.88
144.00 34.14
145.00 34.44
146.00 34.78
147.00 35.14
148.00 35.55
149.00 36.00
150.00 36.48
151.00 37.01
152.00 37.57
153.00 38.18
154.00 38.80
155.00 39.45
156.00 40.08
157.00 40.67
158.00 41.17
159.00 41.51
160.00 41.65
161.00 41.56
162.00 41.22
163.00 40.73
164.00 40.10
165.00 39.41
166.00 38.70
167.00 37.99
168.00 37.30
169.00 36.64
170.00 36.02
171.00 35.45
172.00 34.91
173.00 34.42
174.00 33.96
175.00 33.54
176.00 33.16
177.00 32.80
178.00 32.48
179.00 32.20
180.00 31.94
181.00 31.71
182.00 31.50
183.00 31.32
184.00 31.17
185.00 31.04
186.00 30.94
187.00 30.86
188.00 30.80
189.00 30.77
190.00 30.75
191.00 30.76
192.00 30.79
193.00 30.84
194.00 30.91
195.00 31.01
196.00 31.12
197.00 31.25
198.00 31.41
199.00 31.58
200.00 31.77
201.00 31.99
202.00 32.22
203.00 32.47
204.00 32.74
205.00 33.02
206.00 33.32
207.00 33.63
208.00 33.95
209.00 34.28
210.00 34.62
211.00 34.96
212.00 35.29
213.00 35.62
214.00 35.92
215.00 36.21
216.00 36.46
217.00 36.68
218.00 36.85
219.00 36.98
220.00 37.06
221.00 37.07
222.00 37.04
223.00 36.97
224.00 36.85
225.00 36.69
226.00 36.50
227.00 36.28
228.00 36.05
229.00 35.80
230.00 35.54
231.00 35.27
232.00 35.00
233.00 34.72
234.00 34.45
235.00 34.17
236.00 33.89
237.00 33.62
238.00 33.34
239.00 33.07
240.00 32.79
241.00 32.51
242.00 32.23
243.00 31.95
244.00 31.67
245.00 31.39
246.00 31.10
247.00 30.80
248.00 30.51
249.00 30.20
250.00 29.89
251.00 29.57
252.00 29.25
253.00 28.92
254.00 28.58
255.00 28.23
256.00 27.88
257.00 27.51
258.00 27.14
259.00 26.77
260.00 26.38
261.00 25.99
262.00 25.59
263.00 25.18
264.00 24.77
265.00 24.35
266.00 23.93
267.00 23.51
268.00 23.08
269.00 22.65
270.00 22.22
271.00 21.79
272.00 21.37
273.00 20.94
274.00 20.51
275.00 20.08
276.00 19.66
277.00 19.24
278.00 18.82
279.00 18.41
280.00 18.00
281.00 17.59
282.00 17.19
283.00 16.79
284.00 16.39
285.00 16.00
286.00 15.62
287.00 15.24
288.00 14.86
289.00 14.49
290.00 14.12
291.00 13.76
292.00 13.40
293.00 13.05
294.00 12.70
295.00 12.35
296.00 12.01
297.00 11.67
298.00 11.34
299.00 11.01
300.00 10.69
301.00 10.37
302.00 10.05
303.00 9.74
304.00 9.43
305.00 9.13
306.00 8.83
307.00 8.53
308.00 8.24
309.00 7.95
310.00 7.67
311.00 7.39
312.00 7.12
313.00 6.85
314.00 6.58
315.00 6.32
316.00 6.06
317.00 5.81
318.00 5.57
319.00 5.32
320.00 5.08
321.00 4.85
322.00 4.62
323.00 4.40
324.00 4.18
325.00 3.97
326.00 3.76
327.00 3.55
328.00 3.36
329.00 3.16
330.00 2.97
331.00 2.79
332.00 2.62
333.00 2.45
334.00 2.28
335.00 2.12
336.00 1.96
337.00 1.82
338.00 1.67
339.00 1.53
340.00 1.40
341.00 1.28
342.00 1.16
343.00 1.04
344.00 0.93
345.00 0.83
346.00 0.73
347.00 0.64
348.00 0.56
349.00 0.48
350.00 0.41
351.00 0.34
352.00 0.28
353.00 0.22
354.00 0.17
355.00 0.13
356.00 0.09
357.00 0.06
358.00 0.04
359.00 0.02
VERTICAL 360
0.00 14.23
1.00 10.07
2.00 6.99
3.00 4.66
4.00 2.88
5.00 1.57
6.00 0.67
7.00 0.15
8.00 0.00
9.00 0.20
10.00 0.76
11.00 1.66
12.00 2.94
13.00 4.62
14.00 6.80
15.00 9.61
16.00 13.26
17.00 18.08
18.00 24.12
19.00 27.11
20.00 25.68
21.00 25.37
22.00 26.93
23.00 31.02
24.00 41.73
25.00 35.43
26.00 29.12
27.00 26.61
28.00 25.98
29.00 26.81
30.00 29.09
31.00 33.35
32.00 39.98
33.00 36.63
34.00 31.96
35.00 29.84
36.00 29.50
37.00 31.02
38.00 35.68
39.00 52.86
40.00 35.09
41.00 29.47
42.00 26.54
43.00 24.58
44.00 23.02
45.00 21.76
46.00 20.89
47.00 20.55
48.00 20.84
49.00 21.81
50.00 23.42
51.00 25.56
52.00 28.09
53.00 30.97
54.00 34.62
55.00 39.98
56.00 40.73
57.00 34.85
58.00 31.35
59.00 29.67
60.00 29.27
61.00 29.78
62.00 30.84
63.00 31.96
64.00 32.44
65.00 31.97
66.00 31.05
67.00 30.34
68.00 30.18
69.00 30.68
70.00 31.76
71.00 32.88
72.00 33.11
73.00 32.70
74.00 32.64
75.00 33.27
76.00 34.35
77.00 35.26
78.00 34.30
79.00 31.64
80.00 29.56
81.00 28.88
82.00 29.66
83.00 31.59
84.00 32.63
85.00 30.80
86.00 28.24
87.00 26.48
88.00 25.98
89.00 26.78
90.00 28.73
91.00 31.40
92.00 33.47
93.00 32.97
94.00 31.03
95.00 29.71
96.00 29.27
97.00 29.49
98.00 30.05
99.00 30.68
100.00 31.16
101.00 31.44
102.00 31.65
103.00 31.89
104.00 32.25
105.00 32.95
106.00 34.01
107.00 34.87
108.00 35.09
109.00 34.99
110.00 34.85
111.00 34.78
112.00 35.11
113.00 35.83
114.00 36.43
115.00 36.65
116.00 36.79
117.00 37.02
118.00 37.53
119.00 38.83
120.00 41.12
121.00 43.33
122.00 43.58
123.00 42.56
124.00 41.67
125.00 41.68
126.00 42.69
127.00 43.45
128.00 43.03
129.00 42.80
130.00 43.20
131.00 42.98
132.00 41.11
133.00 38.49
134.00 36.32
135.00 35.12
136.00 34.90
137.00 35.36
138.00 36.09
139.00 36.87
140.00 37.74
141.00 38.81
142.00 40.32
143.00 42.49
144.00 45.09
145.00 47.56
146.00 49.57
147.00 49.42
148.00 47.89
149.00 47.62
150.00 48.70
151.00 49.44
152.00 48.53
153.00 46.76
154.00 45.03
155.00 43.71
156.00 42.45
157.00 41.01
158.00 39.81
159.00 39.18
160.00 38.91
161.00 38.71
162.00 38.67
163.00 39.38
164.00 41.78
165.00 47.96
166.00 47.87
167.00 40.26
168.00 36.49
169.00 34.39
170.00 33.08
171.00 32.17
172.00 31.60
173.00 31.24
174.00 31.47
175.00 32.36
176.00 33.82
177.00 35.47
178.00 36.78
179.00 37.51
180.00 38.12
181.00 39.41
182.00 41.41
183.00 41.69
184.00 39.70
185.00 38.20
186.00 37.63
187.00 37.56
188.00 37.56
189.00 37.26
190.00 36.62
191.00 36.36
192.00 37.25
193.00 39.89
194.00 45.11
195.00 54.61
196.00 50.97
197.00 45.79
198.00 42.60
199.00 40.28
200.00 38.86
201.00 38.50
202.00 39.17
203.00 40.32
204.00 40.80
205.00 40.28
206.00 39.56
207.00 39.06
208.00 38.79
209.00 38.71
210.00 38.99
211.00 39.83
212.00 40.85
213.00 41.09
214.00 40.76
215.00 40.65
216.00 40.43
217.00 39.58
218.00 38.24
219.00 36.56
220.00 34.95
221.00 33.98
222.00 33.89
223.00 34.55
224.00 35.52
225.00 36.03
226.00 35.68
227.00 35.20
228.00 35.61
229.00 37.71
230.00 42.48
231.00 51.80
232.00 48.70
233.00 44.80
234.00 43.09
235.00 41.88
236.00 41.54
237.00 42.67
238.00 44.24
239.00 42.79
240.00 40.50
241.00 39.84
242.00 40.97
243.00 43.79
244.00 47.95
245.00 46.14
246.00 40.35
247.00 36.48
248.00 34.12
249.00 32.68
250.00 31.72
251.00 30.88
252.00 30.11
253.00 29.59
254.00 29.55
255.00 30.02
256.00 30.75
257.00 31.34
258.00 31.42
259.00 30.90
260.00 30.21
261.00 29.83
262.00 29.96
263.00 30.60
264.00 31.80
265.00 33.14
266.00 32.96
267.00 31.24
268.00 29.86
269.00 29.43
270.00 29.92
271.00 31.42
272.00 34.20
273.00 37.94
274.00 38.63
275.00 35.98
276.00 33.84
277.00 32.96
278.00 33.83
279.00 37.38
280.00 45.26
281.00 40.82
282.00 35.75
283.00 33.34
284.00 32.40
285.00 33.06
286.00 35.93
287.00 39.98
288.00 36.46
289.00 32.32
290.00 29.96
291.00 28.80
292.00 28.66
293.00 29.47
294.00 30.77
295.00 31.30
296.00 30.56
297.00 29.65
298.00 29.39
299.00 30.01
300.00 31.26
301.00 32.30
302.00 32.50
303.00 32.56
304.00 33.45
305.00 35.99
306.00 42.58
307.00 49.11
308.00 37.24
309.00 33.38
310.00 32.07
311.00 32.18
312.00 32.97
313.00 33.77
314.00 33.99
315.00 33.26
316.00 31.56
317.00 29.24
318.00 26.87
319.00 24.95
320.00 23.67
321.00 23.06
322.00 23.06
323.00 23.60
324.00 24.62
325.00 26.15
326.00 28.34
327.00 31.77
328.00 38.74
329.00 42.86
330.00 32.95
331.00 28.76
332.00 26.71
333.00 25.99
334.00 26.37
335.00 27.83
336.00 30.40
337.00 34.03
338.00 38.01
339.00 39.99
340.00 39.37
341.00 38.27
342.00 36.19
343.00 32.16
344.00 27.90
345.00 24.55
346.00 22.28
347.00 21.06
348.00 20.89
349.00 21.85
350.00 24.20
351.00 28.64
352.00 34.44
353.00 29.41
354.00 24.96
355.00 22.86
356.00 22.61
357.00 24.40
358.00 26.02
359.00 20.03
