NAME ATR4518R7_1880_X_CO_P45_04T_yL
FREQUENCY 1880
GAIN 14.86 dBd
TILT	ELECTRICAL
COMMENT DATE 05.08.2013 +45 degrees polarized system Lever position 04T deg
HORIZONTAL 360
0.00 0.13
1.00 0.10
2.00 0.07
3.00 0.05
4.00 0.03
5.00 0.01
6.00 0.01
7.00 0.00
8.00 0.01
9.00 0.02
10.00 0.04
11.00 0.06
12.00 0.09
13.00 0.14
14.00 0.18
15.00 0.24
16.00 0.31
17.00 0.38
18.00 0.47
19.00 0.56
20.00 0.66
21.00 0.77
22.00 0.89
23.00 1.01
24.00 1.15
25.00 1.29
26.00 1.43
27.00 1.59
28.00 1.75
29.00 1.91
30.00 2.08
31.00 2.26
32.00 2.44
33.00 2.63
34.00 2.82
35.00 3.01
36.00 3.21
37.00 3.42
38.00 3.62
39.00 3.83
40.00 4.05
41.00 4.26
42.00 4.48
43.00 4.71
44.00 4.93
45.00 5.16
46.00 5.40
47.00 5.63
48.00 5.87
49.00 6.11
50.00 6.35
51.00 6.60
52.00 6.85
53.00 7.10
54.00 7.36
55.00 7.62
56.00 7.87
57.00 8.14
58.00 8.41
59.00 8.67
60.00 8.94
61.00 9.22
62.00 9.50
63.00 9.78
64.00 10.06
65.00 10.34
66.00 10.63
67.00 10.92
68.00 11.21
69.00 11.51
70.00 11.81
71.00 12.10
72.00 12.40
73.00 12.71
74.00 13.01
75.00 13.31
76.00 13.61
77.00 13.91
78.00 14.22
79.00 14.52
80.00 14.83
81.00 15.13
82.00 15.44
83.00 15.75
84.00 16.07
85.00 16.39
86.00 16.72
87.00 17.05
88.00 17.40
89.00 17.75
90.00 18.12
91.00 18.51
92.00 18.92
93.00 19.34
94.00 19.79
95.00 20.26
96.00 20.77
97.00 21.30
98.00 21.86
99.00 22.45
100.00 23.07
101.00 23.73
102.00 24.42
103.00 25.14
104.00 25.87
105.00 26.63
106.00 27.38
107.00 28.13
108.00 28.84
109.00 29.51
110.00 30.11
111.00 30.63
112.00 31.05
113.00 31.39
114.00 31.66
115.00 31.88
116.00 32.06
117.00 32.22
118.00 32.40
119.00 32.58
120.00 32.77
121.00 32.99
122.00 33.22
123.00 33.45
124.00 33.68
125.00 33.87
126.00 34.03
127.00 34.13
128.00 34.16
129.00 34.12
130.00 34.01
131.00 33.84
132.00 33.62
133.00 33.37
134.00 33.12
135.00 32.87
136.00 32.63
137.00 32.41
138.00 32.21
139.00 32.06
140.00 31.94
141.00 31.85
142.00 31.82
143.00 31.83
144.00 31.88
145.00 31.98
146.00 32.15
147.00 32.37
148.00 32.65
149.00 32.99
150.00 33.41
151.00 33.89
152.00 34.44
153.00 35.06
154.00 35.73
155.00 36.42
156.00 37.09
157.00 37.68
158.00 38.12
159.00 38.33
160.00 38.31
161.00 38.07
162.00 37.70
163.00 37.27
164.00 36.85
165.00 36.50
166.00 36.23
167.00 36.08
168.00 36.05
169.00 36.17
170.00 36.44
171.00 36.90
172.00 37.55
173.00 38.44
174.00 39.62
175.00 41.15
176.00 43.13
177.00 45.64
178.00 48.30
179.00 49.04
180.00 46.85
181.00 44.10
182.00 41.83
183.00 40.07
184.00 38.72
185.00 37.68
186.00 36.93
187.00 36.41
188.00 36.10
189.00 36.00
190.00 36.10
191.00 36.41
192.00 36.95
193.00 37.75
194.00 38.84
195.00 40.30
196.00 42.18
197.00 44.42
198.00 46.27
199.00 45.92
200.00 43.60
201.00 41.08
202.00 38.94
203.00 37.22
204.00 35.83
205.00 34.72
206.00 33.84
207.00 33.15
208.00 32.64
209.00 32.30
210.00 32.10
211.00 32.06
212.00 32.16
213.00 32.42
214.00 32.85
215.00 33.47
216.00 34.31
217.00 35.41
218.00 36.88
219.00 38.86
220.00 41.66
221.00 46.10
222.00 54.88
223.00 51.36
224.00 44.15
225.00 40.13
226.00 37.41
227.00 35.37
228.00 33.78
229.00 32.49
230.00 31.43
231.00 30.55
232.00 29.82
233.00 29.23
234.00 28.73
235.00 28.33
236.00 28.02
237.00 27.78
238.00 27.61
239.00 27.49
240.00 27.43
241.00 27.42
242.00 27.45
243.00 27.51
244.00 27.59
245.00 27.67
246.00 27.75
247.00 27.80
248.00 27.82
249.00 27.79
250.00 27.70
251.00 27.53
252.00 27.30
253.00 27.01
254.00 26.66
255.00 26.28
256.00 25.86
257.00 25.43
258.00 24.98
259.00 24.54
260.00 24.10
261.00 23.67
262.00 23.25
263.00 22.84
264.00 22.45
265.00 22.07
266.00 21.70
267.00 21.33
268.00 20.98
269.00 20.63
270.00 20.29
271.00 19.96
272.00 19.63
273.00 19.30
274.00 18.97
275.00 18.64
276.00 18.32
277.00 18.00
278.00 17.68
279.00 17.37
280.00 17.06
281.00 16.75
282.00 16.44
283.00 16.14
284.00 15.85
285.00 15.55
286.00 15.26
287.00 14.98
288.00 14.69
289.00 14.41
290.00 14.14
291.00 13.87
292.00 13.60
293.00 13.34
294.00 13.08
295.00 12.82
296.00 12.56
297.00 12.31
298.00 12.05
299.00 11.81
300.00 11.56
301.00 11.32
302.00 11.08
303.00 10.84
304.00 10.60
305.00 10.36
306.00 10.12
307.00 9.88
308.00 9.64
309.00 9.40
310.00 9.16
311.00 8.91
312.00 8.67
313.00 8.42
314.00 8.16
315.00 7.90
316.00 7.64
317.00 7.37
318.00 7.11
319.00 6.83
320.00 6.56
321.00 6.28
322.00 6.00
323.00 5.73
324.00 5.45
325.00 5.18
326.00 4.91
327.00 4.64
328.00 4.37
329.00 4.12
330.00 3.87
331.00 3.62
332.00 3.39
333.00 3.16
334.00 2.94
335.00 2.73
336.00 2.53
337.00 2.33
338.00 2.15
339.00 1.98
340.00 1.82
341.00 1.66
342.00 1.52
343.00 1.38
344.00 1.26
345.00 1.14
346.00 1.03
347.00 0.93
348.00 0.84
349.00 0.75
350.00 0.67
351.00 0.59
352.00 0.52
353.00 0.46
354.00 0.40
355.00 0.34
356.00 0.29
357.00 0.25
358.00 0.20
359.00 0.16
VERTICAL 360
0.00 5.99
1.00 3.20
2.00 1.36
3.00 0.31
4.00 0.00
5.00 0.42
6.00 1.62
7.00 3.78
8.00 7.39
9.00 13.98
10.00 45.29
11.00 15.97
12.00 12.15
13.00 11.55
14.00 13.07
15.00 17.07
16.00 26.91
17.00 25.28
18.00 18.22
19.00 15.76
20.00 15.32
21.00 16.41
22.00 19.13
23.00 23.30
24.00 23.25
25.00 19.54
26.00 17.39
27.00 16.86
28.00 17.71
29.00 19.98
30.00 23.90
31.00 28.58
32.00 26.89
33.00 23.02
34.00 20.38
35.00 18.67
36.00 17.70
37.00 17.40
38.00 17.70
39.00 18.48
40.00 19.48
41.00 20.31
42.00 20.61
43.00 20.54
44.00 20.58
45.00 21.03
46.00 21.75
47.00 22.34
48.00 22.56
49.00 22.67
50.00 23.14
51.00 24.35
52.00 26.69
53.00 30.82
54.00 36.21
55.00 34.69
56.00 31.96
57.00 31.30
58.00 31.66
59.00 31.60
60.00 30.54
61.00 29.27
62.00 28.45
63.00 28.26
64.00 28.63
65.00 29.34
66.00 30.01
67.00 30.35
68.00 30.34
69.00 30.27
70.00 30.48
71.00 31.19
72.00 32.40
73.00 33.85
74.00 35.13
75.00 35.95
76.00 36.30
77.00 36.45
78.00 36.66
79.00 36.95
80.00 36.96
81.00 36.33
82.00 35.14
83.00 33.92
84.00 33.18
85.00 33.25
86.00 34.16
87.00 35.62
88.00 36.92
89.00 37.72
90.00 38.47
91.00 39.22
92.00 39.41
93.00 39.36
94.00 40.02
95.00 41.53
96.00 42.30
97.00 41.03
98.00 39.49
99.00 38.52
100.00 37.96
101.00 37.74
102.00 37.96
103.00 38.60
104.00 39.32
105.00 39.76
106.00 39.94
107.00 40.09
108.00 40.36
109.00 40.80
110.00 41.03
111.00 40.53
112.00 39.68
113.00 39.20
114.00 39.31
115.00 39.87
116.00 40.64
117.00 41.30
118.00 41.59
119.00 41.85
120.00 42.81
121.00 44.84
122.00 47.42
123.00 48.53
124.00 46.95
125.00 44.07
126.00 41.27
127.00 38.96
128.00 37.10
129.00 35.71
130.00 34.87
131.00 34.56
132.00 34.55
133.00 34.68
134.00 35.22
135.00 36.85
136.00 40.52
137.00 46.74
138.00 44.70
139.00 40.94
140.00 39.62
141.00 39.36
142.00 39.48
143.00 40.25
144.00 42.24
145.00 45.17
146.00 46.62
147.00 46.82
148.00 49.65
149.00 55.51
150.00 46.29
151.00 41.49
152.00 39.68
153.00 39.20
154.00 38.24
155.00 36.75
156.00 36.17
157.00 36.89
158.00 37.53
159.00 36.49
160.00 35.47
161.00 35.47
162.00 35.52
163.00 34.53
164.00 33.51
165.00 33.19
166.00 33.13
167.00 32.78
168.00 32.69
169.00 33.79
170.00 36.79
171.00 42.36
172.00 45.60
173.00 41.57
174.00 38.57
175.00 36.72
176.00 36.41
177.00 38.44
178.00 44.46
179.00 45.91
180.00 39.95
181.00 38.24
182.00 38.77
183.00 39.84
184.00 40.50
185.00 42.04
186.00 46.45
187.00 55.32
188.00 48.67
189.00 44.81
190.00 43.88
191.00 45.02
192.00 47.67
193.00 46.53
194.00 42.88
195.00 41.02
196.00 40.30
197.00 39.28
198.00 38.06
199.00 37.83
200.00 39.24
201.00 42.30
202.00 45.35
203.00 46.39
204.00 46.99
205.00 44.94
206.00 41.30
207.00 39.13
208.00 38.87
209.00 40.98
210.00 46.04
211.00 42.15
212.00 36.45
213.00 33.66
214.00 32.73
215.00 33.08
216.00 34.11
217.00 35.10
218.00 35.65
219.00 35.94
220.00 36.13
221.00 36.26
222.00 36.44
223.00 36.88
224.00 37.74
225.00 39.14
226.00 40.82
227.00 41.15
228.00 39.45
229.00 38.10
230.00 38.49
231.00 41.38
232.00 49.10
233.00 51.60
234.00 43.46
235.00 39.92
236.00 37.80
237.00 36.71
238.00 36.75
239.00 38.00
240.00 40.52
241.00 44.71
242.00 53.35
243.00 54.90
244.00 45.01
245.00 41.06
246.00 39.65
247.00 40.22
248.00 41.98
249.00 41.82
250.00 39.69
251.00 38.52
252.00 38.68
253.00 39.62
254.00 40.17
255.00 39.37
256.00 38.13
257.00 37.89
258.00 39.57
259.00 44.55
260.00 54.62
261.00 45.28
262.00 41.25
263.00 39.53
264.00 38.27
265.00 36.72
266.00 34.98
267.00 33.51
268.00 32.58
269.00 32.22
270.00 32.26
271.00 32.38
272.00 32.28
273.00 31.94
274.00 31.65
275.00 31.66
276.00 32.04
277.00 32.63
278.00 33.01
279.00 32.89
280.00 32.48
281.00 32.26
282.00 32.42
283.00 32.32
284.00 31.16
285.00 29.42
286.00 28.05
287.00 27.40
288.00 27.45
289.00 27.98
290.00 28.72
291.00 29.33
292.00 29.52
293.00 29.23
294.00 28.97
295.00 29.44
296.00 31.18
297.00 34.05
298.00 34.75
299.00 32.01
300.00 29.64
301.00 28.07
302.00 26.83
303.00 25.62
304.00 24.51
305.00 23.84
306.00 23.97
307.00 25.32
308.00 28.44
309.00 34.24
310.00 35.26
311.00 29.90
312.00 26.89
313.00 25.24
314.00 24.33
315.00 23.93
316.00 24.10
317.00 25.05
318.00 27.08
319.00 30.64
320.00 34.56
321.00 31.68
322.00 27.24
323.00 23.96
324.00 21.44
325.00 19.49
326.00 18.11
327.00 17.40
328.00 17.48
329.00 18.45
330.00 20.51
331.00 24.17
332.00 31.53
333.00 38.27
334.00 26.91
335.00 22.48
336.00 20.29
337.00 19.68
338.00 20.87
339.00 25.16
340.00 50.11
341.00 25.26
342.00 19.69
343.00 17.60
344.00 17.57
345.00 19.61
346.00 25.26
347.00 42.35
348.00 23.32
349.00 18.96
350.00 17.75
351.00 18.84
352.00 22.76
353.00 34.10
354.00 30.67
355.00 25.86
356.00 29.42
357.00 28.42
358.00 16.28
359.00 10.07
