NAME ATR4518R7_2535_X_CO_P45_08T_yyR
FREQUENCY 2535
GAIN 15.17 dBd
TILT	ELECTRICAL
COMMENT DATE 05.08.2013 +45 degrees polarized system Lever position 08T deg
HORIZONTAL 360
0.00 0.03
1.00 0.06
2.00 0.11
3.00 0.16
4.00 0.23
5.00 0.30
6.00 0.38
7.00 0.47
8.00 0.56
9.00 0.66
10.00 0.76
11.00 0.86
12.00 0.97
13.00 1.07
14.00 1.17
15.00 1.27
16.00 1.37
17.00 1.46
18.00 1.55
19.00 1.64
20.00 1.73
21.00 1.82
22.00 1.91
23.00 2.01
24.00 2.11
25.00 2.21
26.00 2.32
27.00 2.44
28.00 2.57
29.00 2.71
30.00 2.87
31.00 3.03
32.00 3.22
33.00 3.41
34.00 3.63
35.00 3.85
36.00 4.10
37.00 4.36
38.00 4.64
39.00 4.93
40.00 5.24
41.00 5.56
42.00 5.90
43.00 6.25
44.00 6.62
45.00 7.00
46.00 7.38
47.00 7.78
48.00 8.18
49.00 8.59
50.00 9.00
51.00 9.41
52.00 9.83
53.00 10.24
54.00 10.66
55.00 11.07
56.00 11.47
57.00 11.88
58.00 12.28
59.00 12.68
60.00 13.07
61.00 13.46
62.00 13.85
63.00 14.24
64.00 14.63
65.00 15.02
66.00 15.41
67.00 15.80
68.00 16.20
69.00 16.60
70.00 17.01
71.00 17.44
72.00 17.87
73.00 18.32
74.00 18.78
75.00 19.26
76.00 19.76
77.00 20.27
78.00 20.80
79.00 21.35
80.00 21.91
81.00 22.47
82.00 23.04
83.00 23.60
84.00 24.15
85.00 24.67
86.00 25.14
87.00 25.57
88.00 25.94
89.00 26.25
90.00 26.51
91.00 26.73
92.00 26.91
93.00 27.08
94.00 27.24
95.00 27.42
96.00 27.61
97.00 27.84
98.00 28.11
99.00 28.41
100.00 28.75
101.00 29.13
102.00 29.53
103.00 29.95
104.00 30.36
105.00 30.76
106.00 31.12
107.00 31.42
108.00 31.67
109.00 31.86
110.00 32.00
111.00 32.12
112.00 32.24
113.00 32.39
114.00 32.60
115.00 32.88
116.00 33.26
117.00 33.76
118.00 34.41
119.00 35.23
120.00 36.27
121.00 37.57
122.00 39.22
123.00 41.35
124.00 44.22
125.00 48.38
126.00 54.63
127.00 54.49
128.00 48.91
129.00 45.43
130.00 43.20
131.00 41.71
132.00 40.73
133.00 40.13
134.00 39.86
135.00 39.87
136.00 40.15
137.00 40.72
138.00 41.59
139.00 42.80
140.00 44.46
141.00 46.72
142.00 49.97
143.00 55.25
144.00 68.53
145.00 59.47
146.00 52.92
147.00 49.60
148.00 47.55
149.00 46.21
150.00 45.32
151.00 44.73
152.00 44.33
153.00 44.00
154.00 43.63
155.00 43.14
156.00 42.48
157.00 41.67
158.00 40.77
159.00 39.85
160.00 38.96
161.00 38.15
162.00 37.44
163.00 36.84
164.00 36.36
165.00 35.99
166.00 35.74
167.00 35.60
168.00 35.57
169.00 35.65
170.00 35.85
171.00 36.16
172.00 36.58
173.00 37.13
174.00 37.82
175.00 38.66
176.00 39.68
177.00 40.94
178.00 42.52
179.00 44.56
180.00 47.30
181.00 51.06
182.00 54.37
183.00 51.48
184.00 47.18
185.00 43.93
186.00 41.46
187.00 39.51
188.00 37.92
189.00 36.60
190.00 35.51
191.00 34.60
192.00 33.85
193.00 33.24
194.00 32.77
195.00 32.42
196.00 32.19
197.00 32.06
198.00 32.03
199.00 32.10
200.00 32.24
201.00 32.44
202.00 32.66
203.00 32.88
204.00 33.05
205.00 33.12
206.00 33.05
207.00 32.83
208.00 32.49
209.00 32.05
210.00 31.56
211.00 31.07
212.00 30.61
213.00 30.21
214.00 29.87
215.00 29.61
216.00 29.44
217.00 29.37
218.00 29.38
219.00 29.50
220.00 29.71
221.00 30.01
222.00 30.42
223.00 30.92
224.00 31.51
225.00 32.19
226.00 32.94
227.00 33.74
228.00 34.54
229.00 35.29
230.00 35.91
231.00 36.34
232.00 36.54
233.00 36.54
234.00 36.39
235.00 36.14
236.00 35.88
237.00 35.64
238.00 35.46
239.00 35.34
240.00 35.30
241.00 35.32
242.00 35.41
243.00 35.57
244.00 35.77
245.00 36.02
246.00 36.31
247.00 36.63
248.00 36.98
249.00 37.36
250.00 37.77
251.00 38.21
252.00 38.70
253.00 39.24
254.00 39.84
255.00 40.50
256.00 41.17
257.00 41.80
258.00 42.27
259.00 42.39
260.00 42.03
261.00 41.18
262.00 40.02
263.00 38.70
264.00 37.37
265.00 36.08
266.00 34.86
267.00 33.72
268.00 32.65
269.00 31.66
270.00 30.73
271.00 29.85
272.00 29.02
273.00 28.23
274.00 27.47
275.00 26.73
276.00 26.02
277.00 25.33
278.00 24.66
279.00 24.00
280.00 23.36
281.00 22.73
282.00 22.11
283.00 21.50
284.00 20.90
285.00 20.31
286.00 19.74
287.00 19.17
288.00 18.61
289.00 18.05
290.00 17.51
291.00 16.97
292.00 16.43
293.00 15.91
294.00 15.39
295.00 14.87
296.00 14.37
297.00 13.86
298.00 13.36
299.00 12.87
300.00 12.38
301.00 11.90
302.00 11.43
303.00 10.96
304.00 10.50
305.00 10.05
306.00 9.60
307.00 9.17
308.00 8.74
309.00 8.32
310.00 7.92
311.00 7.53
312.00 7.14
313.00 6.77
314.00 6.42
315.00 6.07
316.00 5.74
317.00 5.42
318.00 5.11
319.00 4.82
320.00 4.54
321.00 4.27
322.00 4.02
323.00 3.78
324.00 3.55
325.00 3.34
326.00 3.14
327.00 2.95
328.00 2.77
329.00 2.60
330.00 2.45
331.00 2.30
332.00 2.16
333.00 2.03
334.00 1.91
335.00 1.79
336.00 1.67
337.00 1.57
338.00 1.46
339.00 1.36
340.00 1.25
341.00 1.15
342.00 1.05
343.00 0.95
344.00 0.86
345.00 0.76
346.00 0.67
347.00 0.58
348.00 0.49
349.00 0.41
350.00 0.33
351.00 0.25
352.00 0.19
353.00 0.13
354.00 0.09
355.00 0.05
356.00 0.02
357.00 0.01
358.00 0.01
359.00 0.01
VERTICAL 360
0.00 19.89
1.00 20.18
2.00 18.05
3.00 13.33
4.00 8.64
5.00 4.90
6.00 2.21
7.00 0.58
8.00 0.00
9.00 0.55
10.00 2.41
11.00 6.16
12.00 14.06
13.00 29.16
14.00 13.77
15.00 11.71
16.00 13.32
17.00 19.09
18.00 26.92
19.00 17.75
20.00 14.66
21.00 14.96
22.00 18.69
23.00 27.62
24.00 23.71
25.00 19.96
26.00 21.29
27.00 28.99
28.00 31.99
29.00 22.50
30.00 19.80
31.00 19.65
32.00 21.26
33.00 24.23
34.00 26.90
35.00 26.64
36.00 25.84
37.00 27.43
38.00 32.45
39.00 28.19
40.00 22.67
41.00 20.89
42.00 21.70
43.00 24.74
44.00 29.55
45.00 32.46
46.00 28.97
47.00 25.16
48.00 23.41
49.00 24.09
50.00 27.89
51.00 39.99
52.00 38.72
53.00 31.62
54.00 28.92
55.00 26.35
56.00 24.33
57.00 23.89
58.00 25.12
59.00 26.61
60.00 26.47
61.00 26.17
62.00 26.99
63.00 28.56
64.00 29.99
65.00 31.04
66.00 32.82
67.00 36.55
68.00 42.62
69.00 49.80
70.00 56.92
71.00 58.19
72.00 50.15
73.00 43.09
74.00 41.45
75.00 43.81
76.00 41.77
77.00 37.98
78.00 38.99
79.00 46.43
80.00 39.92
81.00 34.20
82.00 31.62
83.00 29.77
84.00 28.52
85.00 27.68
86.00 26.87
87.00 27.07
88.00 29.90
89.00 38.10
90.00 56.83
91.00 38.47
92.00 31.32
93.00 27.88
94.00 28.01
95.00 31.35
96.00 35.60
97.00 34.89
98.00 31.17
99.00 28.79
100.00 29.57
101.00 34.10
102.00 38.09
103.00 38.37
104.00 48.62
105.00 42.60
106.00 38.01
107.00 40.24
108.00 46.14
109.00 56.92
110.00 47.57
111.00 41.27
112.00 39.46
113.00 37.73
114.00 36.59
115.00 37.01
116.00 37.28
117.00 37.04
118.00 38.14
119.00 40.24
120.00 39.09
121.00 36.21
122.00 35.65
123.00 37.30
124.00 37.74
125.00 36.20
126.00 35.01
127.00 33.97
128.00 34.06
129.00 35.72
130.00 37.79
131.00 40.76
132.00 40.48
133.00 36.09
134.00 35.68
135.00 37.51
136.00 35.61
137.00 34.01
138.00 35.37
139.00 38.86
140.00 43.78
141.00 46.65
142.00 41.23
143.00 38.69
144.00 37.81
145.00 37.42
146.00 38.03
147.00 39.14
148.00 38.97
149.00 37.39
150.00 36.17
151.00 36.46
152.00 37.59
153.00 37.73
154.00 37.91
155.00 39.67
156.00 43.16
157.00 47.11
158.00 44.25
159.00 41.41
160.00 41.66
161.00 41.46
162.00 40.31
163.00 42.98
164.00 54.50
165.00 44.73
166.00 42.31
167.00 46.15
168.00 50.71
169.00 46.09
170.00 42.21
171.00 40.51
172.00 41.69
173.00 40.91
174.00 37.07
175.00 35.55
176.00 36.12
177.00 37.59
178.00 38.35
179.00 38.70
180.00 39.94
181.00 39.72
182.00 37.41
183.00 37.01
184.00 39.63
185.00 45.58
186.00 46.03
187.00 40.69
188.00 37.93
189.00 37.06
190.00 37.41
191.00 36.30
192.00 32.87
193.00 30.62
194.00 30.67
195.00 33.32
196.00 38.20
197.00 39.91
198.00 39.39
199.00 40.05
200.00 38.93
201.00 38.14
202.00 38.87
203.00 39.80
204.00 41.26
205.00 43.49
206.00 43.47
207.00 42.15
208.00 41.66
209.00 43.92
210.00 52.62
211.00 47.68
212.00 43.44
213.00 43.40
214.00 45.73
215.00 53.97
216.00 44.43
217.00 39.27
218.00 38.78
219.00 40.30
220.00 40.64
221.00 39.16
222.00 38.25
223.00 39.24
224.00 41.58
225.00 40.46
226.00 36.29
227.00 33.23
228.00 32.08
229.00 32.68
230.00 34.06
231.00 34.77
232.00 34.63
233.00 34.36
234.00 34.42
235.00 34.45
236.00 34.14
237.00 34.15
238.00 35.14
239.00 37.38
240.00 40.28
241.00 41.92
242.00 44.75
243.00 53.18
244.00 45.02
245.00 41.43
246.00 43.02
247.00 44.73
248.00 39.81
249.00 37.60
250.00 38.84
251.00 42.43
252.00 43.16
253.00 38.96
254.00 35.75
255.00 35.69
256.00 40.25
257.00 46.86
258.00 41.14
259.00 41.01
260.00 43.53
261.00 45.12
262.00 42.89
263.00 37.89
264.00 35.59
265.00 35.64
266.00 37.37
267.00 40.46
268.00 40.11
269.00 37.36
270.00 37.03
271.00 37.48
272.00 36.02
273.00 33.65
274.00 32.03
275.00 31.86
276.00 32.97
277.00 34.32
278.00 34.54
279.00 33.04
280.00 31.95
281.00 32.81
282.00 35.17
283.00 36.05
284.00 33.48
285.00 30.29
286.00 28.61
287.00 28.73
288.00 30.34
289.00 32.88
290.00 35.86
291.00 38.74
292.00 39.54
293.00 37.66
294.00 37.30
295.00 39.58
296.00 38.33
297.00 33.60
298.00 29.66
299.00 25.85
300.00 22.26
301.00 19.27
302.00 16.82
303.00 14.75
304.00 13.01
305.00 11.67
306.00 10.79
307.00 10.45
308.00 10.65
309.00 11.43
310.00 12.89
311.00 15.22
312.00 18.71
313.00 22.98
314.00 22.74
315.00 19.27
316.00 17.68
317.00 18.08
318.00 20.73
319.00 26.55
320.00 28.81
321.00 23.43
322.00 21.25
323.00 21.63
324.00 24.99
325.00 30.72
326.00 25.09
327.00 20.87
328.00 20.02
329.00 22.18
330.00 31.48
331.00 30.72
332.00 20.88
333.00 17.71
334.00 17.59
335.00 21.39
336.00 31.93
337.00 19.43
338.00 14.01
339.00 11.60
340.00 11.04
341.00 12.00
342.00 14.54
343.00 19.17
344.00 27.65
345.00 30.16
346.00 26.00
347.00 27.92
348.00 30.75
349.00 27.15
350.00 25.30
351.00 26.44
352.00 30.13
353.00 34.55
354.00 37.21
355.00 36.81
356.00 27.93
357.00 22.77
358.00 20.33
359.00 19.59
