NAME ATR4518R7_0832_X_CO_P45_01T
FREQUENCY 0832
GAIN 14.35 dBd
TILT	ELECTRICAL
COMMENT DATE 05.08.2013 +45 degrees polarized system Lever position 01T deg
HORIZONTAL 360
0.00 0.00
1.00 0.00
2.00 0.01
3.00 0.02
4.00 0.04
5.00 0.06
6.00 0.09
7.00 0.13
8.00 0.17
9.00 0.22
10.00 0.27
11.00 0.33
12.00 0.39
13.00 0.46
14.00 0.54
15.00 0.62
16.00 0.71
17.00 0.80
18.00 0.90
19.00 1.00
20.00 1.11
21.00 1.23
22.00 1.35
23.00 1.47
24.00 1.61
25.00 1.74
26.00 1.89
27.00 2.04
28.00 2.19
29.00 2.35
30.00 2.52
31.00 2.69
32.00 2.87
33.00 3.05
34.00 3.24
35.00 3.43
36.00 3.63
37.00 3.83
38.00 4.04
39.00 4.26
40.00 4.48
41.00 4.71
42.00 4.93
43.00 5.17
44.00 5.41
45.00 5.66
46.00 5.91
47.00 6.17
48.00 6.43
49.00 6.70
50.00 6.97
51.00 7.24
52.00 7.53
53.00 7.81
54.00 8.10
55.00 8.40
56.00 8.69
57.00 9.00
58.00 9.31
59.00 9.62
60.00 9.93
61.00 10.25
62.00 10.58
63.00 10.90
64.00 11.23
65.00 11.56
66.00 11.90
67.00 12.24
68.00 12.58
69.00 12.93
70.00 13.27
71.00 13.62
72.00 13.97
73.00 14.33
74.00 14.69
75.00 15.04
76.00 15.40
77.00 15.76
78.00 16.13
79.00 16.49
80.00 16.86
81.00 17.23
82.00 17.59
83.00 17.97
84.00 18.34
85.00 18.71
86.00 19.08
87.00 19.46
88.00 19.83
89.00 20.21
90.00 20.59
91.00 20.97
92.00 21.35
93.00 21.73
94.00 22.12
95.00 22.50
96.00 22.88
97.00 23.27
98.00 23.65
99.00 24.04
100.00 24.43
101.00 24.81
102.00 25.20
103.00 25.58
104.00 25.97
105.00 26.35
106.00 26.73
107.00 27.10
108.00 27.47
109.00 27.84
110.00 28.20
111.00 28.56
112.00 28.92
113.00 29.26
114.00 29.60
115.00 29.92
116.00 30.24
117.00 30.55
118.00 30.86
119.00 31.15
120.00 31.44
121.00 31.71
122.00 31.98
123.00 32.25
124.00 32.50
125.00 32.75
126.00 32.99
127.00 33.24
128.00 33.47
129.00 33.71
130.00 33.95
131.00 34.19
132.00 34.42
133.00 34.67
134.00 34.91
135.00 35.16
136.00 35.42
137.00 35.68
138.00 35.95
139.00 36.23
140.00 36.51
141.00 36.81
142.00 37.11
143.00 37.42
144.00 37.75
145.00 38.08
146.00 38.43
147.00 38.78
148.00 39.15
149.00 39.52
150.00 39.91
151.00 40.31
152.00 40.71
153.00 41.14
154.00 41.56
155.00 42.00
156.00 42.45
157.00 42.93
158.00 43.39
159.00 43.88
160.00 44.38
161.00 44.88
162.00 45.41
163.00 45.94
164.00 46.48
165.00 47.05
166.00 47.58
167.00 48.13
168.00 48.64
169.00 49.13
170.00 49.53
171.00 49.87
172.00 50.09
173.00 50.13
174.00 50.04
175.00 49.80
176.00 49.41
177.00 48.94
178.00 48.34
179.00 47.72
180.00 47.06
181.00 46.44
182.00 45.79
183.00 45.15
184.00 44.55
185.00 43.97
186.00 43.40
187.00 42.86
188.00 42.37
189.00 41.87
190.00 41.41
191.00 40.99
192.00 40.58
193.00 40.19
194.00 39.82
195.00 39.48
196.00 39.15
197.00 38.85
198.00 38.56
199.00 38.29
200.00 38.04
201.00 37.80
202.00 37.58
203.00 37.37
204.00 37.17
205.00 36.99
206.00 36.82
207.00 36.67
208.00 36.52
209.00 36.39
210.00 36.26
211.00 36.14
212.00 36.04
213.00 35.94
214.00 35.85
215.00 35.77
216.00 35.69
217.00 35.63
218.00 35.56
219.00 35.51
220.00 35.46
221.00 35.41
222.00 35.37
223.00 35.33
224.00 35.29
225.00 35.25
226.00 35.20
227.00 35.15
228.00 35.10
229.00 35.03
230.00 34.95
231.00 34.85
232.00 34.74
233.00 34.60
234.00 34.43
235.00 34.23
236.00 34.00
237.00 33.73
238.00 33.43
239.00 33.10
240.00 32.73
241.00 32.33
242.00 31.91
243.00 31.46
244.00 30.99
245.00 30.50
246.00 30.00
247.00 29.50
248.00 28.98
249.00 28.47
250.00 27.96
251.00 27.44
252.00 26.93
253.00 26.43
254.00 25.93
255.00 25.44
256.00 24.96
257.00 24.48
258.00 24.02
259.00 23.56
260.00 23.11
261.00 22.68
262.00 22.25
263.00 21.84
264.00 21.43
265.00 21.03
266.00 20.64
267.00 20.25
268.00 19.88
269.00 19.51
270.00 19.15
271.00 18.80
272.00 18.45
273.00 18.11
274.00 17.78
275.00 17.45
276.00 17.13
277.00 16.81
278.00 16.49
279.00 16.18
280.00 15.88
281.00 15.57
282.00 15.27
283.00 14.97
284.00 14.67
285.00 14.38
286.00 14.08
287.00 13.79
288.00 13.49
289.00 13.20
290.00 12.91
291.00 12.62
292.00 12.33
293.00 12.04
294.00 11.74
295.00 11.45
296.00 11.16
297.00 10.87
298.00 10.58
299.00 10.29
300.00 10.00
301.00 9.71
302.00 9.43
303.00 9.14
304.00 8.86
305.00 8.58
306.00 8.30
307.00 8.02
308.00 7.74
309.00 7.47
310.00 7.20
311.00 6.93
312.00 6.67
313.00 6.41
314.00 6.15
315.00 5.90
316.00 5.65
317.00 5.40
318.00 5.17
319.00 4.93
320.00 4.70
321.00 4.47
322.00 4.25
323.00 4.04
324.00 3.83
325.00 3.62
326.00 3.42
327.00 3.22
328.00 3.04
329.00 2.85
330.00 2.67
331.00 2.50
332.00 2.33
333.00 2.17
334.00 2.01
335.00 1.86
336.00 1.72
337.00 1.58
338.00 1.45
339.00 1.32
340.00 1.20
341.00 1.08
342.00 0.97
343.00 0.87
344.00 0.77
345.00 0.68
346.00 0.59
347.00 0.51
348.00 0.44
349.00 0.37
350.00 0.31
351.00 0.25
352.00 0.20
353.00 0.15
354.00 0.11
355.00 0.08
356.00 0.05
357.00 0.03
358.00 0.01
359.00 0.00
VERTICAL 360
0.00 0.21
1.00 0.00
2.00 0.11
3.00 0.56
4.00 1.36
5.00 2.55
6.00 4.17
7.00 6.32
8.00 9.15
9.00 12.97
10.00 18.63
11.00 30.04
12.00 29.90
13.00 23.31
14.00 21.79
15.00 22.61
16.00 25.81
17.00 33.89
18.00 33.26
19.00 25.32
20.00 21.84
21.00 20.18
22.00 19.66
23.00 20.02
24.00 21.17
25.00 23.01
26.00 25.15
27.00 26.39
28.00 25.86
29.00 24.82
30.00 24.39
31.00 25.03
32.00 27.25
33.00 32.62
34.00 40.23
35.00 28.62
36.00 23.17
37.00 19.85
38.00 17.57
39.00 15.92
40.00 14.74
41.00 13.94
42.00 13.49
43.00 13.39
44.00 13.64
45.00 14.23
46.00 15.17
47.00 16.43
48.00 17.92
49.00 19.57
50.00 21.26
51.00 22.94
52.00 24.69
53.00 26.69
54.00 29.07
55.00 31.67
56.00 33.52
57.00 33.79
58.00 33.55
59.00 33.85
60.00 34.80
61.00 35.82
62.00 35.87
63.00 34.76
64.00 33.26
65.00 32.02
66.00 31.29
67.00 31.13
68.00 31.35
69.00 31.50
70.00 31.22
71.00 30.70
72.00 30.27
73.00 30.03
74.00 29.90
75.00 29.85
76.00 29.94
77.00 30.04
78.00 29.72
79.00 28.81
80.00 27.75
81.00 27.02
82.00 26.83
83.00 27.15
84.00 27.91
85.00 28.92
86.00 29.89
87.00 30.37
88.00 30.20
89.00 29.78
90.00 29.48
91.00 29.23
92.00 28.74
93.00 27.97
94.00 27.28
95.00 27.02
96.00 27.36
97.00 28.27
98.00 29.57
99.00 30.93
100.00 31.94
101.00 32.31
102.00 32.18
103.00 32.00
104.00 32.16
105.00 32.85
106.00 34.07
107.00 35.64
108.00 37.17
109.00 38.20
110.00 38.43
111.00 38.00
112.00 37.44
113.00 37.21
114.00 37.47
115.00 38.17
116.00 39.14
117.00 40.21
118.00 41.14
119.00 41.38
120.00 40.68
121.00 39.71
122.00 39.17
123.00 39.37
124.00 40.38
125.00 42.27
126.00 45.12
127.00 48.55
128.00 49.05
129.00 45.82
130.00 42.60
131.00 39.83
132.00 37.28
133.00 34.92
134.00 32.87
135.00 31.22
136.00 30.05
137.00 29.39
138.00 29.28
139.00 29.75
140.00 30.91
141.00 32.88
142.00 35.98
143.00 40.89
144.00 46.00
145.00 41.56
146.00 37.41
147.00 34.96
148.00 33.52
149.00 32.78
150.00 32.59
151.00 32.84
152.00 33.45
153.00 34.39
154.00 35.66
155.00 37.36
156.00 39.81
157.00 43.53
158.00 48.73
159.00 48.59
160.00 44.47
161.00 42.04
162.00 40.93
163.00 40.68
164.00 40.98
165.00 41.68
166.00 42.84
167.00 44.91
168.00 49.09
169.00 61.23
170.00 50.94
171.00 44.25
172.00 40.93
173.00 39.19
174.00 38.44
175.00 39.03
176.00 40.51
177.00 42.22
178.00 44.21
179.00 46.74
180.00 47.30
181.00 47.86
182.00 46.73
183.00 44.89
184.00 43.80
185.00 44.09
186.00 45.64
187.00 47.22
188.00 46.04
189.00 43.00
190.00 40.11
191.00 37.71
192.00 35.83
193.00 34.49
194.00 33.72
195.00 33.48
196.00 33.73
197.00 34.46
198.00 35.69
199.00 37.42
200.00 39.61
201.00 41.95
202.00 43.63
203.00 43.46
204.00 41.67
205.00 39.80
206.00 38.78
207.00 39.02
208.00 41.02
209.00 46.22
210.00 60.61
211.00 45.70
212.00 40.83
213.00 38.74
214.00 37.92
215.00 37.70
216.00 37.59
217.00 37.34
218.00 36.95
219.00 36.51
220.00 35.96
221.00 35.18
222.00 34.20
223.00 33.26
224.00 32.61
225.00 32.40
226.00 32.63
227.00 33.19
228.00 33.88
229.00 34.46
230.00 34.82
231.00 35.04
232.00 35.34
233.00 35.92
234.00 36.71
235.00 37.11
236.00 36.48
237.00 35.23
238.00 34.16
239.00 33.59
240.00 33.44
241.00 33.54
242.00 33.72
243.00 33.95
244.00 34.20
245.00 34.47
246.00 34.71
247.00 35.01
248.00 35.52
249.00 36.33
250.00 37.35
251.00 38.32
252.00 38.81
253.00 38.64
254.00 38.05
255.00 37.55
256.00 37.46
257.00 37.94
258.00 38.95
259.00 40.28
260.00 41.50
261.00 42.11
262.00 41.93
263.00 41.31
264.00 40.72
265.00 40.43
266.00 40.28
267.00 39.87
268.00 39.05
269.00 38.20
270.00 37.70
271.00 37.67
272.00 37.98
273.00 38.46
274.00 38.99
275.00 39.49
276.00 39.68
277.00 39.06
278.00 37.72
279.00 36.30
280.00 35.22
281.00 34.61
282.00 34.42
283.00 34.59
284.00 35.08
285.00 35.88
286.00 36.94
287.00 38.16
288.00 39.23
289.00 39.74
290.00 39.54
291.00 38.90
292.00 38.21
293.00 37.69
294.00 37.37
295.00 37.11
296.00 36.44
297.00 34.95
298.00 32.74
299.00 30.33
300.00 28.05
301.00 26.00
302.00 24.17
303.00 22.53
304.00 21.03
305.00 19.65
306.00 18.37
307.00 17.23
308.00 16.26
309.00 15.49
310.00 14.94
311.00 14.64
312.00 14.59
313.00 14.80
314.00 15.27
315.00 15.96
316.00 16.85
317.00 17.91
318.00 19.13
319.00 20.50
320.00 22.07
321.00 23.92
322.00 26.18
323.00 28.93
324.00 32.19
325.00 35.68
326.00 38.94
327.00 42.60
328.00 48.33
329.00 44.22
330.00 38.10
331.00 34.54
332.00 32.22
333.00 30.36
334.00 28.57
335.00 26.84
336.00 25.37
337.00 24.34
338.00 23.83
339.00 23.91
340.00 24.69
341.00 26.35
342.00 29.23
343.00 32.98
344.00 31.80
345.00 27.50
346.00 24.63
347.00 23.29
348.00 23.57
349.00 26.42
350.00 39.30
351.00 25.78
352.00 17.56
353.00 12.67
354.00 9.18
355.00 6.52
356.00 4.45
357.00 2.84
358.00 1.62
359.00 0.75
