NAME ATR4518R7_2350_X_CO_P45_04T_yL
FREQUENCY 2350
GAIN 15.47 dBd
TILT	ELECTRICAL
COMMENT DATE 05.08.2013 +45 degrees polarized system Lever position 04T deg
HORIZONTAL 360
0.00 0.03
1.00 0.01
2.00 0.00
3.00 0.00
4.00 0.02
5.00 0.05
6.00 0.10
7.00 0.16
8.00 0.23
9.00 0.30
10.00 0.39
11.00 0.48
12.00 0.58
13.00 0.68
14.00 0.78
15.00 0.88
16.00 0.98
17.00 1.08
18.00 1.18
19.00 1.27
20.00 1.37
21.00 1.46
22.00 1.54
23.00 1.64
24.00 1.72
25.00 1.82
26.00 1.91
27.00 2.02
28.00 2.13
29.00 2.24
30.00 2.37
31.00 2.51
32.00 2.66
33.00 2.82
34.00 2.99
35.00 3.17
36.00 3.37
37.00 3.57
38.00 3.79
39.00 4.02
40.00 4.26
41.00 4.50
42.00 4.76
43.00 5.02
44.00 5.28
45.00 5.55
46.00 5.82
47.00 6.09
48.00 6.36
49.00 6.63
50.00 6.90
51.00 7.17
52.00 7.43
53.00 7.70
54.00 7.96
55.00 8.21
56.00 8.47
57.00 8.72
58.00 8.98
59.00 9.23
60.00 9.49
61.00 9.76
62.00 10.03
63.00 10.30
64.00 10.58
65.00 10.87
66.00 11.17
67.00 11.47
68.00 11.79
69.00 12.12
70.00 12.46
71.00 12.81
72.00 13.17
73.00 13.55
74.00 13.92
75.00 14.31
76.00 14.70
77.00 15.10
78.00 15.50
79.00 15.90
80.00 16.30
81.00 16.69
82.00 17.08
83.00 17.46
84.00 17.84
85.00 18.20
86.00 18.56
87.00 18.90
88.00 19.24
89.00 19.56
90.00 19.88
91.00 20.19
92.00 20.49
93.00 20.80
94.00 21.10
95.00 21.40
96.00 21.70
97.00 22.00
98.00 22.31
99.00 22.61
100.00 22.92
101.00 23.23
102.00 23.54
103.00 23.84
104.00 24.13
105.00 24.40
106.00 24.65
107.00 24.87
108.00 25.06
109.00 25.21
110.00 25.32
111.00 25.39
112.00 25.41
113.00 25.41
114.00 25.37
115.00 25.31
116.00 25.25
117.00 25.18
118.00 25.13
119.00 25.09
120.00 25.08
121.00 25.11
122.00 25.18
123.00 25.30
124.00 25.47
125.00 25.70
126.00 26.00
127.00 26.37
128.00 26.81
129.00 27.33
130.00 27.94
131.00 28.62
132.00 29.41
133.00 30.28
134.00 31.23
135.00 32.25
136.00 33.30
137.00 34.31
138.00 35.17
139.00 35.77
140.00 36.01
141.00 35.91
142.00 35.54
143.00 35.03
144.00 34.49
145.00 33.96
146.00 33.48
147.00 33.07
148.00 32.74
149.00 32.49
150.00 32.31
151.00 32.21
152.00 32.19
153.00 32.25
154.00 32.38
155.00 32.59
156.00 32.86
157.00 33.19
158.00 33.54
159.00 33.88
160.00 34.14
161.00 34.25
162.00 34.16
163.00 33.85
164.00 33.33
165.00 32.69
166.00 31.99
167.00 31.29
168.00 30.65
169.00 30.09
170.00 29.62
171.00 29.27
172.00 29.03
173.00 28.91
174.00 28.91
175.00 29.05
176.00 29.31
177.00 29.71
178.00 30.24
179.00 30.89
180.00 31.65
181.00 32.46
182.00 33.24
183.00 33.84
184.00 34.11
185.00 33.98
186.00 33.52
187.00 32.87
188.00 32.20
189.00 31.58
190.00 31.09
191.00 30.76
192.00 30.59
193.00 30.62
194.00 30.84
195.00 31.28
196.00 31.97
197.00 32.96
198.00 34.32
199.00 36.20
200.00 38.87
201.00 42.86
202.00 48.46
203.00 46.61
204.00 41.28
205.00 37.76
206.00 35.34
207.00 33.59
208.00 32.31
209.00 31.37
210.00 30.71
211.00 30.29
212.00 30.08
213.00 30.07
214.00 30.25
215.00 30.62
216.00 31.19
217.00 31.96
218.00 32.93
219.00 34.08
220.00 35.33
221.00 36.50
222.00 37.21
223.00 37.15
224.00 36.37
225.00 35.25
226.00 34.11
227.00 33.10
228.00 32.27
229.00 31.62
230.00 31.16
231.00 30.87
232.00 30.74
233.00 30.77
234.00 30.95
235.00 31.26
236.00 31.70
237.00 32.25
238.00 32.87
239.00 33.49
240.00 33.99
241.00 34.24
242.00 34.13
243.00 33.64
244.00 32.87
245.00 31.97
246.00 31.03
247.00 30.13
248.00 29.30
249.00 28.57
250.00 27.93
251.00 27.38
252.00 26.91
253.00 26.53
254.00 26.22
255.00 25.97
256.00 25.78
257.00 25.63
258.00 25.52
259.00 25.41
260.00 25.30
261.00 25.16
262.00 24.98
263.00 24.74
264.00 24.44
265.00 24.06
266.00 23.64
267.00 23.16
268.00 22.66
269.00 22.15
270.00 21.65
271.00 21.16
272.00 20.69
273.00 20.26
274.00 19.86
275.00 19.50
276.00 19.17
277.00 18.88
278.00 18.62
279.00 18.38
280.00 18.17
281.00 17.98
282.00 17.79
283.00 17.61
284.00 17.42
285.00 17.21
286.00 16.99
287.00 16.75
288.00 16.47
289.00 16.17
290.00 15.84
291.00 15.49
292.00 15.11
293.00 14.72
294.00 14.32
295.00 13.91
296.00 13.49
297.00 13.08
298.00 12.67
299.00 12.26
300.00 11.86
301.00 11.48
302.00 11.09
303.00 10.72
304.00 10.36
305.00 10.00
306.00 9.65
307.00 9.31
308.00 8.97
309.00 8.63
310.00 8.30
311.00 7.97
312.00 7.64
313.00 7.32
314.00 7.00
315.00 6.69
316.00 6.38
317.00 6.07
318.00 5.78
319.00 5.49
320.00 5.21
321.00 4.94
322.00 4.69
323.00 4.44
324.00 4.21
325.00 3.99
326.00 3.78
327.00 3.58
328.00 3.40
329.00 3.23
330.00 3.07
331.00 2.92
332.00 2.78
333.00 2.64
334.00 2.52
335.00 2.40
336.00 2.29
337.00 2.19
338.00 2.09
339.00 1.99
340.00 1.89
341.00 1.79
342.00 1.69
343.00 1.59
344.00 1.49
345.00 1.38
346.00 1.28
347.00 1.17
348.00 1.06
349.00 0.95
350.00 0.84
351.00 0.73
352.00 0.62
353.00 0.52
354.00 0.42
355.00 0.33
356.00 0.25
357.00 0.18
358.00 0.12
359.00 0.07
VERTICAL 360
0.00 10.47
1.00 5.77
2.00 2.66
3.00 0.78
4.00 0.00
5.00 0.33
6.00 1.93
7.00 5.28
8.00 12.10
9.00 31.06
10.00 13.34
11.00 10.45
12.00 10.96
13.00 14.28
14.00 21.83
15.00 21.53
16.00 16.37
17.00 15.36
18.00 17.36
19.00 22.40
20.00 22.39
21.00 18.14
22.00 16.65
23.00 17.40
24.00 20.43
25.00 28.28
26.00 32.14
27.00 21.96
28.00 18.83
29.00 18.34
30.00 19.57
31.00 21.45
32.00 21.80
33.00 20.32
34.00 18.57
35.00 17.28
36.00 16.74
37.00 16.92
38.00 17.53
39.00 18.38
40.00 19.81
41.00 22.60
42.00 28.23
43.00 34.96
44.00 27.84
45.00 24.21
46.00 22.58
47.00 21.98
48.00 22.39
49.00 24.27
50.00 28.65
51.00 38.46
52.00 33.84
53.00 28.67
54.00 26.55
55.00 25.50
56.00 24.93
57.00 24.92
58.00 25.79
59.00 27.85
60.00 31.36
61.00 35.91
62.00 37.95
63.00 36.72
64.00 35.54
65.00 34.60
66.00 33.89
67.00 33.67
68.00 34.09
69.00 34.89
70.00 35.51
71.00 35.39
72.00 34.50
73.00 33.62
74.00 33.46
75.00 34.27
76.00 35.77
77.00 37.13
78.00 37.58
79.00 37.47
80.00 37.58
81.00 38.35
82.00 39.70
83.00 40.67
84.00 40.07
85.00 38.25
86.00 36.67
87.00 36.32
88.00 37.55
89.00 40.23
90.00 43.14
91.00 44.54
92.00 43.71
93.00 40.92
94.00 38.56
95.00 37.59
96.00 38.01
97.00 39.60
98.00 41.78
99.00 43.88
100.00 45.92
101.00 47.84
102.00 49.48
103.00 52.74
104.00 62.23
105.00 66.64
106.00 62.61
107.00 69.46
108.00 80.29
109.00 57.19
110.00 48.63
111.00 44.44
112.00 42.89
113.00 43.07
114.00 44.04
115.00 44.79
116.00 45.23
117.00 46.77
118.00 52.85
119.00 56.55
120.00 45.69
121.00 42.46
122.00 42.32
123.00 44.72
124.00 48.24
125.00 44.55
126.00 40.29
127.00 38.48
128.00 38.86
129.00 41.40
130.00 45.99
131.00 50.25
132.00 47.87
133.00 42.75
134.00 39.70
135.00 39.32
136.00 42.04
137.00 46.20
138.00 41.49
139.00 37.81
140.00 36.38
141.00 36.15
142.00 36.33
143.00 36.36
144.00 36.13
145.00 36.08
146.00 36.78
147.00 38.59
148.00 41.54
149.00 44.72
150.00 46.05
151.00 45.92
152.00 46.24
153.00 42.55
154.00 36.95
155.00 33.70
156.00 32.87
157.00 34.36
158.00 38.27
159.00 44.76
160.00 52.97
161.00 46.15
162.00 41.07
163.00 40.16
164.00 42.51
165.00 42.95
166.00 39.47
167.00 38.06
168.00 38.71
169.00 40.69
170.00 45.09
171.00 51.18
172.00 39.41
173.00 34.48
174.00 32.74
175.00 32.96
176.00 33.57
177.00 32.66
178.00 31.36
179.00 30.97
180.00 31.51
181.00 32.76
182.00 34.68
183.00 37.21
184.00 39.58
185.00 40.19
186.00 39.27
187.00 38.46
188.00 36.87
189.00 33.79
190.00 31.56
191.00 31.27
192.00 33.15
193.00 37.02
194.00 41.33
195.00 41.73
196.00 37.30
197.00 34.00
198.00 33.33
199.00 35.49
200.00 41.62
201.00 66.91
202.00 45.41
203.00 40.54
204.00 38.43
205.00 38.62
206.00 40.75
207.00 42.07
208.00 41.20
209.00 41.43
210.00 43.47
211.00 44.60
212.00 42.36
213.00 41.02
214.00 42.59
215.00 47.75
216.00 44.17
217.00 39.30
218.00 37.45
219.00 37.05
220.00 36.56
221.00 34.82
222.00 32.44
223.00 30.61
224.00 29.92
225.00 30.40
226.00 31.49
227.00 31.89
228.00 31.25
229.00 30.72
230.00 30.89
231.00 31.68
232.00 32.54
233.00 32.50
234.00 31.29
235.00 29.93
236.00 29.12
237.00 29.05
238.00 29.75
239.00 31.30
240.00 33.77
241.00 36.82
242.00 38.30
243.00 36.97
244.00 35.26
245.00 34.05
246.00 33.29
247.00 32.94
248.00 32.90
249.00 32.95
250.00 32.94
251.00 32.96
252.00 33.16
253.00 33.52
254.00 33.82
255.00 34.02
256.00 34.35
257.00 35.12
258.00 36.57
259.00 38.98
260.00 42.06
261.00 43.44
262.00 40.49
263.00 36.32
264.00 33.38
265.00 31.97
266.00 31.75
267.00 32.01
268.00 31.82
269.00 30.74
270.00 29.27
271.00 28.08
272.00 27.39
273.00 27.10
274.00 26.94
275.00 26.66
276.00 26.02
277.00 25.05
278.00 24.00
279.00 22.99
280.00 22.05
281.00 21.20
282.00 20.43
283.00 19.71
284.00 19.00
285.00 18.30
286.00 17.66
287.00 17.11
288.00 16.65
289.00 16.26
290.00 15.93
291.00 15.70
292.00 15.65
293.00 15.84
294.00 16.30
295.00 17.06
296.00 18.14
297.00 19.63
298.00 21.73
299.00 25.05
300.00 31.88
301.00 36.48
302.00 25.68
303.00 21.19
304.00 19.05
305.00 18.43
306.00 19.11
307.00 20.99
308.00 24.09
309.00 28.48
310.00 31.55
311.00 27.48
312.00 23.63
313.00 21.62
314.00 21.15
315.00 22.04
316.00 23.90
317.00 24.86
318.00 22.95
319.00 20.76
320.00 19.92
321.00 20.90
322.00 24.53
323.00 32.67
324.00 25.80
325.00 19.94
326.00 16.93
327.00 15.55
328.00 15.59
329.00 17.15
330.00 20.62
331.00 26.68
332.00 34.67
333.00 35.10
334.00 27.48
335.00 21.37
336.00 17.91
337.00 16.56
338.00 17.25
339.00 20.69
340.00 30.50
341.00 24.69
342.00 18.96
343.00 17.38
344.00 18.55
345.00 23.46
346.00 48.93
347.00 22.93
348.00 18.64
349.00 18.00
350.00 20.09
351.00 24.01
352.00 22.74
353.00 20.10
354.00 20.41
355.00 24.61
356.00 40.70
357.00 31.53
358.00 26.25
359.00 17.44
