NAME ATR4518R7_0832_X_CO_P45_09T
FREQUENCY 0832
GAIN 14.39 dBd
TILT	ELECTRICAL
COMMENT DATE 05.08.2013 +45 degrees polarized system Lever position 09T deg
HORIZONTAL 360
0.00 0.00
1.00 0.00
2.00 0.00
3.00 0.01
4.00 0.02
5.00 0.04
6.00 0.06
7.00 0.09
8.00 0.12
9.00 0.16
10.00 0.21
11.00 0.26
12.00 0.31
13.00 0.37
14.00 0.44
15.00 0.51
16.00 0.59
17.00 0.67
18.00 0.76
19.00 0.85
20.00 0.95
21.00 1.05
22.00 1.16
23.00 1.28
24.00 1.39
25.00 1.52
26.00 1.65
27.00 1.78
28.00 1.92
29.00 2.07
30.00 2.22
31.00 2.37
32.00 2.53
33.00 2.70
34.00 2.87
35.00 3.05
36.00 3.23
37.00 3.41
38.00 3.60
39.00 3.80
40.00 4.00
41.00 4.20
42.00 4.41
43.00 4.63
44.00 4.85
45.00 5.07
46.00 5.30
47.00 5.53
48.00 5.77
49.00 6.02
50.00 6.27
51.00 6.52
52.00 6.77
53.00 7.04
54.00 7.31
55.00 7.58
56.00 7.85
57.00 8.13
58.00 8.42
59.00 8.71
60.00 9.00
61.00 9.30
62.00 9.61
63.00 9.91
64.00 10.22
65.00 10.54
66.00 10.86
67.00 11.19
68.00 11.52
69.00 11.85
70.00 12.19
71.00 12.53
72.00 12.88
73.00 13.22
74.00 13.58
75.00 13.94
76.00 14.30
77.00 14.67
78.00 15.04
79.00 15.41
80.00 15.79
81.00 16.17
82.00 16.56
83.00 16.95
84.00 17.34
85.00 17.74
86.00 18.14
87.00 18.54
88.00 18.95
89.00 19.35
90.00 19.76
91.00 20.17
92.00 20.58
93.00 20.99
94.00 21.40
95.00 21.81
96.00 22.21
97.00 22.61
98.00 23.00
99.00 23.38
100.00 23.75
101.00 24.11
102.00 24.46
103.00 24.79
104.00 25.09
105.00 25.38
106.00 25.65
107.00 25.89
108.00 26.10
109.00 26.29
110.00 26.46
111.00 26.59
112.00 26.71
113.00 26.79
114.00 26.87
115.00 26.92
116.00 26.95
117.00 26.98
118.00 26.99
119.00 26.99
120.00 26.99
121.00 26.98
122.00 26.97
123.00 26.96
124.00 26.95
125.00 26.94
126.00 26.94
127.00 26.94
128.00 26.94
129.00 26.95
130.00 26.97
131.00 26.99
132.00 27.02
133.00 27.06
134.00 27.10
135.00 27.15
136.00 27.21
137.00 27.27
138.00 27.34
139.00 27.41
140.00 27.49
141.00 27.57
142.00 27.66
143.00 27.75
144.00 27.84
145.00 27.93
146.00 28.03
147.00 28.12
148.00 28.22
149.00 28.32
150.00 28.41
151.00 28.50
152.00 28.59
153.00 28.67
154.00 28.75
155.00 28.83
156.00 28.90
157.00 28.97
158.00 29.04
159.00 29.10
160.00 29.15
161.00 29.21
162.00 29.26
163.00 29.31
164.00 29.35
165.00 29.40
166.00 29.45
167.00 29.49
168.00 29.54
169.00 29.59
170.00 29.64
171.00 29.70
172.00 29.75
173.00 29.82
174.00 29.89
175.00 29.96
176.00 30.04
177.00 30.12
178.00 30.21
179.00 30.30
180.00 30.40
181.00 30.51
182.00 30.62
183.00 30.74
184.00 30.86
185.00 30.99
186.00 31.12
187.00 31.26
188.00 31.39
189.00 31.54
190.00 31.69
191.00 31.83
192.00 31.98
193.00 32.13
194.00 32.28
195.00 32.43
196.00 32.57
197.00 32.72
198.00 32.86
199.00 33.01
200.00 33.14
201.00 33.28
202.00 33.41
203.00 33.54
204.00 33.67
205.00 33.79
206.00 33.91
207.00 34.03
208.00 34.15
209.00 34.26
210.00 34.38
211.00 34.49
212.00 34.60
213.00 34.72
214.00 34.83
215.00 34.94
216.00 35.05
217.00 35.16
218.00 35.27
219.00 35.37
220.00 35.46
221.00 35.54
222.00 35.61
223.00 35.67
224.00 35.70
225.00 35.71
226.00 35.69
227.00 35.65
228.00 35.57
229.00 35.45
230.00 35.30
231.00 35.11
232.00 34.88
233.00 34.60
234.00 34.30
235.00 33.96
236.00 33.60
237.00 33.20
238.00 32.79
239.00 32.36
240.00 31.92
241.00 31.46
242.00 31.00
243.00 30.53
244.00 30.06
245.00 29.58
246.00 29.11
247.00 28.64
248.00 28.17
249.00 27.71
250.00 27.25
251.00 26.79
252.00 26.35
253.00 25.90
254.00 25.46
255.00 25.03
256.00 24.61
257.00 24.19
258.00 23.78
259.00 23.37
260.00 22.98
261.00 22.59
262.00 22.20
263.00 21.82
264.00 21.45
265.00 21.08
266.00 20.73
267.00 20.37
268.00 20.02
269.00 19.68
270.00 19.34
271.00 19.00
272.00 18.68
273.00 18.35
274.00 18.03
275.00 17.71
276.00 17.39
277.00 17.08
278.00 16.77
279.00 16.47
280.00 16.16
281.00 15.86
282.00 15.56
283.00 15.26
284.00 14.96
285.00 14.66
286.00 14.36
287.00 14.06
288.00 13.77
289.00 13.47
290.00 13.17
291.00 12.88
292.00 12.58
293.00 12.28
294.00 11.98
295.00 11.69
296.00 11.39
297.00 11.10
298.00 10.80
299.00 10.50
300.00 10.21
301.00 9.91
302.00 9.62
303.00 9.34
304.00 9.05
305.00 8.76
306.00 8.47
307.00 8.19
308.00 7.91
309.00 7.63
310.00 7.36
311.00 7.09
312.00 6.82
313.00 6.56
314.00 6.30
315.00 6.04
316.00 5.79
317.00 5.54
318.00 5.30
319.00 5.06
320.00 4.83
321.00 4.60
322.00 4.38
323.00 4.16
324.00 3.95
325.00 3.74
326.00 3.54
327.00 3.34
328.00 3.15
329.00 2.96
330.00 2.78
331.00 2.60
332.00 2.43
333.00 2.27
334.00 2.11
335.00 1.96
336.00 1.81
337.00 1.67
338.00 1.54
339.00 1.41
340.00 1.28
341.00 1.16
342.00 1.05
343.00 0.94
344.00 0.84
345.00 0.75
346.00 0.66
347.00 0.57
348.00 0.50
349.00 0.42
350.00 0.36
351.00 0.30
352.00 0.24
353.00 0.19
354.00 0.15
355.00 0.11
356.00 0.08
357.00 0.05
358.00 0.03
359.00 0.01
VERTICAL 360
0.00 16.89
1.00 12.10
2.00 8.65
3.00 6.03
4.00 4.02
5.00 2.48
6.00 1.35
7.00 0.57
8.00 0.13
9.00 0.00
10.00 0.17
11.00 0.66
12.00 1.47
13.00 2.63
14.00 4.18
15.00 6.19
16.00 8.79
17.00 12.22
18.00 17.01
19.00 24.94
20.00 44.47
21.00 26.75
22.00 23.78
23.00 23.71
24.00 25.67
25.00 30.40
26.00 43.56
27.00 33.37
28.00 27.57
29.00 24.99
30.00 23.89
31.00 23.75
32.00 24.40
33.00 25.80
34.00 28.05
35.00 31.23
36.00 34.23
37.00 33.49
38.00 30.95
39.00 29.28
40.00 28.77
41.00 29.41
42.00 31.40
43.00 35.17
44.00 38.98
45.00 35.03
46.00 30.77
47.00 28.05
48.00 26.26
49.00 25.05
50.00 24.25
51.00 23.79
52.00 23.68
53.00 23.95
54.00 24.65
55.00 25.84
56.00 27.55
57.00 29.83
58.00 32.70
59.00 36.09
60.00 39.89
61.00 43.62
62.00 44.71
63.00 41.66
64.00 38.11
65.00 35.39
66.00 33.57
67.00 32.61
68.00 32.49
69.00 33.17
70.00 34.56
71.00 36.39
72.00 37.92
73.00 38.31
74.00 37.77
75.00 37.17
76.00 37.13
77.00 38.07
78.00 40.43
79.00 43.66
80.00 41.80
81.00 37.47
82.00 34.53
83.00 32.77
84.00 31.78
85.00 31.24
86.00 30.91
87.00 30.56
88.00 30.07
89.00 29.48
90.00 28.93
91.00 28.55
92.00 28.38
93.00 28.45
94.00 28.72
95.00 29.12
96.00 29.63
97.00 30.24
98.00 30.95
99.00 31.76
100.00 32.65
101.00 33.50
102.00 34.24
103.00 34.88
104.00 35.62
105.00 36.62
106.00 37.94
107.00 39.33
108.00 40.01
109.00 39.36
110.00 37.93
111.00 36.57
112.00 35.72
113.00 35.50
114.00 35.94
115.00 37.03
116.00 38.69
117.00 40.65
118.00 42.17
119.00 42.27
120.00 41.23
121.00 39.98
122.00 38.90
123.00 37.87
124.00 36.66
125.00 35.32
126.00 34.04
127.00 33.00
128.00 32.26
129.00 31.81
130.00 31.61
131.00 31.60
132.00 31.72
133.00 31.92
134.00 32.16
135.00 32.39
136.00 32.61
137.00 32.73
138.00 32.67
139.00 32.34
140.00 31.77
141.00 31.08
142.00 30.41
143.00 29.85
144.00 29.44
145.00 29.19
146.00 29.08
147.00 29.08
148.00 29.18
149.00 29.35
150.00 29.61
151.00 30.00
152.00 30.58
153.00 31.40
154.00 32.52
155.00 33.96
156.00 35.75
157.00 37.78
158.00 39.68
159.00 40.75
160.00 40.93
161.00 40.88
162.00 40.97
163.00 40.66
164.00 39.16
165.00 36.94
166.00 34.84
167.00 33.20
168.00 32.03
169.00 31.24
170.00 30.77
171.00 30.56
172.00 30.48
173.00 30.71
174.00 31.32
175.00 32.43
176.00 34.15
177.00 36.66
178.00 40.06
179.00 43.92
180.00 45.80
181.00 45.39
182.00 44.77
183.00 43.79
184.00 41.75
185.00 39.30
186.00 37.16
187.00 35.55
188.00 34.44
189.00 33.76
190.00 33.46
191.00 33.52
192.00 33.91
193.00 34.60
194.00 35.51
195.00 36.48
196.00 37.29
197.00 37.88
198.00 38.38
199.00 39.06
200.00 40.18
201.00 42.02
202.00 44.84
203.00 48.18
204.00 47.46
205.00 43.36
206.00 39.94
207.00 37.38
208.00 35.42
209.00 33.87
210.00 32.64
211.00 31.71
212.00 31.08
213.00 30.74
214.00 30.71
215.00 30.96
216.00 31.47
217.00 32.21
218.00 33.15
219.00 34.28
220.00 35.58
221.00 37.12
222.00 39.01
223.00 41.42
224.00 44.04
225.00 44.23
226.00 41.04
227.00 37.79
228.00 35.37
229.00 33.71
230.00 32.66
231.00 32.06
232.00 31.77
233.00 31.64
234.00 31.50
235.00 31.25
236.00 30.87
237.00 30.46
238.00 30.17
239.00 30.12
240.00 30.34
241.00 30.78
242.00 31.26
243.00 31.52
244.00 31.35
245.00 30.75
246.00 29.94
247.00 29.19
248.00 28.67
249.00 28.44
250.00 28.47
251.00 28.67
252.00 28.92
253.00 29.12
254.00 29.21
255.00 29.22
256.00 29.22
257.00 29.30
258.00 29.52
259.00 29.86
260.00 30.26
261.00 30.60
262.00 30.76
263.00 30.71
264.00 30.53
265.00 30.38
266.00 30.42
267.00 30.77
268.00 31.46
269.00 32.45
270.00 33.59
271.00 34.66
272.00 35.41
273.00 35.78
274.00 35.90
275.00 36.02
276.00 36.32
277.00 36.73
278.00 36.95
279.00 36.68
280.00 35.99
281.00 35.25
282.00 34.71
283.00 34.47
284.00 34.50
285.00 34.68
286.00 34.84
287.00 34.82
288.00 34.54
289.00 34.15
290.00 33.86
291.00 33.91
292.00 34.43
293.00 35.54
294.00 37.33
295.00 40.02
296.00 44.10
297.00 50.96
298.00 52.23
299.00 44.79
300.00 40.29
301.00 37.17
302.00 34.89
303.00 33.26
304.00 32.25
305.00 31.87
306.00 32.17
307.00 33.23
308.00 35.07
309.00 37.14
310.00 36.98
311.00 34.07
312.00 30.99
313.00 28.48
314.00 26.49
315.00 24.93
316.00 23.72
317.00 22.84
318.00 22.31
319.00 22.15
320.00 22.43
321.00 23.24
322.00 24.74
323.00 27.26
324.00 31.30
325.00 34.81
326.00 30.64
327.00 26.41
328.00 23.71
329.00 22.05
330.00 21.17
331.00 20.94
332.00 21.35
333.00 22.43
334.00 24.36
335.00 27.54
336.00 33.00
337.00 38.72
338.00 32.36
339.00 28.32
340.00 26.40
341.00 25.84
342.00 26.44
343.00 28.19
344.00 30.79
345.00 31.58
346.00 28.95
347.00 26.39
348.00 25.01
349.00 24.83
350.00 26.03
351.00 29.26
352.00 37.82
353.00 37.97
354.00 29.03
355.00 25.81
356.00 25.29
357.00 27.95
358.00 39.51
359.00 24.53
