NAME ATR4518R7_1880_X_CO_M45_05T_yyR
FREQUENCY 1880
GAIN 14.63 dBd
TILT	ELECTRICAL
COMMENT DATE 05.08.2013 -45 degrees polarized system Lever position 05T deg
HORIZONTAL 360
0.00 0.13
1.00 0.09
2.00 0.07
3.00 0.05
4.00 0.03
5.00 0.02
6.00 0.01
7.00 0.00
8.00 0.00
9.00 0.01
10.00 0.02
11.00 0.04
12.00 0.06
13.00 0.09
14.00 0.13
15.00 0.17
16.00 0.22
17.00 0.28
18.00 0.35
19.00 0.42
20.00 0.51
21.00 0.60
22.00 0.70
23.00 0.81
24.00 0.93
25.00 1.06
26.00 1.20
27.00 1.35
28.00 1.50
29.00 1.67
30.00 1.85
31.00 2.04
32.00 2.23
33.00 2.44
34.00 2.66
35.00 2.88
36.00 3.11
37.00 3.35
38.00 3.60
39.00 3.86
40.00 4.13
41.00 4.40
42.00 4.69
43.00 4.97
44.00 5.27
45.00 5.57
46.00 5.88
47.00 6.20
48.00 6.52
49.00 6.85
50.00 7.18
51.00 7.52
52.00 7.87
53.00 8.21
54.00 8.57
55.00 8.93
56.00 9.30
57.00 9.67
58.00 10.04
59.00 10.42
60.00 10.80
61.00 11.19
62.00 11.58
63.00 11.96
64.00 12.35
65.00 12.75
66.00 13.14
67.00 13.52
68.00 13.91
69.00 14.29
70.00 14.67
71.00 15.05
72.00 15.42
73.00 15.79
74.00 16.16
75.00 16.53
76.00 16.89
77.00 17.26
78.00 17.62
79.00 17.99
80.00 18.36
81.00 18.73
82.00 19.12
83.00 19.51
84.00 19.92
85.00 20.34
86.00 20.77
87.00 21.22
88.00 21.69
89.00 22.18
90.00 22.68
91.00 23.21
92.00 23.77
93.00 24.34
94.00 24.93
95.00 25.54
96.00 26.17
97.00 26.80
98.00 27.43
99.00 28.06
100.00 28.66
101.00 29.22
102.00 29.73
103.00 30.15
104.00 30.49
105.00 30.72
106.00 30.85
107.00 30.89
108.00 30.83
109.00 30.71
110.00 30.54
111.00 30.33
112.00 30.11
113.00 29.88
114.00 29.64
115.00 29.42
116.00 29.21
117.00 29.02
118.00 28.85
119.00 28.71
120.00 28.60
121.00 28.51
122.00 28.46
123.00 28.44
124.00 28.46
125.00 28.52
126.00 28.62
127.00 28.76
128.00 28.96
129.00 29.21
130.00 29.51
131.00 29.88
132.00 30.32
133.00 30.83
134.00 31.43
135.00 32.12
136.00 32.93
137.00 33.86
138.00 34.95
139.00 36.23
140.00 37.74
141.00 39.54
142.00 41.70
143.00 44.21
144.00 46.59
145.00 47.30
146.00 45.72
147.00 43.49
148.00 41.53
149.00 39.94
150.00 38.68
151.00 37.68
152.00 36.90
153.00 36.30
154.00 35.86
155.00 35.55
156.00 35.37
157.00 35.30
158.00 35.35
159.00 35.49
160.00 35.74
161.00 36.09
162.00 36.53
163.00 37.06
164.00 37.68
165.00 38.37
166.00 39.09
167.00 39.80
168.00 40.42
169.00 40.87
170.00 41.05
171.00 40.94
172.00 40.57
173.00 40.02
174.00 39.38
175.00 38.74
176.00 38.12
177.00 37.56
178.00 37.08
179.00 36.66
180.00 36.33
181.00 36.06
182.00 35.87
183.00 35.75
184.00 35.69
185.00 35.70
186.00 35.76
187.00 35.89
188.00 36.06
189.00 36.29
190.00 36.56
191.00 36.88
192.00 37.23
193.00 37.62
194.00 38.04
195.00 38.48
196.00 38.93
197.00 39.38
198.00 39.82
199.00 40.25
200.00 40.64
201.00 41.00
202.00 41.31
203.00 41.58
204.00 41.80
205.00 41.99
206.00 42.14
207.00 42.26
208.00 42.36
209.00 42.45
210.00 42.51
211.00 42.56
212.00 42.58
213.00 42.56
214.00 42.51
215.00 42.40
216.00 42.24
217.00 42.01
218.00 41.71
219.00 41.36
220.00 40.95
221.00 40.51
222.00 40.04
223.00 39.55
224.00 39.05
225.00 38.56
226.00 38.09
227.00 37.62
228.00 37.18
229.00 36.77
230.00 36.37
231.00 36.00
232.00 35.66
233.00 35.34
234.00 35.04
235.00 34.76
236.00 34.51
237.00 34.26
238.00 34.03
239.00 33.80
240.00 33.57
241.00 33.35
242.00 33.13
243.00 32.89
244.00 32.65
245.00 32.39
246.00 32.10
247.00 31.81
248.00 31.49
249.00 31.15
250.00 30.79
251.00 30.40
252.00 30.00
253.00 29.59
254.00 29.16
255.00 28.72
256.00 28.28
257.00 27.82
258.00 27.37
259.00 26.91
260.00 26.46
261.00 26.00
262.00 25.55
263.00 25.11
264.00 24.67
265.00 24.23
266.00 23.80
267.00 23.38
268.00 22.96
269.00 22.55
270.00 22.14
271.00 21.74
272.00 21.35
273.00 20.96
274.00 20.58
275.00 20.20
276.00 19.82
277.00 19.45
278.00 19.09
279.00 18.72
280.00 18.36
281.00 18.01
282.00 17.65
283.00 17.30
284.00 16.95
285.00 16.60
286.00 16.26
287.00 15.91
288.00 15.57
289.00 15.23
290.00 14.89
291.00 14.55
292.00 14.22
293.00 13.89
294.00 13.56
295.00 13.23
296.00 12.90
297.00 12.58
298.00 12.26
299.00 11.94
300.00 11.63
301.00 11.31
302.00 11.00
303.00 10.69
304.00 10.38
305.00 10.08
306.00 9.78
307.00 9.48
308.00 9.18
309.00 8.89
310.00 8.60
311.00 8.31
312.00 8.02
313.00 7.74
314.00 7.46
315.00 7.18
316.00 6.90
317.00 6.63
318.00 6.36
319.00 6.10
320.00 5.84
321.00 5.58
322.00 5.33
323.00 5.08
324.00 4.84
325.00 4.60
326.00 4.36
327.00 4.14
328.00 3.91
329.00 3.70
330.00 3.49
331.00 3.28
332.00 3.09
333.00 2.89
334.00 2.71
335.00 2.53
336.00 2.36
337.00 2.19
338.00 2.04
339.00 1.89
340.00 1.74
341.00 1.61
342.00 1.48
343.00 1.35
344.00 1.24
345.00 1.13
346.00 1.02
347.00 0.92
348.00 0.83
349.00 0.74
350.00 0.66
351.00 0.59
352.00 0.52
353.00 0.45
354.00 0.39
355.00 0.34
356.00 0.29
357.00 0.24
358.00 0.20
359.00 0.16
VERTICAL 360
0.00 9.92
1.00 6.01
2.00 3.26
3.00 1.42
4.00 0.36
5.00 0.00
6.00 0.34
7.00 1.44
8.00 3.50
9.00 6.91
10.00 12.99
11.00 26.81
12.00 17.82
13.00 12.67
14.00 11.33
15.00 12.03
16.00 14.86
17.00 22.00
18.00 31.50
19.00 18.60
20.00 15.02
21.00 14.32
22.00 15.72
23.00 19.66
24.00 26.90
25.00 24.14
26.00 18.88
27.00 16.82
28.00 16.63
29.00 18.01
30.00 21.27
31.00 26.87
32.00 27.48
33.00 22.38
34.00 19.53
35.00 18.38
36.00 18.47
37.00 19.80
38.00 22.73
39.00 28.75
40.00 41.49
41.00 31.34
42.00 26.58
43.00 25.06
44.00 24.75
45.00 24.72
46.00 24.50
47.00 24.11
48.00 23.64
49.00 23.06
50.00 22.41
51.00 21.97
52.00 22.03
53.00 22.86
54.00 24.64
55.00 27.70
56.00 32.78
57.00 39.99
58.00 37.35
59.00 32.61
60.00 30.26
61.00 29.15
62.00 28.78
63.00 28.88
64.00 29.19
65.00 29.49
66.00 29.66
67.00 29.79
68.00 30.01
69.00 30.35
70.00 30.71
71.00 30.98
72.00 31.15
73.00 31.27
74.00 31.33
75.00 31.19
76.00 30.77
77.00 30.11
78.00 29.32
79.00 28.48
80.00 27.71
81.00 27.10
82.00 26.60
83.00 26.15
84.00 25.76
85.00 25.55
86.00 25.58
87.00 25.82
88.00 26.29
89.00 27.01
90.00 27.94
91.00 28.63
92.00 28.52
93.00 27.81
94.00 27.22
95.00 27.21
96.00 27.94
97.00 29.40
98.00 31.47
99.00 33.86
100.00 36.04
101.00 37.56
102.00 38.24
103.00 38.16
104.00 37.79
105.00 37.72
106.00 38.14
107.00 38.85
108.00 39.29
109.00 38.96
110.00 38.09
111.00 37.32
112.00 37.07
113.00 37.39
114.00 37.99
115.00 38.39
116.00 38.19
117.00 37.59
118.00 37.00
119.00 36.62
120.00 36.32
121.00 35.97
122.00 35.73
123.00 35.93
124.00 36.70
125.00 37.79
126.00 38.58
127.00 38.43
128.00 37.28
129.00 35.76
130.00 34.46
131.00 33.71
132.00 33.53
133.00 33.79
134.00 34.34
135.00 35.22
136.00 36.70
137.00 38.88
138.00 40.20
139.00 38.82
140.00 37.01
141.00 36.29
142.00 36.56
143.00 37.40
144.00 38.60
145.00 40.56
146.00 43.98
147.00 47.25
148.00 44.43
149.00 40.79
150.00 39.01
151.00 38.90
152.00 40.63
153.00 45.35
154.00 52.91
155.00 45.70
156.00 40.86
157.00 38.88
158.00 38.26
159.00 38.23
160.00 38.22
161.00 37.97
162.00 37.80
163.00 38.31
164.00 39.73
165.00 40.62
166.00 38.99
167.00 36.90
168.00 35.97
169.00 36.22
170.00 37.12
171.00 37.81
172.00 37.57
173.00 36.68
174.00 35.94
175.00 35.97
176.00 37.28
177.00 40.57
178.00 48.97
179.00 56.94
180.00 44.47
181.00 42.08
182.00 42.50
183.00 43.43
184.00 42.99
185.00 42.90
186.00 45.55
187.00 53.79
188.00 52.20
189.00 46.64
190.00 45.87
191.00 46.56
192.00 46.59
193.00 46.95
194.00 49.31
195.00 53.41
196.00 55.35
197.00 53.62
198.00 50.39
199.00 48.52
200.00 49.54
201.00 52.16
202.00 50.93
203.00 51.51
204.00 59.62
205.00 45.32
206.00 38.56
207.00 35.57
208.00 34.72
209.00 35.44
210.00 36.99
211.00 37.90
212.00 37.21
213.00 35.80
214.00 34.48
215.00 33.56
216.00 33.28
217.00 33.84
218.00 35.39
219.00 37.92
220.00 41.14
221.00 44.12
222.00 45.39
223.00 44.79
224.00 44.16
225.00 45.43
226.00 52.28
227.00 56.00
228.00 42.92
229.00 38.39
230.00 36.38
231.00 35.94
232.00 36.76
233.00 38.67
234.00 41.63
235.00 45.67
236.00 51.23
237.00 57.18
238.00 51.89
239.00 45.56
240.00 41.53
241.00 39.17
242.00 38.32
243.00 39.05
244.00 41.59
245.00 45.82
246.00 47.47
247.00 44.88
248.00 43.09
249.00 42.41
250.00 42.07
251.00 41.22
252.00 39.82
253.00 38.62
254.00 38.08
255.00 38.18
256.00 38.67
257.00 39.27
258.00 39.71
259.00 39.74
260.00 39.07
261.00 37.88
262.00 36.84
263.00 36.58
264.00 37.30
265.00 38.74
266.00 40.03
267.00 40.01
268.00 38.51
269.00 36.63
270.00 35.38
271.00 35.17
272.00 35.91
273.00 37.20
274.00 38.40
275.00 39.14
276.00 39.80
277.00 41.13
278.00 43.81
279.00 48.36
280.00 53.14
281.00 52.07
282.00 46.94
283.00 41.81
284.00 37.89
285.00 34.98
286.00 32.63
287.00 30.55
288.00 28.66
289.00 27.01
290.00 25.73
291.00 24.86
292.00 24.34
293.00 24.06
294.00 23.91
295.00 23.87
296.00 24.01
297.00 24.49
298.00 25.41
299.00 26.64
300.00 27.57
301.00 27.40
302.00 26.26
303.00 24.97
304.00 24.01
305.00 23.45
306.00 23.16
307.00 22.93
308.00 22.70
309.00 22.55
310.00 22.58
311.00 22.80
312.00 23.10
313.00 23.32
314.00 23.31
315.00 23.07
316.00 22.71
317.00 22.48
318.00 22.57
319.00 23.10
320.00 23.97
321.00 24.80
322.00 24.92
323.00 24.02
324.00 22.58
325.00 21.28
326.00 20.42
327.00 19.97
328.00 19.80
329.00 19.80
330.00 20.06
331.00 20.73
332.00 21.96
333.00 23.84
334.00 26.29
335.00 27.52
336.00 24.99
337.00 21.56
338.00 19.31
339.00 18.51
340.00 19.32
341.00 22.22
342.00 27.47
343.00 26.87
344.00 22.47
345.00 21.02
346.00 22.45
347.00 28.71
348.00 32.97
349.00 22.17
350.00 17.99
351.00 16.30
352.00 16.27
353.00 17.80
354.00 21.34
355.00 28.65
356.00 40.52
357.00 31.17
358.00 22.86
359.00 15.40
