NAME ATR4518R7_0894_X_CO_M45_05T
FREQUENCY 0894
GAIN 14.95 dBd
TILT	ELECTRICAL
COMMENT DATE 05.08.2013 -45 degrees polarized system Lever position 05T deg
HORIZONTAL 360
0.00 0.01
1.00 0.00
2.00 0.01
3.00 0.01
4.00 0.03
5.00 0.05
6.00 0.08
7.00 0.11
8.00 0.15
9.00 0.20
10.00 0.26
11.00 0.32
12.00 0.39
13.00 0.46
14.00 0.54
15.00 0.63
16.00 0.73
17.00 0.83
18.00 0.94
19.00 1.06
20.00 1.18
21.00 1.31
22.00 1.45
23.00 1.59
24.00 1.74
25.00 1.90
26.00 2.07
27.00 2.24
28.00 2.42
29.00 2.61
30.00 2.80
31.00 3.00
32.00 3.21
33.00 3.42
34.00 3.65
35.00 3.87
36.00 4.11
37.00 4.35
38.00 4.60
39.00 4.86
40.00 5.12
41.00 5.40
42.00 5.67
43.00 5.96
44.00 6.25
45.00 6.55
46.00 6.86
47.00 7.17
48.00 7.49
49.00 7.82
50.00 8.16
51.00 8.50
52.00 8.85
53.00 9.21
54.00 9.57
55.00 9.94
56.00 10.32
57.00 10.70
58.00 11.09
59.00 11.49
60.00 11.90
61.00 12.30
62.00 12.72
63.00 13.14
64.00 13.57
65.00 14.01
66.00 14.45
67.00 14.90
68.00 15.35
69.00 15.80
70.00 16.26
71.00 16.73
72.00 17.19
73.00 17.66
74.00 18.13
75.00 18.60
76.00 19.07
77.00 19.54
78.00 20.01
79.00 20.47
80.00 20.93
81.00 21.38
82.00 21.83
83.00 22.27
84.00 22.70
85.00 23.12
86.00 23.53
87.00 23.92
88.00 24.31
89.00 24.68
90.00 25.04
91.00 25.38
92.00 25.71
93.00 26.04
94.00 26.34
95.00 26.65
96.00 26.94
97.00 27.22
98.00 27.50
99.00 27.77
100.00 28.03
101.00 28.30
102.00 28.56
103.00 28.82
104.00 29.08
105.00 29.33
106.00 29.60
107.00 29.86
108.00 30.12
109.00 30.38
110.00 30.65
111.00 30.92
112.00 31.18
113.00 31.45
114.00 31.71
115.00 31.98
116.00 32.24
117.00 32.49
118.00 32.74
119.00 32.99
120.00 33.22
121.00 33.45
122.00 33.66
123.00 33.86
124.00 34.04
125.00 34.21
126.00 34.36
127.00 34.48
128.00 34.59
129.00 34.68
130.00 34.74
131.00 34.79
132.00 34.81
133.00 34.81
134.00 34.79
135.00 34.75
136.00 34.70
137.00 34.63
138.00 34.54
139.00 34.45
140.00 34.34
141.00 34.22
142.00 34.10
143.00 33.97
144.00 33.83
145.00 33.69
146.00 33.55
147.00 33.41
148.00 33.27
149.00 33.14
150.00 33.01
151.00 32.87
152.00 32.75
153.00 32.63
154.00 32.51
155.00 32.40
156.00 32.30
157.00 32.21
158.00 32.12
159.00 32.04
160.00 31.97
161.00 31.90
162.00 31.85
163.00 31.80
164.00 31.77
165.00 31.74
166.00 31.72
167.00 31.72
168.00 31.72
169.00 31.74
170.00 31.77
171.00 31.81
172.00 31.86
173.00 31.92
174.00 32.00
175.00 32.09
176.00 32.19
177.00 32.30
178.00 32.44
179.00 32.58
180.00 32.74
181.00 32.92
182.00 33.11
183.00 33.32
184.00 33.55
185.00 33.79
186.00 34.05
187.00 34.34
188.00 34.64
189.00 34.97
190.00 35.32
191.00 35.69
192.00 36.08
193.00 36.50
194.00 36.94
195.00 37.41
196.00 37.91
197.00 38.44
198.00 39.00
199.00 39.58
200.00 40.20
201.00 40.85
202.00 41.53
203.00 42.24
204.00 42.98
205.00 43.75
206.00 44.54
207.00 45.34
208.00 46.15
209.00 46.93
210.00 47.68
211.00 48.38
212.00 48.97
213.00 49.43
214.00 49.79
215.00 49.94
216.00 49.96
217.00 49.82
218.00 49.56
219.00 49.18
220.00 48.70
221.00 48.16
222.00 47.56
223.00 46.90
224.00 46.23
225.00 45.51
226.00 44.78
227.00 44.04
228.00 43.29
229.00 42.56
230.00 41.81
231.00 41.09
232.00 40.37
233.00 39.68
234.00 38.99
235.00 38.33
236.00 37.68
237.00 37.05
238.00 36.43
239.00 35.83
240.00 35.25
241.00 34.68
242.00 34.13
243.00 33.59
244.00 33.06
245.00 32.54
246.00 32.02
247.00 31.52
248.00 31.02
249.00 30.53
250.00 30.05
251.00 29.56
252.00 29.09
253.00 28.61
254.00 28.14
255.00 27.67
256.00 27.21
257.00 26.74
258.00 26.28
259.00 25.82
260.00 25.36
261.00 24.91
262.00 24.46
263.00 24.01
264.00 23.56
265.00 23.12
266.00 22.68
267.00 22.24
268.00 21.81
269.00 21.38
270.00 20.96
271.00 20.54
272.00 20.13
273.00 19.72
274.00 19.32
275.00 18.92
276.00 18.52
277.00 18.13
278.00 17.75
279.00 17.37
280.00 16.99
281.00 16.63
282.00 16.26
283.00 15.90
284.00 15.55
285.00 15.20
286.00 14.85
287.00 14.51
288.00 14.17
289.00 13.83
290.00 13.50
291.00 13.18
292.00 12.86
293.00 12.54
294.00 12.22
295.00 11.91
296.00 11.60
297.00 11.29
298.00 10.99
299.00 10.69
300.00 10.39
301.00 10.10
302.00 9.81
303.00 9.52
304.00 9.24
305.00 8.96
306.00 8.68
307.00 8.40
308.00 8.13
309.00 7.86
310.00 7.59
311.00 7.33
312.00 7.07
313.00 6.81
314.00 6.56
315.00 6.31
316.00 6.06
317.00 5.82
318.00 5.58
319.00 5.34
320.00 5.11
321.00 4.88
322.00 4.66
323.00 4.44
324.00 4.22
325.00 4.01
326.00 3.81
327.00 3.60
328.00 3.41
329.00 3.22
330.00 3.03
331.00 2.85
332.00 2.67
333.00 2.50
334.00 2.33
335.00 2.17
336.00 2.01
337.00 1.86
338.00 1.71
339.00 1.57
340.00 1.44
341.00 1.31
342.00 1.19
343.00 1.07
344.00 0.96
345.00 0.85
346.00 0.75
347.00 0.66
348.00 0.57
349.00 0.49
350.00 0.42
351.00 0.35
352.00 0.28
353.00 0.23
354.00 0.18
355.00 0.13
356.00 0.09
357.00 0.06
358.00 0.04
359.00 0.02
VERTICAL 360
0.00 5.11
1.00 3.18
2.00 1.77
3.00 0.80
4.00 0.22
5.00 0.00
6.00 0.15
7.00 0.66
8.00 1.56
9.00 2.87
10.00 4.65
11.00 6.99
12.00 10.05
13.00 14.11
14.00 19.77
15.00 27.99
16.00 29.78
17.00 26.89
18.00 27.29
19.00 31.36
20.00 43.96
21.00 30.72
22.00 25.11
23.00 22.47
24.00 21.41
25.00 21.53
26.00 22.74
27.00 25.27
28.00 29.94
29.00 41.76
30.00 36.37
31.00 29.37
32.00 26.54
33.00 25.58
34.00 26.10
35.00 28.40
36.00 34.12
37.00 38.99
38.00 28.89
39.00 24.00
40.00 21.14
41.00 19.34
42.00 18.25
43.00 17.67
44.00 17.54
45.00 17.84
46.00 18.59
47.00 19.84
48.00 21.63
49.00 24.00
50.00 27.03
51.00 30.93
52.00 36.55
53.00 48.88
54.00 41.59
55.00 34.99
56.00 31.82
57.00 30.12
58.00 29.32
59.00 29.21
60.00 29.61
61.00 30.35
62.00 31.26
63.00 32.29
64.00 33.60
65.00 35.53
66.00 38.24
67.00 39.52
68.00 36.25
69.00 32.80
70.00 30.80
71.00 30.16
72.00 30.72
73.00 32.12
74.00 33.25
75.00 32.35
76.00 29.99
77.00 27.75
78.00 26.25
79.00 25.57
80.00 25.66
81.00 26.20
82.00 26.52
83.00 26.47
84.00 26.30
85.00 25.96
86.00 25.50
87.00 25.38
88.00 25.72
89.00 25.97
90.00 26.08
91.00 26.11
92.00 26.06
93.00 25.82
94.00 25.48
95.00 25.49
96.00 26.10
97.00 27.31
98.00 28.92
99.00 30.57
100.00 31.72
101.00 32.03
102.00 31.78
103.00 31.57
104.00 31.83
105.00 32.61
106.00 33.79
107.00 35.08
108.00 36.04
109.00 36.21
110.00 35.72
111.00 35.18
112.00 34.99
113.00 35.24
114.00 35.92
115.00 36.92
116.00 37.93
117.00 38.41
118.00 38.12
119.00 37.50
120.00 37.04
121.00 37.02
122.00 37.56
123.00 38.44
124.00 38.98
125.00 38.66
126.00 37.98
127.00 37.56
128.00 37.64
129.00 38.22
130.00 39.00
131.00 39.24
132.00 38.55
133.00 37.71
134.00 37.50
135.00 38.13
136.00 39.53
137.00 41.32
138.00 43.00
139.00 44.33
140.00 45.96
141.00 49.34
142.00 59.49
143.00 55.21
144.00 47.27
145.00 44.15
146.00 42.97
147.00 42.91
148.00 43.44
149.00 43.86
150.00 43.36
151.00 42.08
152.00 40.78
153.00 39.74
154.00 38.80
155.00 37.71
156.00 36.44
157.00 35.20
158.00 34.33
159.00 34.10
160.00 34.69
161.00 36.21
162.00 38.57
163.00 41.09
164.00 42.16
165.00 41.46
166.00 40.60
167.00 39.93
168.00 39.05
169.00 37.60
170.00 35.96
171.00 34.69
172.00 34.01
173.00 33.76
174.00 33.55
175.00 33.01
176.00 32.53
177.00 31.86
178.00 31.32
179.00 31.23
180.00 31.50
181.00 32.02
182.00 32.96
183.00 34.18
184.00 35.52
185.00 36.87
186.00 38.11
187.00 38.86
188.00 38.51
189.00 37.09
190.00 35.32
191.00 33.67
192.00 32.29
193.00 31.28
194.00 30.69
195.00 30.62
196.00 31.09
197.00 32.08
198.00 33.57
199.00 35.56
200.00 38.21
201.00 41.95
202.00 46.96
203.00 46.37
204.00 41.76
205.00 38.91
206.00 37.50
207.00 37.07
208.00 37.23
209.00 37.42
210.00 37.09
211.00 36.13
212.00 34.97
213.00 34.00
214.00 33.33
215.00 32.93
216.00 32.72
217.00 32.66
218.00 32.79
219.00 33.28
220.00 34.29
221.00 36.02
222.00 38.57
223.00 41.69
224.00 43.85
225.00 43.43
226.00 41.89
227.00 40.53
228.00 39.53
229.00 38.81
230.00 38.27
231.00 37.95
232.00 38.03
233.00 38.61
234.00 39.69
235.00 41.36
236.00 44.05
237.00 49.09
238.00 60.99
239.00 50.04
240.00 44.16
241.00 40.92
242.00 38.94
243.00 37.87
244.00 37.42
245.00 37.19
246.00 36.78
247.00 36.12
248.00 35.38
249.00 34.70
250.00 34.19
251.00 34.01
252.00 34.27
253.00 34.92
254.00 35.71
255.00 36.23
256.00 36.24
257.00 35.86
258.00 35.50
259.00 35.51
260.00 36.01
261.00 36.84
262.00 37.59
263.00 37.82
264.00 37.49
265.00 37.10
266.00 37.22
267.00 38.31
268.00 40.78
269.00 44.97
270.00 50.58
271.00 50.70
272.00 45.16
273.00 40.48
274.00 37.28
275.00 35.38
276.00 34.57
277.00 34.61
278.00 35.24
279.00 36.16
280.00 37.01
281.00 37.47
282.00 37.09
283.00 35.78
284.00 34.08
285.00 32.59
286.00 31.51
287.00 30.80
288.00 30.39
289.00 30.29
290.00 30.46
291.00 30.77
292.00 30.95
293.00 30.89
294.00 30.67
295.00 30.46
296.00 30.42
297.00 30.76
298.00 31.69
299.00 33.39
300.00 35.78
301.00 38.18
302.00 39.13
303.00 38.38
304.00 36.97
305.00 35.44
306.00 33.96
307.00 32.76
308.00 32.13
309.00 32.51
310.00 34.58
311.00 40.33
312.00 47.34
313.00 34.84
314.00 29.53
315.00 26.21
316.00 23.78
317.00 21.85
318.00 20.28
319.00 19.08
320.00 18.29
321.00 17.96
322.00 18.14
323.00 18.87
324.00 20.20
325.00 22.16
326.00 24.85
327.00 28.46
328.00 33.49
329.00 42.27
330.00 49.24
331.00 37.66
332.00 33.39
333.00 31.28
334.00 30.61
335.00 31.20
336.00 33.02
337.00 35.75
338.00 37.04
339.00 34.52
340.00 30.93
341.00 27.61
342.00 24.76
343.00 22.50
344.00 20.95
345.00 20.18
346.00 20.33
347.00 21.62
348.00 24.60
349.00 31.28
350.00 41.53
351.00 28.28
352.00 24.45
353.00 23.55
354.00 25.12
355.00 28.11
356.00 22.12
357.00 15.59
358.00 11.02
359.00 7.65
