NAME ATR4518R7_2535_X_CO_M45_01T_yyR
FREQUENCY 2535
GAIN 15.90 dBd
TILT	ELECTRICAL
COMMENT DATE 05.08.2013 -45 degrees polarized system Lever position 01T deg
HORIZONTAL 360
0.00 0.00
1.00 0.00
2.00 0.01
3.00 0.04
4.00 0.07
5.00 0.11
6.00 0.16
7.00 0.22
8.00 0.30
9.00 0.38
10.00 0.48
11.00 0.58
12.00 0.70
13.00 0.82
14.00 0.96
15.00 1.10
16.00 1.24
17.00 1.40
18.00 1.55
19.00 1.71
20.00 1.88
21.00 2.04
22.00 2.21
23.00 2.37
24.00 2.55
25.00 2.72
26.00 2.89
27.00 3.07
28.00 3.25
29.00 3.45
30.00 3.64
31.00 3.85
32.00 4.07
33.00 4.31
34.00 4.56
35.00 4.82
36.00 5.11
37.00 5.41
38.00 5.74
39.00 6.09
40.00 6.46
41.00 6.85
42.00 7.27
43.00 7.71
44.00 8.17
45.00 8.67
46.00 9.18
47.00 9.73
48.00 10.30
49.00 10.89
50.00 11.52
51.00 12.17
52.00 12.84
53.00 13.55
54.00 14.29
55.00 15.05
56.00 15.86
57.00 16.70
58.00 17.57
59.00 18.49
60.00 19.45
61.00 20.46
62.00 21.52
63.00 22.61
64.00 23.74
65.00 24.87
66.00 25.99
67.00 27.02
68.00 27.90
69.00 28.55
70.00 28.93
71.00 29.05
72.00 28.97
73.00 28.77
74.00 28.52
75.00 28.27
76.00 28.05
77.00 27.89
78.00 27.79
79.00 27.76
80.00 27.79
81.00 27.89
82.00 28.04
83.00 28.23
84.00 28.46
85.00 28.71
86.00 28.96
87.00 29.18
88.00 29.37
89.00 29.50
90.00 29.57
91.00 29.56
92.00 29.50
93.00 29.39
94.00 29.25
95.00 29.10
96.00 28.96
97.00 28.84
98.00 28.76
99.00 28.73
100.00 28.75
101.00 28.82
102.00 28.96
103.00 29.15
104.00 29.40
105.00 29.71
106.00 30.06
107.00 30.46
108.00 30.89
109.00 31.34
110.00 31.80
111.00 32.26
112.00 32.70
113.00 33.12
114.00 33.53
115.00 33.93
116.00 34.35
117.00 34.80
118.00 35.32
119.00 35.93
120.00 36.65
121.00 37.51
122.00 38.49
123.00 39.54
124.00 40.49
125.00 41.02
126.00 40.83
127.00 39.95
128.00 38.70
129.00 37.40
130.00 36.19
131.00 35.15
132.00 34.29
133.00 33.61
134.00 33.11
135.00 32.78
136.00 32.62
137.00 32.63
138.00 32.81
139.00 33.18
140.00 33.74
141.00 34.54
142.00 35.61
143.00 37.01
144.00 38.87
145.00 41.42
146.00 45.08
147.00 50.78
148.00 53.35
149.00 47.32
150.00 43.27
151.00 40.64
152.00 38.81
153.00 37.49
154.00 36.54
155.00 35.85
156.00 35.36
157.00 35.02
158.00 34.78
159.00 34.58
160.00 34.39
161.00 34.16
162.00 33.87
163.00 33.49
164.00 33.06
165.00 32.58
166.00 32.09
167.00 31.63
168.00 31.22
169.00 30.87
170.00 30.61
171.00 30.44
172.00 30.37
173.00 30.41
174.00 30.55
175.00 30.81
176.00 31.17
177.00 31.64
178.00 32.22
179.00 32.89
180.00 33.63
181.00 34.40
182.00 35.16
183.00 35.83
184.00 36.35
185.00 36.68
186.00 36.83
187.00 36.86
188.00 36.83
189.00 36.83
190.00 36.93
191.00 37.16
192.00 37.56
193.00 38.15
194.00 38.93
195.00 39.90
196.00 40.94
197.00 41.80
198.00 42.06
199.00 41.44
200.00 40.16
201.00 38.66
202.00 37.21
203.00 35.91
204.00 34.79
205.00 33.84
206.00 33.04
207.00 32.38
208.00 31.83
209.00 31.38
210.00 31.01
211.00 30.71
212.00 30.47
213.00 30.25
214.00 30.05
215.00 29.87
216.00 29.69
217.00 29.50
218.00 29.30
219.00 29.09
220.00 28.89
221.00 28.68
222.00 28.49
223.00 28.31
224.00 28.17
225.00 28.05
226.00 27.97
227.00 27.93
228.00 27.94
229.00 28.00
230.00 28.10
231.00 28.25
232.00 28.46
233.00 28.70
234.00 29.00
235.00 29.33
236.00 29.71
237.00 30.12
238.00 30.55
239.00 31.01
240.00 31.48
241.00 31.96
242.00 32.44
243.00 32.91
244.00 33.38
245.00 33.84
246.00 34.30
247.00 34.77
248.00 35.25
249.00 35.76
250.00 36.34
251.00 36.98
252.00 37.72
253.00 38.59
254.00 39.63
255.00 40.88
256.00 42.44
257.00 44.41
258.00 46.99
259.00 50.49
260.00 54.24
261.00 53.18
262.00 49.12
263.00 45.90
264.00 43.45
265.00 41.54
266.00 39.99
267.00 38.70
268.00 37.61
269.00 36.63
270.00 35.76
271.00 34.95
272.00 34.17
273.00 33.41
274.00 32.65
275.00 31.88
276.00 31.10
277.00 30.29
278.00 29.47
279.00 28.63
280.00 27.80
281.00 26.96
282.00 26.13
283.00 25.31
284.00 24.51
285.00 23.73
286.00 22.97
287.00 22.23
288.00 21.52
289.00 20.83
290.00 20.16
291.00 19.52
292.00 18.90
293.00 18.30
294.00 17.71
295.00 17.14
296.00 16.59
297.00 16.05
298.00 15.53
299.00 15.02
300.00 14.51
301.00 14.02
302.00 13.54
303.00 13.06
304.00 12.59
305.00 12.12
306.00 11.66
307.00 11.21
308.00 10.76
309.00 10.32
310.00 9.88
311.00 9.45
312.00 9.03
313.00 8.61
314.00 8.19
315.00 7.79
316.00 7.39
317.00 7.00
318.00 6.61
319.00 6.24
320.00 5.88
321.00 5.52
322.00 5.18
323.00 4.84
324.00 4.52
325.00 4.21
326.00 3.91
327.00 3.63
328.00 3.36
329.00 3.09
330.00 2.85
331.00 2.62
332.00 2.40
333.00 2.19
334.00 2.00
335.00 1.82
336.00 1.65
337.00 1.49
338.00 1.35
339.00 1.22
340.00 1.10
341.00 0.98
342.00 0.88
343.00 0.79
344.00 0.70
345.00 0.62
346.00 0.55
347.00 0.48
348.00 0.41
349.00 0.35
350.00 0.30
351.00 0.25
352.00 0.20
353.00 0.16
354.00 0.12
355.00 0.09
356.00 0.06
357.00 0.03
358.00 0.01
359.00 0.00
VERTICAL 360
0.00 0.59
1.00 0.00
2.00 0.63
3.00 2.70
4.00 6.88
5.00 16.44
6.00 24.64
7.00 13.03
8.00 11.90
9.00 14.10
10.00 17.10
11.00 15.45
12.00 13.26
13.00 13.54
14.00 16.77
15.00 21.71
16.00 18.92
17.00 15.82
18.00 15.66
19.00 18.22
20.00 23.41
21.00 21.46
22.00 16.32
23.00 13.95
24.00 13.49
25.00 14.30
26.00 15.70
27.00 16.84
28.00 17.17
29.00 16.58
30.00 15.38
31.00 14.32
32.00 14.09
33.00 15.22
34.00 18.47
35.00 26.43
36.00 31.60
37.00 22.54
38.00 19.96
39.00 20.04
40.00 22.44
41.00 29.33
42.00 40.43
43.00 25.82
44.00 22.43
45.00 22.22
46.00 24.41
47.00 29.63
48.00 35.33
49.00 28.91
50.00 24.55
51.00 22.74
52.00 22.66
53.00 24.29
54.00 28.37
55.00 35.75
56.00 32.01
57.00 27.20
58.00 25.86
59.00 27.09
60.00 31.54
61.00 45.32
62.00 35.34
63.00 29.08
64.00 26.41
65.00 25.07
66.00 24.40
67.00 24.05
68.00 23.81
69.00 23.74
70.00 23.98
71.00 24.56
72.00 25.29
73.00 25.89
74.00 26.18
75.00 26.44
76.00 27.14
77.00 28.57
78.00 31.04
79.00 35.07
80.00 40.65
81.00 48.78
82.00 46.82
83.00 37.73
84.00 32.85
85.00 29.67
86.00 28.37
87.00 29.16
88.00 30.65
89.00 31.58
90.00 34.20
91.00 31.43
92.00 26.60
93.00 25.46
94.00 28.44
95.00 39.26
96.00 40.87
97.00 36.27
98.00 41.30
99.00 46.78
100.00 42.47
101.00 38.44
102.00 38.01
103.00 40.90
104.00 39.35
105.00 37.77
106.00 39.65
107.00 40.99
108.00 41.75
109.00 42.36
110.00 39.22
111.00 37.30
112.00 36.96
113.00 37.64
114.00 39.75
115.00 42.29
116.00 44.94
117.00 42.55
118.00 37.20
119.00 35.60
120.00 37.50
121.00 42.41
122.00 47.51
123.00 46.60
124.00 42.92
125.00 41.58
126.00 43.02
127.00 47.65
128.00 57.36
129.00 51.14
130.00 49.35
131.00 51.18
132.00 44.51
133.00 40.17
134.00 38.89
135.00 38.88
136.00 38.84
137.00 39.19
138.00 41.10
139.00 44.75
140.00 47.68
141.00 47.29
142.00 45.62
143.00 44.73
144.00 45.06
145.00 46.14
146.00 49.21
147.00 47.68
148.00 40.05
149.00 35.50
150.00 33.27
151.00 32.85
152.00 34.06
153.00 36.58
154.00 39.92
155.00 44.89
156.00 51.75
157.00 49.08
158.00 48.95
159.00 55.58
160.00 47.97
161.00 41.86
162.00 39.92
163.00 40.64
164.00 42.58
165.00 43.81
166.00 44.95
167.00 43.85
168.00 41.25
169.00 40.05
170.00 38.64
171.00 37.32
172.00 38.40
173.00 42.59
174.00 42.78
175.00 39.20
176.00 36.31
177.00 33.34
178.00 32.05
179.00 33.63
180.00 38.97
181.00 43.72
182.00 46.96
183.00 59.77
184.00 53.46
185.00 50.08
186.00 38.94
187.00 35.18
188.00 36.02
189.00 39.13
190.00 37.00
191.00 34.93
192.00 36.15
193.00 39.90
194.00 43.31
195.00 46.81
196.00 52.39
197.00 42.41
198.00 37.54
199.00 36.04
200.00 35.91
201.00 35.79
202.00 35.89
203.00 37.24
204.00 37.56
205.00 33.86
206.00 30.90
207.00 30.05
208.00 30.77
209.00 32.15
210.00 33.28
211.00 33.90
212.00 34.89
213.00 36.42
214.00 36.35
215.00 35.46
216.00 35.34
217.00 34.84
218.00 34.48
219.00 35.79
220.00 38.47
221.00 39.62
222.00 37.90
223.00 36.26
224.00 36.30
225.00 37.87
226.00 40.15
227.00 43.77
228.00 51.72
229.00 67.98
230.00 60.60
231.00 52.00
232.00 46.50
233.00 43.57
234.00 43.62
235.00 47.58
236.00 44.03
237.00 38.46
238.00 36.69
239.00 37.61
240.00 40.61
241.00 42.85
242.00 40.00
243.00 35.88
244.00 33.05
245.00 31.81
246.00 31.81
247.00 32.48
248.00 33.31
249.00 33.86
250.00 33.89
251.00 33.94
252.00 34.25
253.00 34.36
254.00 34.06
255.00 33.45
256.00 32.67
257.00 32.00
258.00 31.60
259.00 31.44
260.00 31.42
261.00 31.49
262.00 31.86
263.00 33.15
264.00 36.37
265.00 44.38
266.00 43.42
267.00 34.24
268.00 30.20
269.00 28.84
270.00 29.54
271.00 31.85
272.00 34.32
273.00 33.24
274.00 29.98
275.00 27.87
276.00 27.26
277.00 27.86
278.00 29.44
279.00 31.66
280.00 33.52
281.00 34.25
282.00 34.25
283.00 33.93
284.00 33.77
285.00 34.03
286.00 33.65
287.00 31.49
288.00 28.50
289.00 25.89
290.00 24.04
291.00 22.91
292.00 22.29
293.00 21.91
294.00 21.64
295.00 21.56
296.00 21.94
297.00 23.19
298.00 25.99
299.00 32.52
300.00 42.87
301.00 30.47
302.00 25.91
303.00 23.83
304.00 22.80
305.00 22.42
306.00 22.69
307.00 23.71
308.00 25.31
309.00 26.79
310.00 27.26
311.00 26.40
312.00 24.66
313.00 23.29
314.00 23.43
315.00 25.63
316.00 27.10
317.00 23.61
318.00 20.57
319.00 19.62
320.00 20.62
321.00 23.85
322.00 28.92
323.00 27.18
324.00 22.94
325.00 20.85
326.00 20.21
327.00 20.72
328.00 22.61
329.00 26.46
330.00 32.64
331.00 39.04
332.00 32.72
333.00 24.87
334.00 20.77
335.00 19.12
336.00 19.33
337.00 21.39
338.00 26.17
339.00 29.44
340.00 23.88
341.00 20.94
342.00 21.16
343.00 24.86
344.00 34.40
345.00 28.28
346.00 23.39
347.00 23.00
348.00 26.53
349.00 33.18
350.00 27.14
351.00 23.04
352.00 21.85
353.00 21.94
354.00 23.53
355.00 26.09
356.00 18.14
357.00 10.47
358.00 5.55
359.00 2.39
