NAME ATR4518R7_0806_X_CO_P45_09T
FREQUENCY 0806
GAIN 14.24 dBd
TILT	ELECTRICAL
COMMENT DATE 05.08.2013 +45 degrees polarized system Lever position 09T deg
HORIZONTAL 360
0.00 0.00
1.00 0.00
2.00 0.00
3.00 0.00
4.00 0.02
5.00 0.03
6.00 0.06
7.00 0.09
8.00 0.12
9.00 0.16
10.00 0.20
11.00 0.25
12.00 0.31
13.00 0.37
14.00 0.43
15.00 0.51
16.00 0.58
17.00 0.66
18.00 0.75
19.00 0.84
20.00 0.94
21.00 1.04
22.00 1.15
23.00 1.26
24.00 1.38
25.00 1.50
26.00 1.63
27.00 1.76
28.00 1.90
29.00 2.04
30.00 2.19
31.00 2.34
32.00 2.50
33.00 2.66
34.00 2.83
35.00 3.00
36.00 3.18
37.00 3.36
38.00 3.55
39.00 3.74
40.00 3.93
41.00 4.13
42.00 4.34
43.00 4.55
44.00 4.76
45.00 4.98
46.00 5.20
47.00 5.42
48.00 5.65
49.00 5.89
50.00 6.13
51.00 6.37
52.00 6.62
53.00 6.87
54.00 7.12
55.00 7.38
56.00 7.64
57.00 7.91
58.00 8.18
59.00 8.46
60.00 8.73
61.00 9.02
62.00 9.30
63.00 9.59
64.00 9.88
65.00 10.18
66.00 10.48
67.00 10.78
68.00 11.09
69.00 11.40
70.00 11.72
71.00 12.04
72.00 12.37
73.00 12.69
74.00 13.03
75.00 13.36
76.00 13.71
77.00 14.06
78.00 14.41
79.00 14.77
80.00 15.13
81.00 15.50
82.00 15.88
83.00 16.26
84.00 16.65
85.00 17.04
86.00 17.45
87.00 17.86
88.00 18.27
89.00 18.70
90.00 19.13
91.00 19.57
92.00 20.02
93.00 20.48
94.00 20.94
95.00 21.41
96.00 21.89
97.00 22.37
98.00 22.85
99.00 23.34
100.00 23.82
101.00 24.30
102.00 24.77
103.00 25.23
104.00 25.66
105.00 26.07
106.00 26.45
107.00 26.79
108.00 27.08
109.00 27.33
110.00 27.52
111.00 27.66
112.00 27.75
113.00 27.80
114.00 27.80
115.00 27.76
116.00 27.69
117.00 27.60
118.00 27.49
119.00 27.37
120.00 27.24
121.00 27.11
122.00 26.99
123.00 26.86
124.00 26.75
125.00 26.64
126.00 26.55
127.00 26.46
128.00 26.39
129.00 26.33
130.00 26.29
131.00 26.25
132.00 26.24
133.00 26.23
134.00 26.24
135.00 26.27
136.00 26.31
137.00 26.37
138.00 26.44
139.00 26.53
140.00 26.63
141.00 26.75
142.00 26.88
143.00 27.03
144.00 27.20
145.00 27.38
146.00 27.58
147.00 27.79
148.00 28.02
149.00 28.27
150.00 28.54
151.00 28.83
152.00 29.14
153.00 29.47
154.00 29.83
155.00 30.20
156.00 30.61
157.00 31.03
158.00 31.49
159.00 31.98
160.00 32.50
161.00 33.06
162.00 33.66
163.00 34.30
164.00 35.00
165.00 35.74
166.00 36.55
167.00 37.42
168.00 38.39
169.00 39.42
170.00 40.53
171.00 41.73
172.00 42.94
173.00 44.13
174.00 45.06
175.00 45.53
176.00 45.40
177.00 44.74
178.00 43.76
179.00 42.68
180.00 41.60
181.00 40.59
182.00 39.66
183.00 38.81
184.00 38.04
185.00 37.34
186.00 36.71
187.00 36.13
188.00 35.60
189.00 35.12
190.00 34.69
191.00 34.29
192.00 33.93
193.00 33.60
194.00 33.30
195.00 33.03
196.00 32.78
197.00 32.56
198.00 32.37
199.00 32.19
200.00 32.04
201.00 31.90
202.00 31.79
203.00 31.70
204.00 31.62
205.00 31.56
206.00 31.53
207.00 31.50
208.00 31.50
209.00 31.51
210.00 31.54
211.00 31.59
212.00 31.65
213.00 31.72
214.00 31.82
215.00 31.92
216.00 32.04
217.00 32.18
218.00 32.33
219.00 32.49
220.00 32.67
221.00 32.85
222.00 33.05
223.00 33.25
224.00 33.45
225.00 33.65
226.00 33.85
227.00 34.03
228.00 34.21
229.00 34.35
230.00 34.46
231.00 34.54
232.00 34.56
233.00 34.52
234.00 34.42
235.00 34.26
236.00 34.04
237.00 33.75
238.00 33.41
239.00 33.02
240.00 32.59
241.00 32.13
242.00 31.64
243.00 31.14
244.00 30.62
245.00 30.10
246.00 29.57
247.00 29.05
248.00 28.53
249.00 28.01
250.00 27.50
251.00 27.00
252.00 26.51
253.00 26.02
254.00 25.54
255.00 25.07
256.00 24.61
257.00 24.16
258.00 23.72
259.00 23.29
260.00 22.86
261.00 22.45
262.00 22.04
263.00 21.64
264.00 21.25
265.00 20.86
266.00 20.48
267.00 20.11
268.00 19.74
269.00 19.38
270.00 19.03
271.00 18.68
272.00 18.34
273.00 18.00
274.00 17.66
275.00 17.33
276.00 17.01
277.00 16.68
278.00 16.36
279.00 16.05
280.00 15.73
281.00 15.42
282.00 15.12
283.00 14.81
284.00 14.50
285.00 14.20
286.00 13.90
287.00 13.60
288.00 13.30
289.00 13.01
290.00 12.71
291.00 12.41
292.00 12.12
293.00 11.82
294.00 11.53
295.00 11.24
296.00 10.95
297.00 10.66
298.00 10.37
299.00 10.08
300.00 9.80
301.00 9.51
302.00 9.23
303.00 8.95
304.00 8.67
305.00 8.40
306.00 8.12
307.00 7.85
308.00 7.58
309.00 7.32
310.00 7.06
311.00 6.80
312.00 6.54
313.00 6.29
314.00 6.04
315.00 5.80
316.00 5.56
317.00 5.32
318.00 5.09
319.00 4.86
320.00 4.64
321.00 4.42
322.00 4.20
323.00 4.00
324.00 3.79
325.00 3.59
326.00 3.40
327.00 3.21
328.00 3.03
329.00 2.85
330.00 2.67
331.00 2.50
332.00 2.34
333.00 2.18
334.00 2.03
335.00 1.88
336.00 1.74
337.00 1.61
338.00 1.48
339.00 1.35
340.00 1.23
341.00 1.12
342.00 1.01
343.00 0.91
344.00 0.81
345.00 0.72
346.00 0.63
347.00 0.55
348.00 0.47
349.00 0.40
350.00 0.34
351.00 0.28
352.00 0.23
353.00 0.18
354.00 0.14
355.00 0.10
356.00 0.07
357.00 0.04
358.00 0.02
359.00 0.01
VERTICAL 360
0.00 17.03
1.00 12.26
2.00 8.77
3.00 6.13
4.00 4.10
5.00 2.56
6.00 1.41
7.00 0.62
8.00 0.16
9.00 0.00
10.00 0.14
11.00 0.59
12.00 1.36
13.00 2.48
14.00 3.99
15.00 5.95
16.00 8.47
17.00 11.75
18.00 16.26
19.00 23.47
20.00 43.49
21.00 26.59
22.00 22.73
23.00 21.79
24.00 22.50
25.00 24.70
26.00 28.54
27.00 31.77
28.00 28.68
29.00 25.35
30.00 23.45
31.00 22.62
32.00 22.64
33.00 23.43
34.00 25.02
35.00 27.61
36.00 31.62
37.00 37.86
38.00 39.63
39.00 34.56
40.00 31.59
41.00 30.00
42.00 29.27
43.00 29.21
44.00 29.88
45.00 31.43
46.00 33.75
47.00 34.80
48.00 32.35
49.00 29.35
50.00 27.18
51.00 25.83
52.00 25.12
53.00 24.93
54.00 25.17
55.00 25.77
56.00 26.70
57.00 27.98
58.00 29.65
59.00 31.74
60.00 34.24
61.00 37.14
62.00 40.10
63.00 41.91
64.00 41.34
65.00 39.09
66.00 36.31
67.00 33.82
68.00 32.03
69.00 31.05
70.00 30.82
71.00 31.26
72.00 32.23
73.00 33.60
74.00 35.21
75.00 36.83
76.00 38.16
77.00 39.22
78.00 40.35
79.00 41.38
80.00 41.19
81.00 39.38
82.00 37.13
83.00 35.09
84.00 33.23
85.00 31.45
86.00 29.69
87.00 28.06
88.00 26.78
89.00 25.95
90.00 25.61
91.00 25.77
92.00 26.36
93.00 27.29
94.00 28.39
95.00 29.49
96.00 30.42
97.00 31.19
98.00 31.97
99.00 33.03
100.00 34.51
101.00 36.57
102.00 39.37
103.00 43.12
104.00 47.33
105.00 48.58
106.00 47.70
107.00 48.41
108.00 51.96
109.00 57.70
110.00 52.68
111.00 48.86
112.00 47.78
113.00 48.60
114.00 50.94
115.00 53.65
116.00 53.66
117.00 51.33
118.00 48.84
119.00 46.53
120.00 44.38
121.00 42.42
122.00 40.75
123.00 39.43
124.00 38.44
125.00 37.73
126.00 37.26
127.00 37.06
128.00 37.24
129.00 37.96
130.00 39.39
131.00 41.71
132.00 44.41
133.00 44.12
134.00 40.80
135.00 37.87
136.00 35.82
137.00 34.44
138.00 33.56
139.00 33.05
140.00 32.88
141.00 33.07
142.00 33.65
143.00 34.61
144.00 35.90
145.00 37.21
146.00 37.82
147.00 37.13
148.00 35.59
149.00 33.95
150.00 32.58
151.00 31.63
152.00 31.16
153.00 31.25
154.00 31.92
155.00 33.20
156.00 34.92
157.00 36.57
158.00 37.33
159.00 37.21
160.00 37.09
161.00 37.59
162.00 39.03
163.00 41.70
164.00 45.78
165.00 47.68
166.00 44.53
167.00 41.81
168.00 40.29
169.00 39.63
170.00 39.60
171.00 40.11
172.00 40.13
173.00 40.71
174.00 41.95
175.00 43.73
176.00 44.12
177.00 41.79
178.00 38.72
179.00 36.46
180.00 35.10
181.00 34.56
182.00 34.81
183.00 35.87
184.00 37.85
185.00 41.06
186.00 46.61
187.00 56.90
188.00 47.12
189.00 41.51
190.00 38.26
191.00 36.11
192.00 34.60
193.00 33.55
194.00 32.87
195.00 32.49
196.00 32.36
197.00 32.47
198.00 32.74
199.00 33.06
200.00 33.23
201.00 33.14
202.00 32.88
203.00 32.69
204.00 32.74
205.00 33.08
206.00 33.73
207.00 34.68
208.00 35.96
209.00 37.68
210.00 40.07
211.00 43.17
212.00 45.44
213.00 44.97
214.00 44.20
215.00 44.74
216.00 46.37
217.00 47.63
218.00 47.52
219.00 47.39
220.00 48.00
221.00 49.06
222.00 50.61
223.00 54.12
224.00 60.61
225.00 51.83
226.00 45.74
227.00 42.01
228.00 39.48
229.00 37.73
230.00 36.60
231.00 35.94
232.00 35.57
233.00 35.38
234.00 35.33
235.00 35.38
236.00 35.41
237.00 35.30
238.00 35.07
239.00 34.88
240.00 34.92
241.00 35.37
242.00 36.36
243.00 37.96
244.00 40.05
245.00 42.30
246.00 44.70
247.00 47.65
248.00 49.01
249.00 45.96
250.00 43.07
251.00 41.50
252.00 40.93
253.00 41.12
254.00 42.02
255.00 43.51
256.00 44.34
257.00 42.85
258.00 40.29
259.00 37.94
260.00 36.13
261.00 34.98
262.00 34.62
263.00 35.09
264.00 36.32
265.00 38.27
266.00 41.07
267.00 43.44
268.00 40.59
269.00 36.64
270.00 34.25
271.00 33.31
272.00 33.53
273.00 34.60
274.00 36.03
275.00 37.32
276.00 38.15
277.00 38.26
278.00 37.59
279.00 36.77
280.00 36.32
281.00 36.30
282.00 36.46
283.00 36.63
284.00 36.85
285.00 37.11
286.00 37.29
287.00 37.35
288.00 37.37
289.00 37.41
290.00 37.56
291.00 38.07
292.00 39.27
293.00 41.40
294.00 44.35
295.00 47.52
296.00 50.52
297.00 52.46
298.00 49.39
299.00 44.81
300.00 40.89
301.00 37.66
302.00 35.29
303.00 33.98
304.00 33.86
305.00 35.13
306.00 38.13
307.00 42.30
308.00 40.59
309.00 36.29
310.00 33.35
311.00 31.24
312.00 29.46
313.00 27.74
314.00 26.05
315.00 24.57
316.00 23.46
317.00 22.83
318.00 22.77
319.00 23.35
320.00 24.67
321.00 26.82
322.00 29.31
323.00 29.33
324.00 26.47
325.00 23.75
326.00 21.87
327.00 20.75
328.00 20.24
329.00 20.22
330.00 20.63
331.00 21.44
332.00 22.69
333.00 24.50
334.00 27.21
335.00 31.64
336.00 40.01
337.00 37.38
338.00 31.42
339.00 28.86
340.00 28.21
341.00 29.16
342.00 31.80
343.00 34.21
344.00 30.48
345.00 26.24
346.00 23.55
347.00 22.12
348.00 21.79
349.00 22.64
350.00 25.05
351.00 30.53
352.00 56.40
353.00 29.77
354.00 24.57
355.00 22.35
356.00 21.96
357.00 23.45
358.00 26.85
359.00 23.71
