NAME ATR4518R7_2655_X_CO_M45_06T_yL
FREQUENCY 2655
GAIN 16.19 dBd
TILT	ELECTRICAL
COMMENT DATE 05.08.2013 -45 degrees polarized system Lever position 06T deg
HORIZONTAL 360
0.00 0.13
1.00 0.20
2.00 0.29
3.00 0.39
4.00 0.49
5.00 0.60
6.00 0.70
7.00 0.80
8.00 0.90
9.00 0.99
10.00 1.06
11.00 1.13
12.00 1.20
13.00 1.26
14.00 1.31
15.00 1.37
16.00 1.44
17.00 1.51
18.00 1.59
19.00 1.69
20.00 1.80
21.00 1.93
22.00 2.07
23.00 2.23
24.00 2.40
25.00 2.59
26.00 2.79
27.00 3.00
28.00 3.22
29.00 3.44
30.00 3.67
31.00 3.90
32.00 4.12
33.00 4.34
34.00 4.56
35.00 4.76
36.00 4.96
37.00 5.15
38.00 5.33
39.00 5.50
40.00 5.66
41.00 5.82
42.00 5.98
43.00 6.14
44.00 6.30
45.00 6.46
46.00 6.62
47.00 6.79
48.00 6.97
49.00 7.15
50.00 7.34
51.00 7.55
52.00 7.76
53.00 7.98
54.00 8.21
55.00 8.45
56.00 8.69
57.00 8.95
58.00 9.22
59.00 9.49
60.00 9.78
61.00 10.07
62.00 10.37
63.00 10.68
64.00 11.00
65.00 11.33
66.00 11.68
67.00 12.04
68.00 12.41
69.00 12.79
70.00 13.20
71.00 13.63
72.00 14.07
73.00 14.54
74.00 15.04
75.00 15.56
76.00 16.11
77.00 16.68
78.00 17.29
79.00 17.93
80.00 18.59
81.00 19.29
82.00 20.02
83.00 20.76
84.00 21.53
85.00 22.31
86.00 23.09
87.00 23.87
88.00 24.62
89.00 25.34
90.00 26.00
91.00 26.59
92.00 27.12
93.00 27.57
94.00 27.96
95.00 28.29
96.00 28.58
97.00 28.84
98.00 29.08
99.00 29.32
100.00 29.54
101.00 29.76
102.00 29.97
103.00 30.16
104.00 30.33
105.00 30.47
106.00 30.58
107.00 30.67
108.00 30.74
109.00 30.81
110.00 30.88
111.00 30.99
112.00 31.14
113.00 31.37
114.00 31.67
115.00 32.08
116.00 32.61
117.00 33.29
118.00 34.13
119.00 35.17
120.00 36.43
121.00 37.97
122.00 39.81
123.00 41.94
124.00 44.12
125.00 45.62
126.00 45.61
127.00 44.52
128.00 43.29
129.00 42.35
130.00 41.77
131.00 41.52
132.00 41.51
133.00 41.56
134.00 41.38
135.00 40.70
136.00 39.44
137.00 37.82
138.00 36.12
139.00 34.50
140.00 33.05
141.00 31.77
142.00 30.68
143.00 29.76
144.00 29.00
145.00 28.38
146.00 27.91
147.00 27.57
148.00 27.35
149.00 27.25
150.00 27.27
151.00 27.39
152.00 27.60
153.00 27.91
154.00 28.30
155.00 28.75
156.00 29.24
157.00 29.75
158.00 30.24
159.00 30.68
160.00 31.03
161.00 31.29
162.00 31.45
163.00 31.54
164.00 31.59
165.00 31.62
166.00 31.66
167.00 31.73
168.00 31.85
169.00 32.01
170.00 32.20
171.00 32.42
172.00 32.63
173.00 32.83
174.00 32.97
175.00 33.04
176.00 33.03
177.00 32.94
178.00 32.79
179.00 32.60
180.00 32.39
181.00 32.20
182.00 32.03
183.00 31.91
184.00 31.84
185.00 31.84
186.00 31.91
187.00 32.06
188.00 32.29
189.00 32.60
190.00 33.00
191.00 33.50
192.00 34.10
193.00 34.80
194.00 35.60
195.00 36.50
196.00 37.47
197.00 38.45
198.00 39.33
199.00 39.93
200.00 40.11
201.00 39.84
202.00 39.25
203.00 38.51
204.00 37.78
205.00 37.14
206.00 36.64
207.00 36.29
208.00 36.12
209.00 36.13
210.00 36.34
211.00 36.78
212.00 37.46
213.00 38.44
214.00 39.81
215.00 41.70
216.00 44.36
217.00 48.33
218.00 53.78
219.00 52.19
220.00 47.05
221.00 43.65
222.00 41.36
223.00 39.76
224.00 38.66
225.00 37.94
226.00 37.54
227.00 37.43
228.00 37.61
229.00 38.06
230.00 38.82
231.00 39.90
232.00 41.34
233.00 43.12
234.00 45.01
235.00 46.15
236.00 45.57
237.00 43.86
238.00 42.04
239.00 40.51
240.00 39.31
241.00 38.42
242.00 37.79
243.00 37.39
244.00 37.16
245.00 37.08
246.00 37.06
247.00 37.07
248.00 37.01
249.00 36.83
250.00 36.49
251.00 36.00
252.00 35.40
253.00 34.74
254.00 34.09
255.00 33.49
256.00 32.96
257.00 32.52
258.00 32.19
259.00 31.96
260.00 31.84
261.00 31.84
262.00 31.95
263.00 32.18
264.00 32.53
265.00 32.98
266.00 33.54
267.00 34.13
268.00 34.67
269.00 35.01
270.00 34.96
271.00 34.43
272.00 33.50
273.00 32.34
274.00 31.12
275.00 29.93
276.00 28.83
277.00 27.83
278.00 26.94
279.00 26.15
280.00 25.46
281.00 24.85
282.00 24.32
283.00 23.85
284.00 23.42
285.00 23.02
286.00 22.63
287.00 22.24
288.00 21.83
289.00 21.38
290.00 20.89
291.00 20.35
292.00 19.78
293.00 19.17
294.00 18.53
295.00 17.89
296.00 17.24
297.00 16.60
298.00 15.96
299.00 15.35
300.00 14.76
301.00 14.18
302.00 13.62
303.00 13.08
304.00 12.56
305.00 12.04
306.00 11.53
307.00 11.03
308.00 10.54
309.00 10.04
310.00 9.55
311.00 9.05
312.00 8.57
313.00 8.08
314.00 7.61
315.00 7.14
316.00 6.69
317.00 6.25
318.00 5.83
319.00 5.43
320.00 5.05
321.00 4.69
322.00 4.35
323.00 4.04
324.00 3.75
325.00 3.48
326.00 3.24
327.00 3.01
328.00 2.81
329.00 2.63
330.00 2.46
331.00 2.32
332.00 2.18
333.00 2.06
334.00 1.96
335.00 1.86
336.00 1.76
337.00 1.68
338.00 1.59
339.00 1.51
340.00 1.42
341.00 1.33
342.00 1.24
343.00 1.14
344.00 1.03
345.00 0.92
346.00 0.81
347.00 0.69
348.00 0.58
349.00 0.46
350.00 0.36
351.00 0.26
352.00 0.18
353.00 0.10
354.00 0.05
355.00 0.02
356.00 0.00
357.00 0.00
358.00 0.03
359.00 0.07
VERTICAL 360
0.00 34.11
1.00 21.29
2.00 11.61
3.00 6.12
4.00 2.68
5.00 0.70
6.00 0.00
7.00 0.60
8.00 2.77
9.00 7.41
10.00 19.31
11.00 16.57
12.00 10.80
13.00 10.58
14.00 14.18
15.00 24.21
16.00 17.90
17.00 13.93
18.00 14.32
19.00 18.74
20.00 29.37
21.00 19.83
22.00 16.46
23.00 17.20
24.00 22.83
25.00 32.35
26.00 20.29
27.00 17.62
28.00 18.52
29.00 23.55
30.00 30.87
31.00 19.31
32.00 15.02
33.00 13.68
34.00 14.44
35.00 17.26
36.00 22.89
37.00 30.40
38.00 24.18
39.00 21.01
40.00 20.85
41.00 23.30
42.00 29.25
43.00 46.92
44.00 35.86
45.00 32.19
46.00 31.00
47.00 30.07
48.00 29.31
49.00 29.30
50.00 30.51
51.00 33.19
52.00 37.61
53.00 43.07
54.00 40.92
55.00 36.35
56.00 33.72
57.00 32.81
58.00 32.91
59.00 32.80
60.00 32.64
61.00 33.92
62.00 37.07
63.00 38.63
64.00 36.48
65.00 34.51
66.00 33.21
67.00 32.33
68.00 31.67
69.00 31.60
70.00 32.18
71.00 32.50
72.00 32.73
73.00 33.78
74.00 35.13
75.00 35.83
76.00 34.87
77.00 32.71
78.00 32.03
79.00 33.68
80.00 36.94
81.00 39.17
82.00 39.33
83.00 39.16
84.00 41.50
85.00 47.90
86.00 45.63
87.00 46.54
88.00 48.50
89.00 42.07
90.00 39.95
91.00 37.36
92.00 35.07
93.00 36.17
94.00 44.05
95.00 42.03
96.00 36.05
97.00 35.82
98.00 38.61
99.00 40.45
100.00 40.20
101.00 41.95
102.00 45.32
103.00 45.00
104.00 41.17
105.00 38.29
106.00 37.29
107.00 37.79
108.00 39.00
109.00 39.63
110.00 38.22
111.00 36.17
112.00 35.08
113.00 34.95
114.00 34.91
115.00 34.07
116.00 32.84
117.00 32.05
118.00 31.88
119.00 32.18
120.00 33.09
121.00 34.84
122.00 36.27
123.00 36.38
124.00 37.91
125.00 42.60
126.00 41.48
127.00 38.99
128.00 40.62
129.00 44.71
130.00 48.55
131.00 47.63
132.00 41.24
133.00 39.93
134.00 42.26
135.00 39.83
136.00 36.21
137.00 35.33
138.00 36.05
139.00 36.81
140.00 37.51
141.00 39.82
142.00 45.99
143.00 49.18
144.00 42.06
145.00 38.70
146.00 37.58
147.00 37.81
148.00 37.88
149.00 37.47
150.00 36.31
151.00 35.05
152.00 36.00
153.00 38.87
154.00 38.03
155.00 39.08
156.00 47.02
157.00 37.93
158.00 35.87
159.00 40.31
160.00 38.12
161.00 33.66
162.00 33.43
163.00 34.74
164.00 35.63
165.00 37.52
166.00 40.51
167.00 40.51
168.00 36.17
169.00 32.55
170.00 31.16
171.00 31.37
172.00 32.27
173.00 33.42
174.00 33.00
175.00 30.98
176.00 30.63
177.00 33.25
178.00 40.40
179.00 46.64
180.00 37.18
181.00 33.41
182.00 33.00
183.00 34.87
184.00 34.94
185.00 33.55
186.00 33.44
187.00 33.71
188.00 35.36
189.00 41.62
190.00 53.09
191.00 55.74
192.00 41.57
193.00 33.61
194.00 30.79
195.00 29.78
196.00 29.21
197.00 29.52
198.00 29.98
199.00 28.78
200.00 27.77
201.00 28.23
202.00 29.92
203.00 32.33
204.00 34.07
205.00 34.42
206.00 34.70
207.00 33.55
208.00 32.60
209.00 34.82
210.00 43.10
211.00 45.93
212.00 41.14
213.00 37.30
214.00 33.41
215.00 31.71
216.00 31.72
217.00 32.94
218.00 35.44
219.00 39.32
220.00 43.80
221.00 47.58
222.00 49.49
223.00 45.04
224.00 39.58
225.00 36.92
226.00 36.82
227.00 38.20
228.00 38.49
229.00 36.47
230.00 33.85
231.00 31.78
232.00 30.43
233.00 29.34
234.00 28.13
235.00 27.21
236.00 27.19
237.00 28.42
238.00 31.06
239.00 35.24
240.00 41.04
241.00 45.56
242.00 43.70
243.00 40.64
244.00 37.50
245.00 35.23
246.00 34.48
247.00 35.59
248.00 39.03
249.00 44.40
250.00 42.49
251.00 38.61
252.00 36.04
253.00 33.86
254.00 32.03
255.00 30.94
256.00 30.95
257.00 32.32
258.00 34.97
259.00 36.75
260.00 35.53
261.00 34.59
262.00 35.48
263.00 39.00
264.00 46.84
265.00 41.47
266.00 35.91
267.00 33.38
268.00 32.52
269.00 32.99
270.00 34.95
271.00 39.32
272.00 46.95
273.00 41.49
274.00 37.58
275.00 36.73
276.00 38.10
277.00 42.32
278.00 50.11
279.00 46.68
280.00 45.45
281.00 48.74
282.00 53.20
283.00 53.26
284.00 48.70
285.00 46.02
286.00 46.36
287.00 46.33
288.00 45.22
289.00 46.52
290.00 49.91
291.00 46.40
292.00 41.61
293.00 39.36
294.00 39.77
295.00 43.52
296.00 43.99
297.00 35.49
298.00 29.77
299.00 25.52
300.00 21.98
301.00 18.96
302.00 16.52
303.00 14.65
304.00 13.28
305.00 12.31
306.00 11.72
307.00 11.50
308.00 11.70
309.00 12.38
310.00 13.68
311.00 16.02
312.00 20.43
313.00 30.14
314.00 24.11
315.00 18.40
316.00 16.14
317.00 15.87
318.00 17.45
319.00 21.71
320.00 30.19
321.00 24.24
322.00 20.09
323.00 19.40
324.00 21.50
325.00 28.19
326.00 30.69
327.00 22.20
328.00 19.52
329.00 20.01
330.00 24.37
331.00 41.64
332.00 23.97
333.00 19.41
334.00 18.36
335.00 19.70
336.00 23.34
337.00 25.81
338.00 22.55
339.00 20.60
340.00 20.80
341.00 21.88
342.00 21.29
343.00 19.96
344.00 20.25
345.00 23.38
346.00 32.75
347.00 29.11
348.00 23.19
349.00 21.75
350.00 22.39
351.00 22.98
352.00 22.37
353.00 22.65
354.00 25.61
355.00 32.56
356.00 30.03
357.00 25.65
358.00 24.07
359.00 24.72
