NAME ATR4518R7_1850_X_CO_P45_09T_yL
FREQUENCY 1850
GAIN 14.85 dBd
TILT	ELECTRICAL
COMMENT DATE 05.08.2013 +45 degrees polarized system Lever position 09T deg
HORIZONTAL 360
0.00 0.06
1.00 0.08
2.00 0.11
3.00 0.14
4.00 0.17
5.00 0.20
6.00 0.23
7.00 0.26
8.00 0.30
9.00 0.33
10.00 0.36
11.00 0.39
12.00 0.42
13.00 0.45
14.00 0.48
15.00 0.52
16.00 0.56
17.00 0.60
18.00 0.64
19.00 0.69
20.00 0.74
21.00 0.80
22.00 0.86
23.00 0.93
24.00 1.01
25.00 1.10
26.00 1.19
27.00 1.29
28.00 1.40
29.00 1.51
30.00 1.64
31.00 1.77
32.00 1.91
33.00 2.06
34.00 2.21
35.00 2.38
36.00 2.55
37.00 2.73
38.00 2.91
39.00 3.10
40.00 3.30
41.00 3.50
42.00 3.71
43.00 3.93
44.00 4.15
45.00 4.37
46.00 4.60
47.00 4.84
48.00 5.07
49.00 5.31
50.00 5.56
51.00 5.81
52.00 6.06
53.00 6.32
54.00 6.57
55.00 6.84
56.00 7.10
57.00 7.37
58.00 7.64
59.00 7.92
60.00 8.20
61.00 8.48
62.00 8.77
63.00 9.06
64.00 9.36
65.00 9.66
66.00 9.96
67.00 10.27
68.00 10.59
69.00 10.91
70.00 11.23
71.00 11.57
72.00 11.90
73.00 12.24
74.00 12.59
75.00 12.94
76.00 13.29
77.00 13.64
78.00 14.00
79.00 14.36
80.00 14.72
81.00 15.08
82.00 15.44
83.00 15.79
84.00 16.14
85.00 16.49
86.00 16.83
87.00 17.17
88.00 17.51
89.00 17.84
90.00 18.18
91.00 18.51
92.00 18.85
93.00 19.19
94.00 19.55
95.00 19.91
96.00 20.30
97.00 20.71
98.00 21.15
99.00 21.63
100.00 22.14
101.00 22.70
102.00 23.32
103.00 24.00
104.00 24.74
105.00 25.56
106.00 26.47
107.00 27.47
108.00 28.59
109.00 29.84
110.00 31.24
111.00 32.79
112.00 34.51
113.00 36.38
114.00 38.26
115.00 39.87
116.00 40.77
117.00 40.76
118.00 40.18
119.00 39.42
120.00 38.74
121.00 38.21
122.00 37.84
123.00 37.62
124.00 37.47
125.00 37.35
126.00 37.18
127.00 36.88
128.00 36.42
129.00 35.79
130.00 35.03
131.00 34.19
132.00 33.33
133.00 32.51
134.00 31.74
135.00 31.04
136.00 30.43
137.00 29.90
138.00 29.47
139.00 29.14
140.00 28.89
141.00 28.73
142.00 28.67
143.00 28.70
144.00 28.82
145.00 29.03
146.00 29.34
147.00 29.74
148.00 30.24
149.00 30.84
150.00 31.53
151.00 32.31
152.00 33.15
153.00 34.02
154.00 34.87
155.00 35.59
156.00 36.07
157.00 36.28
158.00 36.19
159.00 35.88
160.00 35.46
161.00 35.03
162.00 34.63
163.00 34.32
164.00 34.11
165.00 34.02
166.00 34.06
167.00 34.22
168.00 34.53
169.00 34.99
170.00 35.61
171.00 36.42
172.00 37.45
173.00 38.75
174.00 40.40
175.00 42.55
176.00 45.50
177.00 50.02
178.00 59.71
179.00 59.85
180.00 50.61
181.00 46.49
182.00 43.96
183.00 42.22
184.00 41.00
185.00 40.13
186.00 39.55
187.00 39.21
188.00 39.08
189.00 39.16
190.00 39.42
191.00 39.89
192.00 40.58
193.00 41.53
194.00 42.78
195.00 44.39
196.00 46.47
197.00 49.06
198.00 51.52
199.00 51.49
200.00 48.91
201.00 46.14
202.00 43.85
203.00 42.02
204.00 40.54
205.00 39.33
206.00 38.33
207.00 37.52
208.00 36.84
209.00 36.30
210.00 35.86
211.00 35.53
212.00 35.29
213.00 35.13
214.00 35.05
215.00 35.05
216.00 35.12
217.00 35.25
218.00 35.43
219.00 35.66
220.00 35.91
221.00 36.16
222.00 36.38
223.00 36.52
224.00 36.56
225.00 36.45
226.00 36.19
227.00 35.80
228.00 35.29
229.00 34.71
230.00 34.11
231.00 33.50
232.00 32.93
233.00 32.39
234.00 31.89
235.00 31.46
236.00 31.09
237.00 30.77
238.00 30.51
239.00 30.31
240.00 30.16
241.00 30.05
242.00 29.99
243.00 29.95
244.00 29.92
245.00 29.90
246.00 29.85
247.00 29.77
248.00 29.63
249.00 29.43
250.00 29.14
251.00 28.77
252.00 28.33
253.00 27.83
254.00 27.27
255.00 26.69
256.00 26.09
257.00 25.49
258.00 24.89
259.00 24.30
260.00 23.73
261.00 23.18
262.00 22.65
263.00 22.14
264.00 21.66
265.00 21.19
266.00 20.74
267.00 20.31
268.00 19.90
269.00 19.50
270.00 19.12
271.00 18.75
272.00 18.39
273.00 18.05
274.00 17.71
275.00 17.39
276.00 17.07
277.00 16.76
278.00 16.46
279.00 16.16
280.00 15.87
281.00 15.59
282.00 15.32
283.00 15.04
284.00 14.78
285.00 14.52
286.00 14.26
287.00 14.00
288.00 13.75
289.00 13.50
290.00 13.26
291.00 13.01
292.00 12.76
293.00 12.52
294.00 12.28
295.00 12.04
296.00 11.79
297.00 11.55
298.00 11.31
299.00 11.06
300.00 10.82
301.00 10.58
302.00 10.33
303.00 10.10
304.00 9.86
305.00 9.62
306.00 9.38
307.00 9.15
308.00 8.92
309.00 8.69
310.00 8.47
311.00 8.25
312.00 8.02
313.00 7.80
314.00 7.58
315.00 7.36
316.00 7.14
317.00 6.91
318.00 6.68
319.00 6.45
320.00 6.21
321.00 5.97
322.00 5.72
323.00 5.47
324.00 5.21
325.00 4.95
326.00 4.68
327.00 4.42
328.00 4.15
329.00 3.88
330.00 3.61
331.00 3.34
332.00 3.08
333.00 2.82
334.00 2.57
335.00 2.33
336.00 2.10
337.00 1.88
338.00 1.67
339.00 1.47
340.00 1.28
341.00 1.11
342.00 0.95
343.00 0.80
344.00 0.67
345.00 0.55
346.00 0.44
347.00 0.35
348.00 0.26
349.00 0.19
350.00 0.14
351.00 0.09
352.00 0.05
353.00 0.03
354.00 0.01
355.00 0.00
356.00 0.00
357.00 0.01
358.00 0.02
359.00 0.04
VERTICAL 360
0.00 31.25
1.00 23.40
2.00 16.40
3.00 11.14
4.00 7.19
5.00 4.26
6.00 2.17
7.00 0.81
8.00 0.11
9.00 0.05
10.00 0.65
11.00 1.97
12.00 4.19
13.00 7.71
14.00 13.57
15.00 22.94
16.00 16.70
17.00 13.00
18.00 12.16
19.00 13.26
20.00 16.43
21.00 22.11
22.00 21.54
23.00 16.67
24.00 14.21
25.00 13.41
26.00 13.88
27.00 15.64
28.00 19.13
29.00 24.62
30.00 23.39
31.00 18.97
32.00 16.89
33.00 16.65
34.00 18.04
35.00 21.35
36.00 27.35
37.00 28.41
38.00 23.02
39.00 19.94
40.00 18.25
41.00 17.41
42.00 17.21
43.00 17.60
44.00 18.54
45.00 19.93
46.00 21.53
47.00 22.83
48.00 23.27
49.00 22.89
50.00 22.27
51.00 21.82
52.00 21.76
53.00 22.16
54.00 23.01
55.00 24.25
56.00 25.70
57.00 27.12
58.00 28.35
59.00 29.50
60.00 30.86
61.00 32.75
62.00 35.47
63.00 39.16
64.00 43.31
65.00 45.36
66.00 43.85
67.00 41.34
68.00 39.43
69.00 38.38
70.00 37.88
71.00 37.49
72.00 36.97
73.00 36.20
74.00 35.28
75.00 34.43
76.00 33.83
77.00 33.48
78.00 33.33
79.00 33.37
80.00 33.60
81.00 33.99
82.00 34.41
83.00 34.81
84.00 35.32
85.00 36.18
86.00 37.68
87.00 39.88
88.00 42.20
89.00 43.05
90.00 41.83
91.00 39.72
92.00 37.72
93.00 36.35
94.00 35.85
95.00 36.28
96.00 37.62
97.00 39.47
98.00 40.81
99.00 41.10
100.00 41.06
101.00 41.03
102.00 40.97
103.00 41.04
104.00 41.34
105.00 41.56
106.00 41.33
107.00 40.76
108.00 39.93
109.00 38.76
110.00 37.26
111.00 35.74
112.00 34.53
113.00 33.84
114.00 33.67
115.00 33.90
116.00 34.28
117.00 34.58
118.00 34.65
119.00 34.55
120.00 34.45
121.00 34.49
122.00 34.66
123.00 34.84
124.00 34.90
125.00 34.87
126.00 34.90
127.00 35.08
128.00 35.38
129.00 35.75
130.00 36.31
131.00 37.17
132.00 38.12
133.00 38.66
134.00 38.47
135.00 37.93
136.00 37.90
137.00 39.28
138.00 43.42
139.00 57.97
140.00 48.15
141.00 43.22
142.00 42.82
143.00 43.21
144.00 40.58
145.00 37.72
146.00 36.50
147.00 37.01
148.00 39.20
149.00 42.89
150.00 44.83
151.00 42.22
152.00 39.96
153.00 39.08
154.00 39.02
155.00 38.51
156.00 37.18
157.00 36.33
158.00 36.84
159.00 38.45
160.00 38.27
161.00 35.49
162.00 33.15
163.00 31.78
164.00 31.00
165.00 30.57
166.00 30.60
167.00 31.37
168.00 33.15
169.00 36.20
170.00 40.67
171.00 44.43
172.00 42.31
173.00 39.31
174.00 37.49
175.00 36.67
176.00 36.43
177.00 36.29
178.00 36.24
179.00 36.62
180.00 37.29
181.00 36.94
182.00 35.33
183.00 34.02
184.00 33.82
185.00 34.82
186.00 36.77
187.00 39.43
188.00 43.02
189.00 48.34
190.00 48.09
191.00 43.81
192.00 42.34
193.00 43.37
194.00 47.16
195.00 57.14
196.00 56.61
197.00 47.55
198.00 42.92
199.00 39.94
200.00 38.64
201.00 39.60
202.00 45.10
203.00 51.37
204.00 38.00
205.00 32.98
206.00 30.20
207.00 28.56
208.00 27.64
209.00 27.30
210.00 27.45
211.00 27.96
212.00 28.68
213.00 29.51
214.00 30.44
215.00 31.49
216.00 32.73
217.00 34.45
218.00 37.27
219.00 42.43
220.00 54.58
221.00 47.20
222.00 42.07
223.00 40.22
224.00 39.73
225.00 39.87
226.00 40.36
227.00 41.31
228.00 42.96
229.00 44.96
230.00 45.23
231.00 43.04
232.00 40.53
233.00 38.75
234.00 37.97
235.00 38.29
236.00 39.76
237.00 42.37
238.00 45.98
239.00 50.23
240.00 54.44
241.00 59.02
242.00 64.21
243.00 57.19
244.00 52.16
245.00 49.04
246.00 46.17
247.00 43.53
248.00 41.76
249.00 41.09
250.00 41.44
251.00 42.61
252.00 44.59
253.00 47.58
254.00 49.81
255.00 46.43
256.00 42.14
257.00 38.94
258.00 36.67
259.00 35.15
260.00 34.25
261.00 33.83
262.00 33.69
263.00 33.67
264.00 33.59
265.00 33.47
266.00 33.35
267.00 33.33
268.00 33.49
269.00 33.79
270.00 34.07
271.00 34.05
272.00 33.60
273.00 32.76
274.00 31.54
275.00 29.96
276.00 28.20
277.00 26.59
278.00 25.35
279.00 24.59
280.00 24.34
281.00 24.46
282.00 24.74
283.00 24.96
284.00 25.03
285.00 25.10
286.00 25.34
287.00 25.92
288.00 26.91
289.00 28.38
290.00 30.49
291.00 33.70
292.00 39.04
293.00 40.68
294.00 33.34
295.00 28.31
296.00 24.88
297.00 22.57
298.00 21.18
299.00 20.57
300.00 20.60
301.00 21.14
302.00 22.15
303.00 23.73
304.00 26.24
305.00 30.75
306.00 41.48
307.00 34.40
308.00 27.92
309.00 24.81
310.00 23.28
311.00 22.84
312.00 23.48
313.00 25.58
314.00 30.62
315.00 42.50
316.00 28.69
317.00 23.19
318.00 20.35
319.00 18.94
320.00 18.62
321.00 19.36
322.00 21.46
323.00 26.09
324.00 43.29
325.00 27.35
326.00 20.91
327.00 17.73
328.00 16.14
329.00 15.74
330.00 16.47
331.00 18.51
332.00 22.31
333.00 28.67
334.00 31.22
335.00 27.69
336.00 27.22
337.00 29.95
338.00 33.48
339.00 27.35
340.00 22.55
341.00 19.99
342.00 19.06
343.00 19.61
344.00 21.84
345.00 26.23
346.00 31.38
347.00 29.55
348.00 28.24
349.00 30.00
350.00 29.79
351.00 23.84
352.00 19.48
353.00 16.90
354.00 15.68
355.00 15.64
356.00 16.78
357.00 19.26
358.00 23.32
359.00 29.13
