NAME ATR4518R7_2535_X_CO_M45_06T_yL
FREQUENCY 2535
GAIN 15.67 dBd
TILT	ELECTRICAL
COMMENT DATE 05.08.2013 -45 degrees polarized system Lever position 06T deg
HORIZONTAL 360
0.00 0.05
1.00 0.09
2.00 0.14
3.00 0.20
4.00 0.27
5.00 0.36
6.00 0.44
7.00 0.54
8.00 0.64
9.00 0.75
10.00 0.86
11.00 0.98
12.00 1.10
13.00 1.21
14.00 1.33
15.00 1.45
16.00 1.58
17.00 1.70
18.00 1.82
19.00 1.95
20.00 2.07
21.00 2.21
22.00 2.34
23.00 2.48
24.00 2.63
25.00 2.78
26.00 2.94
27.00 3.10
28.00 3.27
29.00 3.45
30.00 3.64
31.00 3.83
32.00 4.03
33.00 4.24
34.00 4.45
35.00 4.67
36.00 4.89
37.00 5.12
38.00 5.36
39.00 5.60
40.00 5.85
41.00 6.10
42.00 6.36
43.00 6.62
44.00 6.89
45.00 7.16
46.00 7.44
47.00 7.72
48.00 8.00
49.00 8.29
50.00 8.58
51.00 8.87
52.00 9.17
53.00 9.47
54.00 9.77
55.00 10.08
56.00 10.38
57.00 10.69
58.00 11.00
59.00 11.31
60.00 11.63
61.00 11.95
62.00 12.27
63.00 12.59
64.00 12.92
65.00 13.26
66.00 13.60
67.00 13.95
68.00 14.31
69.00 14.67
70.00 15.03
71.00 15.40
72.00 15.77
73.00 16.14
74.00 16.51
75.00 16.87
76.00 17.23
77.00 17.58
78.00 17.91
79.00 18.23
80.00 18.54
81.00 18.83
82.00 19.12
83.00 19.39
84.00 19.66
85.00 19.93
86.00 20.21
87.00 20.49
88.00 20.79
89.00 21.11
90.00 21.45
91.00 21.82
92.00 22.21
93.00 22.63
94.00 23.08
95.00 23.55
96.00 24.05
97.00 24.57
98.00 25.10
99.00 25.64
100.00 26.19
101.00 26.73
102.00 27.27
103.00 27.81
104.00 28.34
105.00 28.87
106.00 29.41
107.00 29.97
108.00 30.55
109.00 31.18
110.00 31.87
111.00 32.62
112.00 33.46
113.00 34.40
114.00 35.43
115.00 36.57
116.00 37.79
117.00 39.02
118.00 40.13
119.00 40.89
120.00 41.15
121.00 40.85
122.00 40.20
123.00 39.42
124.00 38.64
125.00 37.93
126.00 37.33
127.00 36.85
128.00 36.47
129.00 36.20
130.00 36.01
131.00 35.91
132.00 35.88
133.00 35.92
134.00 36.00
135.00 36.13
136.00 36.28
137.00 36.45
138.00 36.62
139.00 36.77
140.00 36.89
141.00 36.96
142.00 36.98
143.00 36.96
144.00 36.87
145.00 36.75
146.00 36.62
147.00 36.46
148.00 36.32
149.00 36.19
150.00 36.09
151.00 36.03
152.00 36.01
153.00 36.05
154.00 36.14
155.00 36.30
156.00 36.51
157.00 36.79
158.00 37.12
159.00 37.50
160.00 37.94
161.00 38.40
162.00 38.86
163.00 39.29
164.00 39.64
165.00 39.86
166.00 39.92
167.00 39.80
168.00 39.53
169.00 39.16
170.00 38.74
171.00 38.31
172.00 37.92
173.00 37.59
174.00 37.35
175.00 37.22
176.00 37.19
177.00 37.30
178.00 37.56
179.00 37.97
180.00 38.57
181.00 39.38
182.00 40.46
183.00 41.85
184.00 43.66
185.00 45.99
186.00 48.82
187.00 50.98
188.00 49.94
189.00 47.15
190.00 44.62
191.00 42.66
192.00 41.18
193.00 40.07
194.00 39.27
195.00 38.74
196.00 38.45
197.00 38.40
198.00 38.58
199.00 39.00
200.00 39.71
201.00 40.76
202.00 42.24
203.00 44.29
204.00 47.12
205.00 50.34
206.00 50.39
207.00 46.80
208.00 43.43
209.00 40.85
210.00 38.84
211.00 37.25
212.00 35.99
213.00 34.98
214.00 34.18
215.00 33.56
216.00 33.11
217.00 32.81
218.00 32.65
219.00 32.64
220.00 32.76
221.00 33.02
222.00 33.42
223.00 33.96
224.00 34.65
225.00 35.47
226.00 36.38
227.00 37.30
228.00 38.06
229.00 38.44
230.00 38.28
231.00 37.63
232.00 36.69
233.00 35.68
234.00 34.71
235.00 33.86
236.00 33.13
237.00 32.53
238.00 32.06
239.00 31.70
240.00 31.46
241.00 31.30
242.00 31.23
243.00 31.22
244.00 31.25
245.00 31.30
246.00 31.34
247.00 31.32
248.00 31.23
249.00 31.02
250.00 30.70
251.00 30.26
252.00 29.74
253.00 29.15
254.00 28.53
255.00 27.90
256.00 27.29
257.00 26.70
258.00 26.14
259.00 25.63
260.00 25.16
261.00 24.73
262.00 24.36
263.00 24.02
264.00 23.73
265.00 23.48
266.00 23.27
267.00 23.09
268.00 22.95
269.00 22.82
270.00 22.71
271.00 22.61
272.00 22.51
273.00 22.40
274.00 22.28
275.00 22.14
276.00 21.96
277.00 21.76
278.00 21.52
279.00 21.25
280.00 20.95
281.00 20.62
282.00 20.27
283.00 19.91
284.00 19.54
285.00 19.16
286.00 18.78
287.00 18.39
288.00 18.00
289.00 17.61
290.00 17.22
291.00 16.83
292.00 16.43
293.00 16.03
294.00 15.62
295.00 15.21
296.00 14.80
297.00 14.38
298.00 13.96
299.00 13.54
300.00 13.11
301.00 12.69
302.00 12.28
303.00 11.86
304.00 11.45
305.00 11.04
306.00 10.64
307.00 10.24
308.00 9.85
309.00 9.46
310.00 9.08
311.00 8.70
312.00 8.32
313.00 7.94
314.00 7.57
315.00 7.19
316.00 6.81
317.00 6.44
318.00 6.06
319.00 5.69
320.00 5.33
321.00 4.96
322.00 4.61
323.00 4.26
324.00 3.92
325.00 3.60
326.00 3.29
327.00 2.99
328.00 2.71
329.00 2.45
330.00 2.20
331.00 1.97
332.00 1.76
333.00 1.57
334.00 1.40
335.00 1.24
336.00 1.10
337.00 0.98
338.00 0.87
339.00 0.77
340.00 0.69
341.00 0.61
342.00 0.54
343.00 0.48
344.00 0.42
345.00 0.37
346.00 0.32
347.00 0.28
348.00 0.23
349.00 0.19
350.00 0.15
351.00 0.11
352.00 0.08
353.00 0.05
354.00 0.03
355.00 0.01
356.00 0.00
357.00 0.00
358.00 0.00
359.00 0.02
VERTICAL 360
0.00 19.20
1.00 13.87
2.00 8.63
3.00 4.64
4.00 1.92
5.00 0.38
6.00 0.00
7.00 0.86
8.00 3.27
9.00 8.18
10.00 21.39
11.00 15.77
12.00 10.41
13.00 9.99
14.00 12.73
15.00 18.36
16.00 16.92
17.00 13.39
18.00 12.86
19.00 15.05
20.00 21.49
21.00 32.37
22.00 20.02
23.00 17.69
24.00 19.48
25.00 27.71
26.00 27.45
27.00 19.92
28.00 18.59
29.00 21.25
30.00 32.95
31.00 25.47
32.00 18.28
33.00 15.14
34.00 13.81
35.00 13.99
36.00 15.86
37.00 19.92
38.00 27.69
39.00 37.41
40.00 28.81
41.00 25.87
42.00 25.21
43.00 26.46
44.00 29.33
45.00 30.69
46.00 28.87
47.00 28.16
48.00 29.56
49.00 32.58
50.00 34.48
51.00 34.22
52.00 34.65
53.00 35.90
54.00 36.43
55.00 35.49
56.00 33.82
57.00 32.37
58.00 31.78
59.00 32.23
60.00 33.44
61.00 34.69
62.00 34.85
63.00 33.83
64.00 33.12
65.00 33.83
66.00 36.33
67.00 40.40
68.00 43.35
69.00 40.03
70.00 37.64
71.00 38.48
72.00 42.55
73.00 46.34
74.00 42.32
75.00 37.47
76.00 35.81
77.00 38.29
78.00 48.16
79.00 56.20
80.00 53.38
81.00 40.54
82.00 36.36
83.00 37.13
84.00 42.56
85.00 48.94
86.00 42.28
87.00 36.77
88.00 34.46
89.00 35.05
90.00 37.35
91.00 38.07
92.00 36.12
93.00 34.39
94.00 34.47
95.00 36.67
96.00 39.71
97.00 40.30
98.00 38.74
99.00 37.72
100.00 38.52
101.00 41.04
102.00 44.36
103.00 47.24
104.00 48.43
105.00 52.93
106.00 49.11
107.00 44.21
108.00 44.90
109.00 45.85
110.00 43.20
111.00 42.91
112.00 43.52
113.00 44.06
114.00 45.00
115.00 41.99
116.00 40.22
117.00 41.80
118.00 45.45
119.00 47.74
120.00 47.47
121.00 46.70
122.00 45.42
123.00 38.15
124.00 33.45
125.00 31.58
126.00 31.76
127.00 33.33
128.00 35.40
129.00 36.39
130.00 35.79
131.00 35.03
132.00 35.13
133.00 36.46
134.00 39.31
135.00 43.22
136.00 44.86
137.00 43.66
138.00 41.80
139.00 39.52
140.00 36.89
141.00 34.07
142.00 31.95
143.00 31.14
144.00 31.71
145.00 33.41
146.00 36.03
147.00 39.69
148.00 42.01
149.00 39.70
150.00 38.50
151.00 40.12
152.00 43.65
153.00 41.27
154.00 38.09
155.00 38.19
156.00 42.48
157.00 45.26
158.00 39.71
159.00 38.72
160.00 41.14
161.00 44.71
162.00 45.50
163.00 44.49
164.00 44.50
165.00 43.25
166.00 39.82
167.00 39.86
168.00 45.78
169.00 39.99
170.00 34.59
171.00 32.47
172.00 31.82
173.00 32.91
174.00 37.30
175.00 46.98
176.00 42.60
177.00 40.11
178.00 36.99
179.00 34.73
180.00 35.12
181.00 37.82
182.00 41.98
183.00 44.62
184.00 39.86
185.00 36.64
186.00 36.18
187.00 37.64
188.00 39.14
189.00 37.63
190.00 34.97
191.00 33.71
192.00 34.55
193.00 37.84
194.00 40.64
195.00 37.53
196.00 35.06
197.00 34.32
198.00 35.17
199.00 37.00
200.00 36.98
201.00 35.59
202.00 35.74
203.00 38.36
204.00 45.39
205.00 55.60
206.00 43.09
207.00 40.54
208.00 40.58
209.00 40.42
210.00 38.71
211.00 36.96
212.00 35.94
213.00 35.64
214.00 36.12
215.00 37.71
216.00 40.84
217.00 44.96
218.00 45.62
219.00 43.76
220.00 41.47
221.00 38.42
222.00 35.92
223.00 34.54
224.00 33.80
225.00 32.85
226.00 31.75
227.00 31.29
228.00 31.70
229.00 32.47
230.00 33.14
231.00 34.13
232.00 35.31
233.00 35.23
234.00 34.21
235.00 33.40
236.00 32.53
237.00 31.05
238.00 29.33
239.00 28.12
240.00 27.82
241.00 28.52
242.00 30.13
243.00 32.62
244.00 36.31
245.00 42.14
246.00 48.98
247.00 43.73
248.00 40.62
249.00 40.22
250.00 41.62
251.00 43.51
252.00 44.59
253.00 45.23
254.00 45.01
255.00 44.58
256.00 46.53
257.00 52.84
258.00 46.30
259.00 40.40
260.00 36.81
261.00 34.03
262.00 32.12
263.00 31.44
264.00 31.99
265.00 33.52
266.00 35.78
267.00 39.16
268.00 44.30
269.00 55.75
270.00 45.74
271.00 37.22
272.00 33.55
273.00 32.21
274.00 31.85
275.00 32.01
276.00 33.58
277.00 38.04
278.00 44.24
279.00 40.44
280.00 38.49
281.00 38.73
282.00 40.62
283.00 43.35
284.00 40.51
285.00 36.99
286.00 35.64
287.00 35.79
288.00 36.54
289.00 36.92
290.00 36.27
291.00 34.65
292.00 32.73
293.00 31.12
294.00 30.04
295.00 29.22
296.00 27.65
297.00 24.78
298.00 21.53
299.00 18.70
300.00 16.47
301.00 14.83
302.00 13.72
303.00 13.08
304.00 12.97
305.00 13.47
306.00 14.73
307.00 16.94
308.00 20.25
309.00 23.64
310.00 22.73
311.00 19.68
312.00 17.76
313.00 17.32
314.00 18.49
315.00 21.61
316.00 26.26
317.00 24.79
318.00 20.81
319.00 18.69
320.00 18.25
321.00 19.53
322.00 23.36
323.00 34.62
324.00 30.22
325.00 23.67
326.00 22.33
327.00 24.34
328.00 32.76
329.00 30.74
330.00 22.18
331.00 19.11
332.00 18.81
333.00 21.48
334.00 29.88
335.00 25.75
336.00 19.87
337.00 18.20
338.00 19.09
339.00 22.69
340.00 28.81
341.00 24.86
342.00 21.32
343.00 21.18
344.00 24.31
345.00 29.33
346.00 24.20
347.00 20.48
348.00 19.64
349.00 21.39
350.00 26.92
351.00 47.01
352.00 30.87
353.00 30.07
354.00 35.22
355.00 29.24
356.00 24.12
357.00 22.15
358.00 21.75
359.00 21.57
