NAME ATR4518R7_2350_X_CO_P45_00T_yyR
FREQUENCY 2350
GAIN 15.60 dBd
TILT	ELECTRICAL
COMMENT DATE 05.08.2013 +45 degrees polarized system Lever position 00T deg
HORIZONTAL 360
0.00 0.00
1.00 0.00
2.00 0.00
3.00 0.01
4.00 0.03
5.00 0.06
6.00 0.09
7.00 0.13
8.00 0.18
9.00 0.23
10.00 0.29
11.00 0.36
12.00 0.43
13.00 0.50
14.00 0.58
15.00 0.67
16.00 0.76
17.00 0.85
18.00 0.95
19.00 1.05
20.00 1.16
21.00 1.27
22.00 1.39
23.00 1.52
24.00 1.65
25.00 1.79
26.00 1.94
27.00 2.10
28.00 2.27
29.00 2.45
30.00 2.64
31.00 2.84
32.00 3.05
33.00 3.27
34.00 3.51
35.00 3.76
36.00 4.02
37.00 4.29
38.00 4.57
39.00 4.86
40.00 5.17
41.00 5.48
42.00 5.81
43.00 6.14
44.00 6.48
45.00 6.83
46.00 7.18
47.00 7.54
48.00 7.90
49.00 8.26
50.00 8.63
51.00 9.00
52.00 9.37
53.00 9.74
54.00 10.11
55.00 10.49
56.00 10.86
57.00 11.23
58.00 11.60
59.00 11.98
60.00 12.36
61.00 12.75
62.00 13.13
63.00 13.53
64.00 13.93
65.00 14.34
66.00 14.76
67.00 15.19
68.00 15.62
69.00 16.06
70.00 16.51
71.00 16.96
72.00 17.42
73.00 17.88
74.00 18.34
75.00 18.80
76.00 19.25
77.00 19.69
78.00 20.12
79.00 20.54
80.00 20.94
81.00 21.33
82.00 21.70
83.00 22.06
84.00 22.41
85.00 22.75
86.00 23.08
87.00 23.42
88.00 23.76
89.00 24.12
90.00 24.48
91.00 24.87
92.00 25.28
93.00 25.71
94.00 26.17
95.00 26.66
96.00 27.18
97.00 27.72
98.00 28.29
99.00 28.88
100.00 29.49
101.00 30.10
102.00 30.70
103.00 31.29
104.00 31.85
105.00 32.37
106.00 32.84
107.00 33.25
108.00 33.62
109.00 33.94
110.00 34.25
111.00 34.54
112.00 34.84
113.00 35.17
114.00 35.55
115.00 36.00
116.00 36.52
117.00 37.16
118.00 37.93
119.00 38.85
120.00 39.96
121.00 41.30
122.00 42.93
123.00 44.90
124.00 47.18
125.00 49.31
126.00 49.89
127.00 48.39
128.00 46.21
129.00 44.23
130.00 42.61
131.00 41.31
132.00 40.28
133.00 39.47
134.00 38.85
135.00 38.39
136.00 38.08
137.00 37.90
138.00 37.85
139.00 37.91
140.00 38.08
141.00 38.35
142.00 38.71
143.00 39.14
144.00 39.63
145.00 40.12
146.00 40.57
147.00 40.91
148.00 41.08
149.00 41.05
150.00 40.81
151.00 40.42
152.00 39.93
153.00 39.40
154.00 38.90
155.00 38.44
156.00 38.04
157.00 37.73
158.00 37.49
159.00 37.34
160.00 37.28
161.00 37.30
162.00 37.39
163.00 37.56
164.00 37.81
165.00 38.12
166.00 38.48
167.00 38.88
168.00 39.31
169.00 39.75
170.00 40.17
171.00 40.56
172.00 40.90
173.00 41.18
174.00 41.42
175.00 41.61
176.00 41.79
177.00 41.98
178.00 42.19
179.00 42.45
180.00 42.75
181.00 43.11
182.00 43.48
183.00 43.81
184.00 44.04
185.00 44.05
186.00 43.78
187.00 43.23
188.00 42.45
189.00 41.54
190.00 40.59
191.00 39.66
192.00 38.80
193.00 38.02
194.00 37.34
195.00 36.75
196.00 36.26
197.00 35.86
198.00 35.56
199.00 35.35
200.00 35.23
201.00 35.20
202.00 35.27
203.00 35.42
204.00 35.67
205.00 36.02
206.00 36.46
207.00 37.01
208.00 37.66
209.00 38.41
210.00 39.27
211.00 40.22
212.00 41.24
213.00 42.30
214.00 43.30
215.00 44.14
216.00 44.68
217.00 44.88
218.00 44.77
219.00 44.45
220.00 44.05
221.00 43.65
222.00 43.30
223.00 43.00
224.00 42.74
225.00 42.49
226.00 42.20
227.00 41.83
228.00 41.33
229.00 40.68
230.00 39.88
231.00 38.99
232.00 38.04
233.00 37.07
234.00 36.11
235.00 35.18
236.00 34.31
237.00 33.50
238.00 32.74
239.00 32.06
240.00 31.43
241.00 30.86
242.00 30.36
243.00 29.91
244.00 29.52
245.00 29.18
246.00 28.89
247.00 28.65
248.00 28.45
249.00 28.30
250.00 28.19
251.00 28.11
252.00 28.07
253.00 28.06
254.00 28.08
255.00 28.12
256.00 28.18
257.00 28.25
258.00 28.32
259.00 28.39
260.00 28.44
261.00 28.48
262.00 28.48
263.00 28.45
264.00 28.37
265.00 28.25
266.00 28.07
267.00 27.85
268.00 27.57
269.00 27.25
270.00 26.90
271.00 26.51
272.00 26.09
273.00 25.66
274.00 25.21
275.00 24.74
276.00 24.27
277.00 23.79
278.00 23.31
279.00 22.83
280.00 22.35
281.00 21.86
282.00 21.37
283.00 20.89
284.00 20.40
285.00 19.91
286.00 19.42
287.00 18.93
288.00 18.44
289.00 17.94
290.00 17.45
291.00 16.96
292.00 16.46
293.00 15.96
294.00 15.47
295.00 14.98
296.00 14.49
297.00 14.00
298.00 13.52
299.00 13.04
300.00 12.57
301.00 12.10
302.00 11.64
303.00 11.19
304.00 10.74
305.00 10.31
306.00 9.88
307.00 9.47
308.00 9.06
309.00 8.67
310.00 8.28
311.00 7.91
312.00 7.55
313.00 7.20
314.00 6.86
315.00 6.53
316.00 6.22
317.00 5.91
318.00 5.62
319.00 5.34
320.00 5.07
321.00 4.82
322.00 4.57
323.00 4.33
324.00 4.11
325.00 3.89
326.00 3.68
327.00 3.49
328.00 3.30
329.00 3.12
330.00 2.95
331.00 2.78
332.00 2.62
333.00 2.47
334.00 2.32
335.00 2.18
336.00 2.04
337.00 1.91
338.00 1.78
339.00 1.65
340.00 1.53
341.00 1.41
342.00 1.29
343.00 1.18
344.00 1.07
345.00 0.96
346.00 0.85
347.00 0.75
348.00 0.66
349.00 0.57
350.00 0.48
351.00 0.40
352.00 0.33
353.00 0.26
354.00 0.20
355.00 0.14
356.00 0.10
357.00 0.06
358.00 0.03
359.00 0.01
VERTICAL 360
0.00 0.00
1.00 0.50
2.00 2.09
3.00 5.05
4.00 10.38
5.00 21.75
6.00 18.36
7.00 13.81
8.00 14.31
9.00 19.00
10.00 24.12
11.00 17.40
12.00 13.82
13.00 13.26
14.00 15.40
15.00 21.39
16.00 24.21
17.00 18.89
18.00 17.34
19.00 18.52
20.00 21.86
21.00 27.18
22.00 24.68
23.00 18.60
24.00 15.47
25.00 14.51
26.00 15.07
27.00 16.24
28.00 16.63
29.00 15.60
30.00 14.02
31.00 12.90
32.00 12.65
33.00 13.24
34.00 14.62
35.00 17.08
36.00 21.73
37.00 34.58
38.00 29.60
39.00 22.88
40.00 21.01
41.00 21.05
42.00 22.59
43.00 26.75
44.00 38.78
45.00 29.92
46.00 24.04
47.00 22.13
48.00 21.86
49.00 22.45
50.00 23.92
51.00 26.98
52.00 33.12
53.00 37.15
54.00 32.54
55.00 30.79
56.00 30.86
57.00 31.82
58.00 34.75
59.00 41.69
60.00 38.15
61.00 32.35
62.00 29.70
63.00 28.44
64.00 27.93
65.00 27.87
66.00 28.02
67.00 28.19
68.00 28.65
69.00 30.02
70.00 32.57
71.00 35.43
72.00 36.68
73.00 36.11
74.00 35.22
75.00 33.97
76.00 32.04
77.00 30.09
78.00 28.44
79.00 27.37
80.00 27.36
81.00 28.51
82.00 30.07
83.00 30.16
84.00 28.74
85.00 28.26
86.00 30.33
87.00 36.00
88.00 39.20
89.00 35.37
90.00 31.49
91.00 28.53
92.00 28.16
93.00 31.38
94.00 40.98
95.00 43.75
96.00 43.81
97.00 51.33
98.00 40.99
99.00 38.54
100.00 36.01
101.00 34.02
102.00 34.91
103.00 38.08
104.00 42.00
105.00 48.20
106.00 40.82
107.00 36.69
108.00 37.50
109.00 41.74
110.00 46.16
111.00 45.15
112.00 42.07
113.00 42.20
114.00 45.94
115.00 48.36
116.00 50.23
117.00 46.72
118.00 41.68
119.00 40.61
120.00 41.53
121.00 41.73
122.00 40.11
123.00 38.31
124.00 37.64
125.00 37.37
126.00 36.51
127.00 36.18
128.00 37.48
129.00 40.13
130.00 41.21
131.00 40.05
132.00 40.06
133.00 42.28
134.00 46.24
135.00 50.11
136.00 51.08
137.00 48.38
138.00 45.55
139.00 43.81
140.00 42.67
141.00 42.16
142.00 42.70
143.00 43.82
144.00 46.06
145.00 56.24
146.00 53.82
147.00 46.02
148.00 42.49
149.00 39.69
150.00 40.68
151.00 43.14
152.00 37.09
153.00 34.18
154.00 35.42
155.00 39.00
156.00 39.99
157.00 40.57
158.00 42.38
159.00 42.14
160.00 40.11
161.00 38.01
162.00 38.19
163.00 42.63
164.00 57.51
165.00 49.66
166.00 47.57
167.00 50.62
168.00 51.22
169.00 46.02
170.00 42.53
171.00 38.44
172.00 35.08
173.00 34.14
174.00 35.68
175.00 38.40
176.00 38.92
177.00 38.43
178.00 38.69
179.00 40.93
180.00 43.11
181.00 41.84
182.00 39.34
183.00 38.43
184.00 38.65
185.00 39.15
186.00 40.76
187.00 43.75
188.00 42.05
189.00 39.79
190.00 41.57
191.00 47.40
192.00 48.59
193.00 48.45
194.00 49.57
195.00 50.38
196.00 58.02
197.00 45.10
198.00 39.40
199.00 37.08
200.00 34.97
201.00 33.19
202.00 33.36
203.00 36.52
204.00 43.79
205.00 46.31
206.00 44.78
207.00 48.10
208.00 47.90
209.00 40.58
210.00 36.99
211.00 36.64
212.00 38.18
213.00 38.77
214.00 38.21
215.00 37.53
216.00 36.79
217.00 37.42
218.00 40.77
219.00 46.49
220.00 45.13
221.00 40.87
222.00 38.74
223.00 38.51
224.00 39.79
225.00 41.63
226.00 41.93
227.00 39.67
228.00 36.92
229.00 35.30
230.00 35.19
231.00 36.62
232.00 39.82
233.00 42.14
234.00 38.07
235.00 34.96
236.00 34.73
237.00 37.33
238.00 43.92
239.00 50.64
240.00 41.91
241.00 37.02
242.00 34.65
243.00 34.69
244.00 38.50
245.00 50.79
246.00 39.96
247.00 35.43
248.00 34.86
249.00 35.68
250.00 36.14
251.00 35.76
252.00 35.50
253.00 35.46
254.00 34.47
255.00 32.54
256.00 30.82
257.00 29.54
258.00 28.43
259.00 27.35
260.00 26.39
261.00 25.66
262.00 25.21
263.00 25.05
264.00 25.18
265.00 25.49
266.00 25.80
267.00 25.99
268.00 26.20
269.00 26.86
270.00 28.45
271.00 31.39
272.00 35.87
273.00 41.17
274.00 43.46
275.00 40.12
276.00 34.98
277.00 30.51
278.00 27.37
279.00 25.68
280.00 25.34
281.00 26.07
282.00 27.25
283.00 27.90
284.00 27.91
285.00 28.34
286.00 30.21
287.00 34.85
288.00 43.41
289.00 37.54
290.00 33.00
291.00 32.04
292.00 33.34
293.00 33.68
294.00 29.64
295.00 25.93
296.00 24.01
297.00 23.61
298.00 24.44
299.00 26.28
300.00 28.77
301.00 30.76
302.00 30.09
303.00 27.72
304.00 26.17
305.00 26.31
306.00 28.34
307.00 32.30
308.00 35.39
309.00 33.88
310.00 33.90
311.00 36.23
312.00 30.26
313.00 24.80
314.00 22.48
315.00 22.43
316.00 24.53
317.00 29.57
318.00 37.09
319.00 31.44
320.00 27.21
321.00 25.61
322.00 25.28
323.00 25.93
324.00 27.38
325.00 27.91
326.00 26.69
327.00 26.03
328.00 26.43
329.00 25.93
330.00 23.87
331.00 21.87
332.00 20.52
333.00 19.93
334.00 20.54
335.00 23.54
336.00 34.42
337.00 29.70
338.00 22.52
339.00 21.13
340.00 22.87
341.00 27.61
342.00 30.40
343.00 26.13
344.00 23.92
345.00 24.77
346.00 29.56
347.00 38.76
348.00 31.24
349.00 27.54
350.00 26.38
351.00 24.34
352.00 21.97
353.00 21.83
354.00 25.64
355.00 19.24
356.00 10.63
357.00 5.47
358.00 2.31
359.00 0.57
