NAME ATR4518R7_2535_X_CO_M45_09T_yL
FREQUENCY 2535
GAIN 15.26 dBd
TILT	ELECTRICAL
COMMENT DATE 05.08.2013 -45 degrees polarized system Lever position 09T deg
HORIZONTAL 360
0.00 0.02
1.00 0.04
2.00 0.07
3.00 0.11
4.00 0.16
5.00 0.21
6.00 0.28
7.00 0.36
8.00 0.44
9.00 0.53
10.00 0.63
11.00 0.74
12.00 0.85
13.00 0.97
14.00 1.10
15.00 1.23
16.00 1.36
17.00 1.50
18.00 1.64
19.00 1.78
20.00 1.93
21.00 2.08
22.00 2.24
23.00 2.40
24.00 2.56
25.00 2.74
26.00 2.91
27.00 3.09
28.00 3.28
29.00 3.47
30.00 3.67
31.00 3.88
32.00 4.08
33.00 4.30
34.00 4.51
35.00 4.73
36.00 4.95
37.00 5.17
38.00 5.40
39.00 5.62
40.00 5.84
41.00 6.07
42.00 6.29
43.00 6.52
44.00 6.74
45.00 6.97
46.00 7.20
47.00 7.43
48.00 7.67
49.00 7.91
50.00 8.16
51.00 8.41
52.00 8.67
53.00 8.94
54.00 9.21
55.00 9.49
56.00 9.77
57.00 10.06
58.00 10.35
59.00 10.65
60.00 10.95
61.00 11.26
62.00 11.57
63.00 11.88
64.00 12.19
65.00 12.51
66.00 12.82
67.00 13.13
68.00 13.44
69.00 13.75
70.00 14.05
71.00 14.36
72.00 14.66
73.00 14.95
74.00 15.24
75.00 15.53
76.00 15.81
77.00 16.09
78.00 16.37
79.00 16.64
80.00 16.92
81.00 17.20
82.00 17.48
83.00 17.77
84.00 18.07
85.00 18.39
86.00 18.72
87.00 19.07
88.00 19.45
89.00 19.84
90.00 20.26
91.00 20.70
92.00 21.17
93.00 21.66
94.00 22.17
95.00 22.70
96.00 23.23
97.00 23.76
98.00 24.28
99.00 24.79
100.00 25.28
101.00 25.75
102.00 26.18
103.00 26.59
104.00 26.98
105.00 27.37
106.00 27.76
107.00 28.17
108.00 28.61
109.00 29.09
110.00 29.64
111.00 30.27
112.00 30.98
113.00 31.80
114.00 32.74
115.00 33.83
116.00 35.07
117.00 36.49
118.00 38.10
119.00 39.88
120.00 41.71
121.00 43.24
122.00 43.90
123.00 43.46
124.00 42.37
125.00 41.17
126.00 40.07
127.00 39.15
128.00 38.41
129.00 37.83
130.00 37.40
131.00 37.10
132.00 36.92
133.00 36.85
134.00 36.90
135.00 37.07
136.00 37.35
137.00 37.76
138.00 38.33
139.00 39.06
140.00 40.01
141.00 41.20
142.00 42.73
143.00 44.69
144.00 47.23
145.00 50.37
146.00 52.78
147.00 51.36
148.00 48.27
149.00 45.67
150.00 43.68
151.00 42.20
152.00 41.07
153.00 40.23
154.00 39.62
155.00 39.21
156.00 38.96
157.00 38.83
158.00 38.78
159.00 38.76
160.00 38.70
161.00 38.54
162.00 38.19
163.00 37.66
164.00 36.96
165.00 36.13
166.00 35.26
167.00 34.39
168.00 33.58
169.00 32.83
170.00 32.17
171.00 31.62
172.00 31.17
173.00 30.84
174.00 30.63
175.00 30.54
176.00 30.59
177.00 30.78
178.00 31.13
179.00 31.64
180.00 32.35
181.00 33.27
182.00 34.42
183.00 35.77
184.00 37.19
185.00 38.27
186.00 38.39
187.00 37.41
188.00 35.89
189.00 34.34
190.00 32.98
191.00 31.85
192.00 30.96
193.00 30.30
194.00 29.85
195.00 29.61
196.00 29.56
197.00 29.73
198.00 30.12
199.00 30.76
200.00 31.68
201.00 32.97
202.00 34.74
203.00 37.23
204.00 40.91
205.00 46.41
206.00 46.77
207.00 41.19
208.00 37.39
209.00 34.83
210.00 33.01
211.00 31.69
212.00 30.74
213.00 30.08
214.00 29.69
215.00 29.53
216.00 29.58
217.00 29.84
218.00 30.32
219.00 31.03
220.00 31.95
221.00 33.11
222.00 34.42
223.00 35.71
224.00 36.56
225.00 36.48
226.00 35.53
227.00 34.19
228.00 32.84
229.00 31.66
230.00 30.67
231.00 29.88
232.00 29.27
233.00 28.83
234.00 28.52
235.00 28.35
236.00 28.28
237.00 28.31
238.00 28.41
239.00 28.57
240.00 28.76
241.00 28.95
242.00 29.11
243.00 29.23
244.00 29.28
245.00 29.26
246.00 29.16
247.00 28.99
248.00 28.78
249.00 28.55
250.00 28.31
251.00 28.07
252.00 27.84
253.00 27.63
254.00 27.42
255.00 27.23
256.00 27.04
257.00 26.85
258.00 26.63
259.00 26.40
260.00 26.14
261.00 25.86
262.00 25.54
263.00 25.20
264.00 24.84
265.00 24.47
266.00 24.10
267.00 23.74
268.00 23.39
269.00 23.06
270.00 22.75
271.00 22.47
272.00 22.22
273.00 21.99
274.00 21.78
275.00 21.59
276.00 21.41
277.00 21.23
278.00 21.05
279.00 20.86
280.00 20.64
281.00 20.41
282.00 20.14
283.00 19.84
284.00 19.50
285.00 19.14
286.00 18.76
287.00 18.36
288.00 17.94
289.00 17.52
290.00 17.10
291.00 16.68
292.00 16.27
293.00 15.85
294.00 15.45
295.00 15.05
296.00 14.66
297.00 14.27
298.00 13.88
299.00 13.49
300.00 13.10
301.00 12.70
302.00 12.31
303.00 11.90
304.00 11.49
305.00 11.08
306.00 10.66
307.00 10.23
308.00 9.81
309.00 9.38
310.00 8.95
311.00 8.53
312.00 8.11
313.00 7.69
314.00 7.29
315.00 6.88
316.00 6.49
317.00 6.11
318.00 5.74
319.00 5.37
320.00 5.02
321.00 4.68
322.00 4.35
323.00 4.04
324.00 3.74
325.00 3.46
326.00 3.18
327.00 2.93
328.00 2.68
329.00 2.46
330.00 2.25
331.00 2.05
332.00 1.87
333.00 1.70
334.00 1.54
335.00 1.40
336.00 1.27
337.00 1.15
338.00 1.04
339.00 0.94
340.00 0.85
341.00 0.77
342.00 0.69
343.00 0.61
344.00 0.55
345.00 0.48
346.00 0.42
347.00 0.36
348.00 0.31
349.00 0.26
350.00 0.21
351.00 0.16
352.00 0.12
353.00 0.09
354.00 0.06
355.00 0.03
356.00 0.02
357.00 0.00
358.00 0.00
359.00 0.00
VERTICAL 360
0.00 20.76
1.00 21.55
2.00 21.42
3.00 17.97
4.00 12.61
5.00 7.84
6.00 4.25
7.00 1.80
8.00 0.39
9.00 0.00
10.00 0.73
11.00 2.81
12.00 6.89
13.00 15.66
14.00 20.64
15.00 12.17
16.00 10.66
17.00 12.27
18.00 16.89
19.00 20.91
20.00 17.03
21.00 15.24
22.00 16.41
23.00 21.70
24.00 39.73
25.00 22.19
26.00 19.46
27.00 20.77
28.00 26.25
29.00 35.27
30.00 23.68
31.00 20.19
32.00 21.07
33.00 29.98
34.00 24.00
35.00 16.14
36.00 12.84
37.00 11.31
38.00 10.75
39.00 11.07
40.00 12.48
41.00 15.33
42.00 20.10
43.00 28.23
44.00 42.02
45.00 28.73
46.00 24.52
47.00 23.06
48.00 23.54
49.00 25.51
50.00 28.19
51.00 30.70
52.00 33.08
53.00 34.95
54.00 36.28
55.00 39.85
56.00 47.23
57.00 38.54
58.00 33.60
59.00 31.09
60.00 29.98
61.00 30.09
62.00 31.32
63.00 33.57
64.00 36.41
65.00 36.85
66.00 35.30
67.00 35.41
68.00 37.48
69.00 40.11
70.00 43.87
71.00 48.27
72.00 42.86
73.00 42.25
74.00 44.91
75.00 42.58
76.00 42.72
77.00 54.78
78.00 45.06
79.00 40.70
80.00 43.08
81.00 49.57
82.00 45.13
83.00 44.57
84.00 49.42
85.00 53.95
86.00 44.83
87.00 40.89
88.00 40.46
89.00 43.18
90.00 48.54
91.00 52.83
92.00 48.78
93.00 44.57
94.00 44.03
95.00 46.72
96.00 50.00
97.00 48.38
98.00 44.73
99.00 42.64
100.00 42.73
101.00 44.32
102.00 46.77
103.00 49.52
104.00 50.77
105.00 55.91
106.00 53.81
107.00 46.97
108.00 46.16
109.00 45.00
110.00 41.84
111.00 40.35
112.00 39.85
113.00 39.51
114.00 39.14
115.00 38.09
116.00 37.81
117.00 40.27
118.00 44.75
119.00 41.52
120.00 37.41
121.00 34.69
122.00 33.18
123.00 32.46
124.00 31.84
125.00 31.72
126.00 33.04
127.00 36.12
128.00 40.01
129.00 41.69
130.00 40.49
131.00 39.63
132.00 40.74
133.00 43.61
134.00 46.16
135.00 45.56
136.00 41.41
137.00 37.08
138.00 33.62
139.00 31.21
140.00 30.06
141.00 30.18
142.00 31.29
143.00 32.71
144.00 33.97
145.00 35.17
146.00 36.19
147.00 36.98
148.00 38.66
149.00 42.73
150.00 50.96
151.00 50.03
152.00 46.55
153.00 45.38
154.00 43.76
155.00 41.95
156.00 41.27
157.00 42.44
158.00 45.75
159.00 46.62
160.00 42.96
161.00 40.31
162.00 38.43
163.00 37.38
164.00 37.93
165.00 40.62
166.00 44.39
167.00 40.53
168.00 35.15
169.00 31.99
170.00 30.77
171.00 31.13
172.00 32.86
173.00 36.59
174.00 46.44
175.00 45.17
176.00 39.41
177.00 39.06
178.00 38.88
179.00 38.48
180.00 40.79
181.00 40.74
182.00 35.95
183.00 33.41
184.00 32.36
185.00 32.35
186.00 34.21
187.00 39.86
188.00 47.32
189.00 39.56
190.00 37.63
191.00 38.58
192.00 41.55
193.00 44.70
194.00 41.31
195.00 38.48
196.00 38.07
197.00 38.47
198.00 37.85
199.00 36.78
200.00 36.11
201.00 36.40
202.00 38.55
203.00 41.23
204.00 38.79
205.00 36.46
206.00 36.25
207.00 37.51
208.00 39.25
209.00 39.29
210.00 37.25
211.00 35.26
212.00 34.18
213.00 34.47
214.00 36.70
215.00 41.57
216.00 47.22
217.00 44.93
218.00 41.47
219.00 39.18
220.00 38.87
221.00 41.02
222.00 45.86
223.00 55.54
224.00 49.88
225.00 38.95
226.00 33.63
227.00 30.96
228.00 30.10
229.00 30.63
230.00 32.17
231.00 33.92
232.00 34.42
233.00 33.59
234.00 32.90
235.00 32.93
236.00 33.46
237.00 33.92
238.00 33.97
239.00 33.95
240.00 34.53
241.00 36.15
242.00 38.94
243.00 42.76
244.00 46.67
245.00 45.72
246.00 41.35
247.00 38.15
248.00 36.52
249.00 36.19
250.00 36.41
251.00 36.06
252.00 35.07
253.00 34.52
254.00 35.16
255.00 37.11
256.00 39.94
257.00 42.26
258.00 42.87
259.00 43.81
260.00 41.92
261.00 36.77
262.00 33.99
263.00 33.72
264.00 35.29
265.00 37.25
266.00 37.83
267.00 37.76
268.00 38.69
269.00 42.21
270.00 54.87
271.00 43.90
272.00 37.36
273.00 35.07
274.00 35.65
275.00 39.19
276.00 45.80
277.00 46.82
278.00 42.31
279.00 38.91
280.00 37.39
281.00 37.46
282.00 38.13
283.00 38.15
284.00 37.56
285.00 37.58
286.00 39.44
287.00 44.87
288.00 51.08
289.00 43.36
290.00 40.70
291.00 39.73
292.00 37.83
293.00 35.46
294.00 33.80
295.00 33.20
296.00 34.10
297.00 37.67
298.00 40.60
299.00 32.17
300.00 26.41
301.00 22.35
302.00 19.15
303.00 16.55
304.00 14.51
305.00 12.99
306.00 11.99
307.00 11.42
308.00 11.24
309.00 11.45
310.00 12.17
311.00 13.54
312.00 15.75
313.00 18.93
314.00 22.12
315.00 21.56
316.00 19.11
317.00 17.84
318.00 18.03
319.00 19.92
320.00 24.22
321.00 28.41
322.00 23.84
323.00 21.02
324.00 20.81
325.00 23.13
326.00 29.89
327.00 32.56
328.00 24.66
329.00 22.54
330.00 23.90
331.00 30.39
332.00 36.04
333.00 24.64
334.00 21.17
335.00 20.95
336.00 24.83
337.00 33.52
338.00 20.86
339.00 15.83
340.00 13.60
341.00 13.17
342.00 14.38
343.00 17.59
344.00 24.38
345.00 31.05
346.00 23.12
347.00 21.60
348.00 22.44
349.00 22.17
350.00 20.30
351.00 19.53
352.00 20.68
353.00 23.85
354.00 28.45
355.00 32.47
356.00 34.35
357.00 28.25
358.00 23.31
359.00 21.04
