NAME ATR4518R7_2350_X_CO_P45_04T_yyR
FREQUENCY 2350
GAIN 15.42 dBd
TILT	ELECTRICAL
COMMENT DATE 05.08.2013 +45 degrees polarized system Lever position 04T deg
HORIZONTAL 360
0.00 0.00
1.00 0.00
2.00 0.02
3.00 0.04
4.00 0.06
5.00 0.09
6.00 0.12
7.00 0.16
8.00 0.21
9.00 0.26
10.00 0.31
11.00 0.37
12.00 0.44
13.00 0.50
14.00 0.58
15.00 0.65
16.00 0.73
17.00 0.82
18.00 0.91
19.00 1.00
20.00 1.10
21.00 1.21
22.00 1.32
23.00 1.43
24.00 1.55
25.00 1.68
26.00 1.81
27.00 1.95
28.00 2.10
29.00 2.25
30.00 2.41
31.00 2.58
32.00 2.75
33.00 2.93
34.00 3.12
35.00 3.32
36.00 3.52
37.00 3.74
38.00 3.96
39.00 4.19
40.00 4.43
41.00 4.68
42.00 4.94
43.00 5.21
44.00 5.49
45.00 5.78
46.00 6.08
47.00 6.38
48.00 6.69
49.00 7.02
50.00 7.35
51.00 7.69
52.00 8.04
53.00 8.40
54.00 8.77
55.00 9.14
56.00 9.53
57.00 9.92
58.00 10.32
59.00 10.73
60.00 11.15
61.00 11.58
62.00 12.03
63.00 12.48
64.00 12.95
65.00 13.42
66.00 13.91
67.00 14.41
68.00 14.93
69.00 15.47
70.00 16.02
71.00 16.59
72.00 17.17
73.00 17.78
74.00 18.40
75.00 19.04
76.00 19.71
77.00 20.39
78.00 21.10
79.00 21.82
80.00 22.57
81.00 23.34
82.00 24.12
83.00 24.92
84.00 25.73
85.00 26.54
86.00 27.34
87.00 28.11
88.00 28.84
89.00 29.49
90.00 30.04
91.00 30.46
92.00 30.74
93.00 30.87
94.00 30.87
95.00 30.76
96.00 30.58
97.00 30.35
98.00 30.10
99.00 29.86
100.00 29.63
101.00 29.44
102.00 29.29
103.00 29.19
104.00 29.14
105.00 29.15
106.00 29.21
107.00 29.34
108.00 29.53
109.00 29.80
110.00 30.13
111.00 30.55
112.00 31.04
113.00 31.63
114.00 32.31
115.00 33.10
116.00 34.00
117.00 35.04
118.00 36.20
119.00 37.53
120.00 39.00
121.00 40.58
122.00 42.14
123.00 43.41
124.00 43.98
125.00 43.75
126.00 42.95
127.00 41.98
128.00 41.05
129.00 40.25
130.00 39.61
131.00 39.12
132.00 38.77
133.00 38.55
134.00 38.45
135.00 38.46
136.00 38.58
137.00 38.78
138.00 39.08
139.00 39.46
140.00 39.92
141.00 40.45
142.00 41.05
143.00 41.70
144.00 42.39
145.00 43.12
146.00 43.85
147.00 44.56
148.00 45.22
149.00 45.78
150.00 46.17
151.00 46.36
152.00 46.29
153.00 45.95
154.00 45.37
155.00 44.60
156.00 43.72
157.00 42.77
158.00 41.80
159.00 40.86
160.00 39.97
161.00 39.15
162.00 38.40
163.00 37.72
164.00 37.15
165.00 36.65
166.00 36.25
167.00 35.96
168.00 35.77
169.00 35.69
170.00 35.72
171.00 35.89
172.00 36.20
173.00 36.67
174.00 37.32
175.00 38.20
176.00 39.38
177.00 40.93
178.00 43.07
179.00 46.18
180.00 51.45
181.00 65.78
182.00 53.43
183.00 46.92
184.00 43.27
185.00 40.77
186.00 38.93
187.00 37.51
188.00 36.39
189.00 35.51
190.00 34.82
191.00 34.29
192.00 33.89
193.00 33.61
194.00 33.43
195.00 33.32
196.00 33.28
197.00 33.28
198.00 33.31
199.00 33.34
200.00 33.37
201.00 33.36
202.00 33.33
203.00 33.26
204.00 33.16
205.00 33.05
206.00 32.93
207.00 32.82
208.00 32.74
209.00 32.69
210.00 32.68
211.00 32.72
212.00 32.80
213.00 32.92
214.00 33.07
215.00 33.21
216.00 33.34
217.00 33.42
218.00 33.43
219.00 33.36
220.00 33.20
221.00 32.95
222.00 32.65
223.00 32.31
224.00 31.97
225.00 31.65
226.00 31.37
227.00 31.13
228.00 30.96
229.00 30.85
230.00 30.81
231.00 30.84
232.00 30.93
233.00 31.07
234.00 31.26
235.00 31.47
236.00 31.69
237.00 31.88
238.00 32.01
239.00 32.06
240.00 31.99
241.00 31.82
242.00 31.54
243.00 31.17
244.00 30.75
245.00 30.30
246.00 29.84
247.00 29.39
248.00 28.97
249.00 28.58
250.00 28.23
251.00 27.91
252.00 27.63
253.00 27.39
254.00 27.19
255.00 27.01
256.00 26.87
257.00 26.75
258.00 26.67
259.00 26.60
260.00 26.55
261.00 26.53
262.00 26.51
263.00 26.50
264.00 26.50
265.00 26.50
266.00 26.48
267.00 26.45
268.00 26.40
269.00 26.32
270.00 26.20
271.00 26.05
272.00 25.85
273.00 25.61
274.00 25.32
275.00 24.99
276.00 24.63
277.00 24.25
278.00 23.84
279.00 23.41
280.00 22.97
281.00 22.52
282.00 22.07
283.00 21.62
284.00 21.17
285.00 20.71
286.00 20.26
287.00 19.81
288.00 19.36
289.00 18.92
290.00 18.47
291.00 18.02
292.00 17.57
293.00 17.13
294.00 16.68
295.00 16.23
296.00 15.78
297.00 15.32
298.00 14.87
299.00 14.42
300.00 13.96
301.00 13.51
302.00 13.07
303.00 12.62
304.00 12.18
305.00 11.74
306.00 11.32
307.00 10.89
308.00 10.48
309.00 10.07
310.00 9.67
311.00 9.28
312.00 8.90
313.00 8.53
314.00 8.18
315.00 7.82
316.00 7.48
317.00 7.15
318.00 6.83
319.00 6.52
320.00 6.21
321.00 5.91
322.00 5.62
323.00 5.34
324.00 5.07
325.00 4.80
326.00 4.54
327.00 4.28
328.00 4.04
329.00 3.79
330.00 3.56
331.00 3.33
332.00 3.10
333.00 2.89
334.00 2.67
335.00 2.47
336.00 2.27
337.00 2.08
338.00 1.90
339.00 1.72
340.00 1.55
341.00 1.39
342.00 1.24
343.00 1.10
344.00 0.96
345.00 0.83
346.00 0.72
347.00 0.61
348.00 0.51
349.00 0.42
350.00 0.34
351.00 0.27
352.00 0.21
353.00 0.15
354.00 0.11
355.00 0.07
356.00 0.04
357.00 0.02
358.00 0.01
359.00 0.00
VERTICAL 360
0.00 8.83
1.00 4.88
2.00 2.18
3.00 0.58
4.00 0.00
5.00 0.47
6.00 2.13
7.00 5.41
8.00 11.82
9.00 24.94
10.00 15.08
11.00 11.21
12.00 11.34
13.00 14.62
14.00 22.05
15.00 19.97
16.00 14.85
17.00 13.58
18.00 14.78
19.00 18.24
20.00 22.01
21.00 20.72
22.00 19.31
23.00 20.90
24.00 27.19
25.00 35.30
26.00 24.56
27.00 20.48
28.00 18.46
29.00 17.48
30.00 17.46
31.00 18.43
32.00 20.22
33.00 22.26
34.00 23.57
35.00 23.50
36.00 22.74
37.00 22.14
38.00 21.74
39.00 21.70
40.00 22.82
41.00 26.55
42.00 42.32
43.00 33.11
44.00 26.42
45.00 24.87
46.00 25.46
47.00 27.64
48.00 31.46
49.00 34.08
50.00 31.21
51.00 28.18
52.00 26.00
53.00 24.35
54.00 23.48
55.00 23.75
56.00 25.40
57.00 28.61
58.00 33.37
59.00 39.00
60.00 42.77
61.00 42.03
62.00 40.24
63.00 41.06
64.00 50.54
65.00 46.71
66.00 37.35
67.00 34.21
68.00 32.99
69.00 32.21
70.00 31.19
71.00 30.15
72.00 29.60
73.00 29.71
74.00 30.09
75.00 30.09
76.00 29.46
77.00 28.61
78.00 28.12
79.00 28.34
80.00 29.17
81.00 30.25
82.00 31.07
83.00 30.90
84.00 29.82
85.00 28.52
86.00 27.40
87.00 26.92
88.00 27.35
89.00 28.52
90.00 29.97
91.00 30.64
92.00 30.15
93.00 30.65
94.00 33.32
95.00 34.47
96.00 32.66
97.00 32.55
98.00 34.05
99.00 36.80
100.00 44.10
101.00 42.90
102.00 36.36
103.00 35.09
104.00 36.50
105.00 40.20
106.00 44.54
107.00 42.56
108.00 41.07
109.00 42.50
110.00 46.31
111.00 50.41
112.00 45.04
113.00 41.27
114.00 40.53
115.00 41.12
116.00 41.52
117.00 41.16
118.00 40.95
119.00 41.71
120.00 42.23
121.00 40.69
122.00 38.49
123.00 37.60
124.00 39.23
125.00 42.95
126.00 40.99
127.00 37.85
128.00 37.55
129.00 38.20
130.00 38.21
131.00 38.96
132.00 40.81
133.00 40.36
134.00 38.13
135.00 36.68
136.00 36.03
137.00 36.24
138.00 37.26
139.00 38.66
140.00 40.08
141.00 41.35
142.00 42.26
143.00 43.08
144.00 44.92
145.00 49.60
146.00 60.81
147.00 60.49
148.00 49.71
149.00 46.74
150.00 53.58
151.00 48.06
152.00 39.51
153.00 37.60
154.00 39.36
155.00 43.75
156.00 44.68
157.00 41.52
158.00 40.79
159.00 41.40
160.00 39.34
161.00 37.66
162.00 38.05
163.00 37.75
164.00 36.62
165.00 36.97
166.00 38.45
167.00 41.07
168.00 48.39
169.00 49.09
170.00 44.93
171.00 44.59
172.00 44.01
173.00 44.84
174.00 49.49
175.00 56.18
176.00 51.45
177.00 46.89
178.00 45.71
179.00 45.98
180.00 43.47
181.00 38.55
182.00 34.91
183.00 35.83
184.00 39.47
185.00 45.05
186.00 53.09
187.00 53.66
188.00 47.94
189.00 47.90
190.00 40.88
191.00 37.39
192.00 38.68
193.00 42.49
194.00 41.83
195.00 42.44
196.00 43.40
197.00 40.31
198.00 40.44
199.00 45.58
200.00 51.08
201.00 45.13
202.00 42.03
203.00 42.84
204.00 49.72
205.00 55.83
206.00 52.13
207.00 59.20
208.00 51.26
209.00 48.55
210.00 47.75
211.00 45.15
212.00 42.75
213.00 41.04
214.00 40.72
215.00 40.78
216.00 39.25
217.00 37.95
218.00 37.82
219.00 37.77
220.00 37.14
221.00 36.27
222.00 35.70
223.00 35.96
224.00 36.99
225.00 37.83
226.00 37.59
227.00 36.58
228.00 35.62
229.00 35.42
230.00 36.70
231.00 40.14
232.00 44.92
233.00 44.82
234.00 41.96
235.00 40.38
236.00 41.11
237.00 46.14
238.00 58.73
239.00 46.29
240.00 41.36
241.00 38.19
242.00 35.40
243.00 33.39
244.00 32.58
245.00 32.93
246.00 33.76
247.00 34.01
248.00 33.35
249.00 32.36
250.00 31.63
251.00 31.31
252.00 30.94
253.00 29.96
254.00 28.42
255.00 26.95
256.00 26.15
257.00 26.16
258.00 26.69
259.00 27.12
260.00 26.99
261.00 26.58
262.00 26.54
263.00 27.22
264.00 28.34
265.00 29.17
266.00 29.01
267.00 28.01
268.00 27.36
269.00 28.08
270.00 30.44
271.00 33.64
272.00 35.75
273.00 36.69
274.00 37.32
275.00 37.31
276.00 35.08
277.00 31.62
278.00 28.61
279.00 26.03
280.00 23.91
281.00 22.49
282.00 21.75
283.00 21.35
284.00 20.94
285.00 20.38
286.00 19.77
287.00 19.23
288.00 18.67
289.00 17.98
290.00 17.24
291.00 16.64
292.00 16.28
293.00 16.21
294.00 16.43
295.00 17.01
296.00 18.04
297.00 19.66
298.00 22.03
299.00 25.54
300.00 31.43
301.00 40.30
302.00 33.30
303.00 27.82
304.00 24.73
305.00 22.70
306.00 21.69
307.00 22.06
308.00 24.25
309.00 28.15
310.00 28.92
311.00 25.95
312.00 24.39
313.00 24.46
314.00 26.04
315.00 28.94
316.00 28.87
317.00 25.12
318.00 22.82
319.00 22.37
320.00 23.44
321.00 26.18
322.00 30.40
323.00 28.85
324.00 24.04
325.00 21.57
326.00 21.16
327.00 22.62
328.00 25.64
329.00 26.30
330.00 22.22
331.00 18.90
332.00 17.54
333.00 18.02
334.00 19.79
335.00 21.19
336.00 21.17
337.00 21.18
338.00 22.14
339.00 24.39
340.00 29.36
341.00 34.85
342.00 27.16
343.00 23.69
344.00 24.30
345.00 30.00
346.00 34.17
347.00 25.83
348.00 23.07
349.00 23.04
350.00 24.63
351.00 25.95
352.00 25.55
353.00 26.17
354.00 30.81
355.00 34.62
356.00 27.89
357.00 25.30
358.00 21.13
359.00 14.35
