NAME ATR4518R7_1750_X_CO_P45_03T_yL
FREQUENCY 1750
GAIN 15.04 dBd
TILT	ELECTRICAL
COMMENT DATE 05.08.2013 +45 degrees polarized system Lever position 03T deg
HORIZONTAL 360
0.00 0.00
1.00 0.00
2.00 0.00
3.00 0.00
4.00 0.02
5.00 0.04
6.00 0.07
7.00 0.10
8.00 0.14
9.00 0.19
10.00 0.24
11.00 0.29
12.00 0.36
13.00 0.42
14.00 0.49
15.00 0.56
16.00 0.64
17.00 0.72
18.00 0.81
19.00 0.89
20.00 0.99
21.00 1.08
22.00 1.18
23.00 1.28
24.00 1.39
25.00 1.50
26.00 1.61
27.00 1.73
28.00 1.85
29.00 1.98
30.00 2.12
31.00 2.26
32.00 2.41
33.00 2.56
34.00 2.72
35.00 2.89
36.00 3.06
37.00 3.23
38.00 3.42
39.00 3.61
40.00 3.80
41.00 4.00
42.00 4.20
43.00 4.41
44.00 4.63
45.00 4.85
46.00 5.07
47.00 5.30
48.00 5.53
49.00 5.76
50.00 6.00
51.00 6.24
52.00 6.48
53.00 6.73
54.00 6.98
55.00 7.24
56.00 7.50
57.00 7.76
58.00 8.03
59.00 8.31
60.00 8.59
61.00 8.87
62.00 9.16
63.00 9.46
64.00 9.77
65.00 10.08
66.00 10.40
67.00 10.73
68.00 11.07
69.00 11.41
70.00 11.77
71.00 12.13
72.00 12.50
73.00 12.88
74.00 13.27
75.00 13.67
76.00 14.07
77.00 14.48
78.00 14.89
79.00 15.30
80.00 15.72
81.00 16.14
82.00 16.55
83.00 16.97
84.00 17.37
85.00 17.77
86.00 18.17
87.00 18.55
88.00 18.92
89.00 19.28
90.00 19.63
91.00 19.97
92.00 20.30
93.00 20.62
94.00 20.93
95.00 21.24
96.00 21.55
97.00 21.86
98.00 22.16
99.00 22.47
100.00 22.78
101.00 23.09
102.00 23.41
103.00 23.73
104.00 24.04
105.00 24.36
106.00 24.67
107.00 24.98
108.00 25.28
109.00 25.57
110.00 25.84
111.00 26.11
112.00 26.37
113.00 26.63
114.00 26.88
115.00 27.14
116.00 27.41
117.00 27.70
118.00 28.01
119.00 28.33
120.00 28.69
121.00 29.06
122.00 29.44
123.00 29.83
124.00 30.20
125.00 30.52
126.00 30.77
127.00 30.91
128.00 30.94
129.00 30.85
130.00 30.64
131.00 30.35
132.00 30.01
133.00 29.65
134.00 29.30
135.00 28.98
136.00 28.71
137.00 28.50
138.00 28.36
139.00 28.30
140.00 28.33
141.00 28.44
142.00 28.65
143.00 28.95
144.00 29.38
145.00 29.92
146.00 30.60
147.00 31.43
148.00 32.44
149.00 33.66
150.00 35.14
151.00 36.92
152.00 39.04
153.00 41.40
154.00 43.35
155.00 43.50
156.00 41.93
157.00 39.97
158.00 38.28
159.00 36.95
160.00 35.93
161.00 35.18
162.00 34.67
163.00 34.37
164.00 34.27
165.00 34.34
166.00 34.60
167.00 35.04
168.00 35.68
169.00 36.53
170.00 37.60
171.00 38.88
172.00 40.31
173.00 41.65
174.00 42.40
175.00 42.07
176.00 40.87
177.00 39.37
178.00 37.93
179.00 36.68
180.00 35.63
181.00 34.78
182.00 34.12
183.00 33.62
184.00 33.27
185.00 33.06
186.00 32.99
187.00 33.06
188.00 33.25
189.00 33.59
190.00 34.06
191.00 34.68
192.00 35.47
193.00 36.42
194.00 37.55
195.00 38.86
196.00 40.24
197.00 41.50
198.00 42.24
199.00 42.05
200.00 41.08
201.00 39.75
202.00 38.42
203.00 37.20
204.00 36.15
205.00 35.27
206.00 34.53
207.00 33.92
208.00 33.44
209.00 33.07
210.00 32.81
211.00 32.64
212.00 32.58
213.00 32.60
214.00 32.73
215.00 32.95
216.00 33.28
217.00 33.74
218.00 34.32
219.00 35.07
220.00 36.00
221.00 37.17
222.00 38.65
223.00 40.55
224.00 43.02
225.00 46.07
226.00 48.16
227.00 46.27
228.00 42.93
229.00 40.08
230.00 37.82
231.00 35.99
232.00 34.50
233.00 33.25
234.00 32.20
235.00 31.30
236.00 30.54
237.00 29.90
238.00 29.35
239.00 28.89
240.00 28.50
241.00 28.18
242.00 27.92
243.00 27.72
244.00 27.54
245.00 27.41
246.00 27.29
247.00 27.18
248.00 27.08
249.00 26.96
250.00 26.82
251.00 26.65
252.00 26.44
253.00 26.20
254.00 25.92
255.00 25.59
256.00 25.24
257.00 24.86
258.00 24.47
259.00 24.06
260.00 23.65
261.00 23.23
262.00 22.82
263.00 22.41
264.00 22.00
265.00 21.61
266.00 21.22
267.00 20.84
268.00 20.47
269.00 20.10
270.00 19.73
271.00 19.37
272.00 19.01
273.00 18.65
274.00 18.29
275.00 17.93
276.00 17.58
277.00 17.22
278.00 16.86
279.00 16.51
280.00 16.16
281.00 15.80
282.00 15.45
283.00 15.10
284.00 14.76
285.00 14.42
286.00 14.08
287.00 13.74
288.00 13.42
289.00 13.09
290.00 12.77
291.00 12.46
292.00 12.15
293.00 11.84
294.00 11.54
295.00 11.25
296.00 10.96
297.00 10.67
298.00 10.39
299.00 10.12
300.00 9.84
301.00 9.57
302.00 9.31
303.00 9.05
304.00 8.80
305.00 8.55
306.00 8.30
307.00 8.06
308.00 7.82
309.00 7.58
310.00 7.35
311.00 7.12
312.00 6.90
313.00 6.67
314.00 6.45
315.00 6.24
316.00 6.02
317.00 5.81
318.00 5.61
319.00 5.40
320.00 5.19
321.00 4.99
322.00 4.79
323.00 4.59
324.00 4.39
325.00 4.20
326.00 4.00
327.00 3.81
328.00 3.62
329.00 3.43
330.00 3.25
331.00 3.07
332.00 2.89
333.00 2.72
334.00 2.55
335.00 2.38
336.00 2.22
337.00 2.06
338.00 1.91
339.00 1.76
340.00 1.62
341.00 1.49
342.00 1.35
343.00 1.23
344.00 1.10
345.00 0.99
346.00 0.88
347.00 0.77
348.00 0.67
349.00 0.58
350.00 0.49
351.00 0.41
352.00 0.34
353.00 0.27
354.00 0.21
355.00 0.16
356.00 0.11
357.00 0.08
358.00 0.04
359.00 0.02
VERTICAL 360
0.00 3.87
1.00 1.82
2.00 0.57
3.00 0.02
4.00 0.14
5.00 0.97
6.00 2.64
7.00 5.47
8.00 10.22
9.00 20.33
10.00 20.39
11.00 13.13
12.00 10.81
13.00 10.57
14.00 11.99
15.00 15.51
16.00 23.77
17.00 27.37
18.00 17.98
19.00 14.78
20.00 13.76
21.00 14.20
22.00 15.92
23.00 18.38
24.00 19.24
25.00 17.85
26.00 16.64
27.00 16.35
28.00 16.91
29.00 18.48
30.00 21.70
31.00 25.68
32.00 22.32
33.00 18.34
34.00 16.34
35.00 15.54
36.00 15.35
37.00 15.48
38.00 16.08
39.00 17.51
40.00 20.22
41.00 24.74
42.00 31.89
43.00 41.92
44.00 37.75
45.00 31.87
46.00 28.44
47.00 26.77
48.00 26.16
49.00 25.72
50.00 24.66
51.00 23.26
52.00 22.21
53.00 21.70
54.00 21.58
55.00 21.70
56.00 22.11
57.00 22.96
58.00 24.37
59.00 26.31
60.00 28.51
61.00 30.52
62.00 31.84
63.00 32.24
64.00 32.38
65.00 32.97
66.00 33.85
67.00 34.37
68.00 34.27
69.00 33.92
70.00 34.04
71.00 35.05
72.00 36.71
73.00 38.44
74.00 39.71
75.00 39.97
76.00 40.21
77.00 42.43
78.00 48.24
79.00 55.58
80.00 62.07
81.00 51.81
82.00 43.03
83.00 39.87
84.00 39.72
85.00 41.27
86.00 41.58
87.00 40.71
88.00 41.52
89.00 42.66
90.00 39.85
91.00 37.67
92.00 38.32
93.00 42.77
94.00 55.30
95.00 46.23
96.00 42.59
97.00 41.36
98.00 40.81
99.00 41.70
100.00 45.53
101.00 56.27
102.00 54.75
103.00 50.51
104.00 50.11
105.00 51.08
106.00 57.41
107.00 55.45
108.00 47.30
109.00 45.07
110.00 45.66
111.00 47.40
112.00 47.84
113.00 46.06
114.00 44.11
115.00 43.57
116.00 44.87
117.00 47.70
118.00 50.82
119.00 52.91
120.00 54.49
121.00 57.56
122.00 62.79
123.00 63.94
124.00 63.46
125.00 48.26
126.00 41.64
127.00 38.15
128.00 36.42
129.00 35.59
130.00 35.00
131.00 34.48
132.00 34.14
133.00 34.01
134.00 33.96
135.00 33.93
136.00 34.06
137.00 34.56
138.00 35.60
139.00 37.20
140.00 39.28
141.00 41.72
142.00 44.15
143.00 45.04
144.00 43.52
145.00 41.74
146.00 41.03
147.00 41.74
148.00 43.93
149.00 44.05
150.00 39.17
151.00 35.24
152.00 33.18
153.00 32.72
154.00 33.65
155.00 35.75
156.00 39.01
157.00 44.92
158.00 48.50
159.00 39.68
160.00 35.86
161.00 34.81
162.00 35.96
163.00 38.87
164.00 39.82
165.00 37.25
166.00 35.57
167.00 34.85
168.00 34.18
169.00 33.71
170.00 34.26
171.00 36.23
172.00 38.62
173.00 38.55
174.00 36.93
175.00 35.62
176.00 34.72
177.00 34.27
178.00 34.46
179.00 35.47
180.00 37.37
181.00 40.17
182.00 43.10
183.00 42.97
184.00 41.06
185.00 40.86
186.00 43.42
187.00 47.59
188.00 44.35
189.00 41.17
190.00 39.55
191.00 37.62
192.00 35.62
193.00 34.89
194.00 36.19
195.00 40.47
196.00 46.93
197.00 42.42
198.00 39.95
199.00 40.29
200.00 41.83
201.00 43.52
202.00 46.49
203.00 52.75
204.00 46.08
205.00 39.92
206.00 36.35
207.00 34.08
208.00 32.82
209.00 32.59
210.00 33.32
211.00 34.35
212.00 34.30
213.00 33.23
214.00 32.52
215.00 32.71
216.00 33.63
217.00 34.68
218.00 35.46
219.00 36.12
220.00 36.77
221.00 37.07
222.00 36.83
223.00 36.47
224.00 36.58
225.00 37.41
226.00 38.60
227.00 39.22
228.00 38.68
229.00 37.60
230.00 36.91
231.00 36.94
232.00 37.41
233.00 37.68
234.00 37.51
235.00 37.38
236.00 37.94
237.00 39.59
238.00 42.52
239.00 46.64
240.00 49.38
241.00 46.80
242.00 44.42
243.00 43.70
244.00 44.12
245.00 45.07
246.00 45.86
247.00 46.72
248.00 49.77
249.00 56.23
250.00 49.14
251.00 45.24
252.00 44.69
253.00 45.70
254.00 44.60
255.00 40.73
256.00 37.91
257.00 37.06
258.00 38.11
259.00 40.29
260.00 40.75
261.00 38.47
262.00 36.04
263.00 34.53
264.00 34.14
265.00 34.54
266.00 35.04
267.00 35.25
268.00 35.33
269.00 35.29
270.00 34.78
271.00 33.63
272.00 32.35
273.00 31.57
274.00 31.45
275.00 31.67
276.00 31.83
277.00 31.94
278.00 32.22
279.00 32.41
280.00 32.11
281.00 31.29
282.00 30.16
283.00 29.15
284.00 28.77
285.00 29.21
286.00 30.30
287.00 31.57
288.00 32.46
289.00 32.70
290.00 32.11
291.00 30.55
292.00 28.57
293.00 26.91
294.00 25.78
295.00 25.05
296.00 24.53
297.00 24.25
298.00 24.39
299.00 25.26
300.00 27.19
301.00 30.48
302.00 34.51
303.00 33.27
304.00 28.77
305.00 25.27
306.00 22.80
307.00 21.17
308.00 20.29
309.00 20.12
310.00 20.68
311.00 22.05
312.00 24.37
313.00 27.27
314.00 27.91
315.00 25.24
316.00 22.54
317.00 20.65
318.00 19.53
319.00 19.15
320.00 19.48
321.00 20.31
322.00 20.92
323.00 20.60
324.00 19.69
325.00 18.95
326.00 18.70
327.00 19.07
328.00 20.15
329.00 22.22
330.00 25.82
331.00 29.63
332.00 26.12
333.00 22.28
334.00 20.62
335.00 21.02
336.00 24.07
337.00 32.65
338.00 28.96
339.00 22.52
340.00 20.04
341.00 19.63
342.00 21.04
343.00 24.86
344.00 28.76
345.00 22.77
346.00 18.35
347.00 16.04
348.00 15.22
349.00 15.76
350.00 18.00
351.00 23.31
352.00 33.53
353.00 23.32
354.00 19.89
355.00 20.58
356.00 25.86
357.00 19.23
358.00 11.60
359.00 6.95
