NAME ATR4518R7_1880_X_CO_P45_09T_yyR
FREQUENCY 1880
GAIN 14.40 dBd
TILT	ELECTRICAL
COMMENT DATE 05.08.2013 +45 degrees polarized system Lever position 09T deg
HORIZONTAL 360
0.00 0.09
1.00 0.06
2.00 0.04
3.00 0.02
4.00 0.01
5.00 0.00
6.00 0.00
7.00 0.01
8.00 0.02
9.00 0.04
10.00 0.07
11.00 0.11
12.00 0.15
13.00 0.21
14.00 0.27
15.00 0.35
16.00 0.43
17.00 0.53
18.00 0.63
19.00 0.75
20.00 0.88
21.00 1.02
22.00 1.16
23.00 1.32
24.00 1.50
25.00 1.68
26.00 1.87
27.00 2.07
28.00 2.28
29.00 2.49
30.00 2.72
31.00 2.95
32.00 3.20
33.00 3.44
34.00 3.69
35.00 3.95
36.00 4.21
37.00 4.47
38.00 4.74
39.00 5.01
40.00 5.28
41.00 5.55
42.00 5.82
43.00 6.09
44.00 6.36
45.00 6.63
46.00 6.90
47.00 7.17
48.00 7.43
49.00 7.70
50.00 7.97
51.00 8.24
52.00 8.51
53.00 8.77
54.00 9.04
55.00 9.31
56.00 9.58
57.00 9.85
58.00 10.13
59.00 10.39
60.00 10.66
61.00 10.94
62.00 11.21
63.00 11.48
64.00 11.75
65.00 12.02
66.00 12.29
67.00 12.57
68.00 12.84
69.00 13.12
70.00 13.39
71.00 13.67
72.00 13.96
73.00 14.25
74.00 14.55
75.00 14.85
76.00 15.16
77.00 15.48
78.00 15.81
79.00 16.16
80.00 16.51
81.00 16.87
82.00 17.25
83.00 17.64
84.00 18.04
85.00 18.45
86.00 18.88
87.00 19.31
88.00 19.75
89.00 20.19
90.00 20.63
91.00 21.08
92.00 21.52
93.00 21.95
94.00 22.37
95.00 22.78
96.00 23.18
97.00 23.56
98.00 23.92
99.00 24.27
100.00 24.60
101.00 24.93
102.00 25.25
103.00 25.57
104.00 25.90
105.00 26.25
106.00 26.60
107.00 26.98
108.00 27.38
109.00 27.82
110.00 28.28
111.00 28.77
112.00 29.29
113.00 29.83
114.00 30.38
115.00 30.92
116.00 31.44
117.00 31.91
118.00 32.28
119.00 32.56
120.00 32.71
121.00 32.73
122.00 32.65
123.00 32.48
124.00 32.26
125.00 32.02
126.00 31.78
127.00 31.56
128.00 31.37
129.00 31.24
130.00 31.15
131.00 31.12
132.00 31.14
133.00 31.23
134.00 31.38
135.00 31.59
136.00 31.86
137.00 32.19
138.00 32.59
139.00 33.04
140.00 33.54
141.00 34.09
142.00 34.68
143.00 35.30
144.00 35.91
145.00 36.49
146.00 37.00
147.00 37.41
148.00 37.68
149.00 37.79
150.00 37.75
151.00 37.58
152.00 37.32
153.00 36.99
154.00 36.63
155.00 36.28
156.00 35.93
157.00 35.60
158.00 35.31
159.00 35.05
160.00 34.83
161.00 34.64
162.00 34.50
163.00 34.39
164.00 34.32
165.00 34.28
166.00 34.28
167.00 34.32
168.00 34.39
169.00 34.49
170.00 34.61
171.00 34.76
172.00 34.91
173.00 35.07
174.00 35.21
175.00 35.34
176.00 35.42
177.00 35.46
178.00 35.43
179.00 35.36
180.00 35.22
181.00 35.04
182.00 34.84
183.00 34.61
184.00 34.39
185.00 34.18
186.00 33.99
187.00 33.85
188.00 33.75
189.00 33.71
190.00 33.73
191.00 33.82
192.00 33.98
193.00 34.21
194.00 34.53
195.00 34.92
196.00 35.39
197.00 35.93
198.00 36.51
199.00 37.10
200.00 37.61
201.00 37.98
202.00 38.08
203.00 37.86
204.00 37.35
205.00 36.61
206.00 35.77
207.00 34.89
208.00 34.02
209.00 33.21
210.00 32.47
211.00 31.80
212.00 31.20
213.00 30.66
214.00 30.20
215.00 29.79
216.00 29.43
217.00 29.13
218.00 28.88
219.00 28.66
220.00 28.48
221.00 28.33
222.00 28.20
223.00 28.08
224.00 27.98
225.00 27.88
226.00 27.78
227.00 27.67
228.00 27.55
229.00 27.42
230.00 27.27
231.00 27.11
232.00 26.93
233.00 26.74
234.00 26.53
235.00 26.32
236.00 26.10
237.00 25.89
238.00 25.68
239.00 25.48
240.00 25.29
241.00 25.11
242.00 24.95
243.00 24.80
244.00 24.67
245.00 24.55
246.00 24.45
247.00 24.38
248.00 24.32
249.00 24.27
250.00 24.25
251.00 24.23
252.00 24.23
253.00 24.25
254.00 24.27
255.00 24.30
256.00 24.33
257.00 24.38
258.00 24.42
259.00 24.46
260.00 24.50
261.00 24.53
262.00 24.55
263.00 24.57
264.00 24.57
265.00 24.54
266.00 24.51
267.00 24.44
268.00 24.36
269.00 24.25
270.00 24.11
271.00 23.94
272.00 23.74
273.00 23.52
274.00 23.27
275.00 22.99
276.00 22.69
277.00 22.36
278.00 22.01
279.00 21.65
280.00 21.27
281.00 20.88
282.00 20.48
283.00 20.07
284.00 19.65
285.00 19.23
286.00 18.81
287.00 18.38
288.00 17.95
289.00 17.53
290.00 17.10
291.00 16.67
292.00 16.25
293.00 15.83
294.00 15.41
295.00 14.99
296.00 14.58
297.00 14.17
298.00 13.77
299.00 13.36
300.00 12.96
301.00 12.56
302.00 12.16
303.00 11.77
304.00 11.38
305.00 10.99
306.00 10.61
307.00 10.23
308.00 9.85
309.00 9.48
310.00 9.11
311.00 8.75
312.00 8.39
313.00 8.03
314.00 7.68
315.00 7.34
316.00 7.00
317.00 6.68
318.00 6.35
319.00 6.04
320.00 5.73
321.00 5.43
322.00 5.14
323.00 4.86
324.00 4.58
325.00 4.32
326.00 4.06
327.00 3.82
328.00 3.58
329.00 3.35
330.00 3.13
331.00 2.93
332.00 2.73
333.00 2.54
334.00 2.36
335.00 2.19
336.00 2.03
337.00 1.87
338.00 1.73
339.00 1.59
340.00 1.47
341.00 1.35
342.00 1.24
343.00 1.13
344.00 1.03
345.00 0.94
346.00 0.85
347.00 0.77
348.00 0.70
349.00 0.62
350.00 0.56
351.00 0.50
352.00 0.44
353.00 0.38
354.00 0.33
355.00 0.28
356.00 0.24
357.00 0.19
358.00 0.16
359.00 0.12
VERTICAL 360
0.00 27.43
1.00 27.16
2.00 21.10
3.00 13.70
4.00 8.55
5.00 4.96
6.00 2.49
7.00 0.92
8.00 0.13
9.00 0.05
10.00 0.65
11.00 1.97
12.00 4.15
13.00 7.59
14.00 13.53
15.00 27.20
16.00 19.10
17.00 14.04
18.00 13.04
19.00 14.35
20.00 18.24
21.00 27.10
22.00 26.66
23.00 20.24
24.00 18.47
25.00 19.07
26.00 21.86
27.00 28.52
28.00 43.46
29.00 26.22
30.00 21.51
31.00 19.37
32.00 18.84
33.00 19.92
34.00 23.44
35.00 35.55
36.00 30.92
37.00 23.05
38.00 20.55
39.00 20.27
40.00 21.46
41.00 23.69
42.00 26.64
43.00 29.92
44.00 31.02
45.00 28.23
46.00 25.65
47.00 24.43
48.00 24.19
49.00 24.33
50.00 24.49
51.00 24.70
52.00 25.07
53.00 25.47
54.00 25.75
55.00 26.03
56.00 26.58
57.00 27.64
58.00 29.06
59.00 30.03
60.00 29.92
61.00 29.37
62.00 29.12
63.00 29.28
64.00 29.67
65.00 30.17
66.00 30.84
67.00 31.78
68.00 33.02
69.00 34.25
70.00 34.90
71.00 34.79
72.00 34.34
73.00 34.01
74.00 33.82
75.00 33.39
76.00 32.39
77.00 31.08
78.00 29.93
79.00 29.16
80.00 28.64
81.00 27.96
82.00 27.00
83.00 26.09
84.00 25.70
85.00 26.05
86.00 27.17
87.00 28.92
88.00 30.69
89.00 31.06
90.00 29.54
91.00 27.59
92.00 26.17
93.00 25.46
94.00 25.41
95.00 25.84
96.00 26.60
97.00 27.56
98.00 28.68
99.00 30.07
100.00 31.92
101.00 34.40
102.00 37.38
103.00 39.63
104.00 40.07
105.00 40.12
106.00 40.57
107.00 40.61
108.00 39.45
109.00 37.60
110.00 36.05
111.00 35.27
112.00 35.31
113.00 35.93
114.00 36.80
115.00 37.65
116.00 38.53
117.00 40.02
118.00 43.18
119.00 50.12
120.00 64.96
121.00 55.09
122.00 55.10
123.00 57.43
124.00 54.80
125.00 49.52
126.00 45.36
127.00 43.31
128.00 42.92
129.00 42.68
130.00 41.33
131.00 39.71
132.00 38.22
133.00 36.57
134.00 35.14
135.00 34.50
136.00 34.90
137.00 36.19
138.00 37.77
139.00 38.48
140.00 37.75
141.00 36.26
142.00 34.75
143.00 33.60
144.00 33.10
145.00 33.51
146.00 34.99
147.00 37.27
148.00 39.06
149.00 39.57
150.00 40.52
151.00 43.99
152.00 55.25
153.00 46.36
154.00 39.20
155.00 36.31
156.00 35.46
157.00 36.08
158.00 38.18
159.00 42.71
160.00 54.47
161.00 51.17
162.00 46.76
163.00 48.50
164.00 46.00
165.00 39.55
166.00 35.58
167.00 33.31
168.00 32.22
169.00 32.02
170.00 32.40
171.00 33.32
172.00 35.13
173.00 38.19
174.00 42.42
175.00 46.82
176.00 46.14
177.00 41.79
178.00 40.41
179.00 43.33
180.00 49.54
181.00 41.74
182.00 37.94
183.00 37.49
184.00 39.42
185.00 45.04
186.00 59.74
187.00 41.38
188.00 36.86
189.00 35.68
190.00 36.41
191.00 38.09
192.00 40.48
193.00 43.83
194.00 42.36
195.00 38.13
196.00 36.29
197.00 36.33
198.00 37.02
199.00 36.54
200.00 34.55
201.00 32.37
202.00 30.82
203.00 30.19
204.00 30.57
205.00 32.01
206.00 34.64
207.00 38.77
208.00 44.70
209.00 47.65
210.00 43.31
211.00 39.69
212.00 37.19
213.00 35.71
214.00 35.37
215.00 36.43
216.00 39.22
217.00 44.10
218.00 48.10
219.00 46.19
220.00 44.52
221.00 43.85
222.00 43.25
223.00 42.65
224.00 42.68
225.00 44.02
226.00 46.93
227.00 48.56
228.00 46.65
229.00 46.54
230.00 51.04
231.00 51.05
232.00 43.64
233.00 41.11
234.00 42.00
235.00 45.89
236.00 45.14
237.00 40.16
238.00 37.77
239.00 37.39
240.00 38.78
241.00 42.62
242.00 52.82
243.00 47.24
244.00 40.12
245.00 37.32
246.00 36.38
247.00 36.37
248.00 36.45
249.00 35.97
250.00 34.98
251.00 34.09
252.00 33.81
253.00 34.22
254.00 34.94
255.00 35.38
256.00 35.29
257.00 34.85
258.00 34.61
259.00 35.19
260.00 36.81
261.00 38.95
262.00 41.45
263.00 47.51
264.00 56.01
265.00 42.07
266.00 38.45
267.00 37.50
268.00 37.28
269.00 36.68
270.00 35.86
271.00 35.07
272.00 34.59
273.00 35.00
274.00 36.86
275.00 40.60
276.00 45.25
277.00 43.92
278.00 39.04
279.00 35.35
280.00 32.95
281.00 31.60
282.00 31.02
283.00 30.83
284.00 30.62
285.00 30.18
286.00 29.74
287.00 29.64
288.00 30.16
289.00 31.49
290.00 33.70
291.00 36.15
292.00 36.42
293.00 34.00
294.00 31.19
295.00 28.75
296.00 26.69
297.00 25.03
298.00 23.83
299.00 23.11
300.00 22.84
301.00 22.88
302.00 23.10
303.00 23.36
304.00 23.78
305.00 24.73
306.00 26.80
307.00 30.87
308.00 34.65
309.00 29.81
310.00 25.63
311.00 23.34
312.00 22.25
313.00 22.12
314.00 23.07
315.00 25.80
316.00 33.66
317.00 37.23
318.00 25.43
319.00 21.06
320.00 18.90
321.00 18.06
322.00 18.30
323.00 19.65
324.00 22.08
325.00 23.59
326.00 21.26
327.00 18.06
328.00 15.70
329.00 14.27
330.00 13.66
331.00 13.83
332.00 14.75
333.00 16.49
334.00 19.17
335.00 22.87
336.00 26.75
337.00 27.42
338.00 25.50
339.00 23.53
340.00 21.47
341.00 19.71
342.00 18.85
343.00 19.30
344.00 21.60
345.00 27.49
346.00 43.23
347.00 26.73
348.00 22.30
349.00 20.94
350.00 21.58
351.00 24.63
352.00 30.87
353.00 27.02
354.00 21.33
355.00 19.12
356.00 19.35
357.00 22.19
358.00 28.90
359.00 31.67
