NAME ATR4518R7_1880_X_CO_M45_06T_yyR
FREQUENCY 1880
GAIN 14.71 dBd
TILT	ELECTRICAL
COMMENT DATE 05.08.2013 -45 degrees polarized system Lever position 06T deg
HORIZONTAL 360
0.00 0.10
1.00 0.07
2.00 0.05
3.00 0.03
4.00 0.01
5.00 0.01
6.00 0.00
7.00 0.00
8.00 0.01
9.00 0.02
10.00 0.04
11.00 0.07
12.00 0.10
13.00 0.14
14.00 0.18
15.00 0.23
16.00 0.29
17.00 0.36
18.00 0.43
19.00 0.51
20.00 0.60
21.00 0.70
22.00 0.80
23.00 0.92
24.00 1.04
25.00 1.17
26.00 1.32
27.00 1.47
28.00 1.63
29.00 1.80
30.00 1.97
31.00 2.16
32.00 2.36
33.00 2.56
34.00 2.78
35.00 3.00
36.00 3.24
37.00 3.48
38.00 3.73
39.00 3.99
40.00 4.25
41.00 4.53
42.00 4.81
43.00 5.11
44.00 5.40
45.00 5.71
46.00 6.03
47.00 6.35
48.00 6.67
49.00 7.01
50.00 7.35
51.00 7.69
52.00 8.04
53.00 8.40
54.00 8.76
55.00 9.13
56.00 9.50
57.00 9.88
58.00 10.25
59.00 10.64
60.00 11.02
61.00 11.40
62.00 11.79
63.00 12.18
64.00 12.57
65.00 12.96
66.00 13.34
67.00 13.73
68.00 14.11
69.00 14.49
70.00 14.87
71.00 15.25
72.00 15.62
73.00 16.00
74.00 16.37
75.00 16.74
76.00 17.10
77.00 17.47
78.00 17.84
79.00 18.22
80.00 18.60
81.00 18.98
82.00 19.38
83.00 19.78
84.00 20.19
85.00 20.61
86.00 21.05
87.00 21.50
88.00 21.97
89.00 22.45
90.00 22.94
91.00 23.46
92.00 23.99
93.00 24.55
94.00 25.11
95.00 25.69
96.00 26.28
97.00 26.88
98.00 27.48
99.00 28.07
100.00 28.63
101.00 29.17
102.00 29.66
103.00 30.09
104.00 30.44
105.00 30.70
106.00 30.86
107.00 30.93
108.00 30.92
109.00 30.82
110.00 30.67
111.00 30.47
112.00 30.25
113.00 30.00
114.00 29.76
115.00 29.51
116.00 29.28
117.00 29.07
118.00 28.88
119.00 28.71
120.00 28.57
121.00 28.46
122.00 28.39
123.00 28.35
124.00 28.35
125.00 28.39
126.00 28.48
127.00 28.61
128.00 28.79
129.00 29.02
130.00 29.31
131.00 29.66
132.00 30.08
133.00 30.56
134.00 31.13
135.00 31.79
136.00 32.55
137.00 33.41
138.00 34.40
139.00 35.52
140.00 36.80
141.00 38.20
142.00 39.70
143.00 41.10
144.00 42.07
145.00 42.23
146.00 41.57
147.00 40.48
148.00 39.29
149.00 38.19
150.00 37.25
151.00 36.45
152.00 35.81
153.00 35.31
154.00 34.93
155.00 34.68
156.00 34.54
157.00 34.50
158.00 34.58
159.00 34.76
160.00 35.04
161.00 35.44
162.00 35.95
163.00 36.59
164.00 37.34
165.00 38.23
166.00 39.25
167.00 40.37
168.00 41.52
169.00 42.55
170.00 43.20
171.00 43.24
172.00 42.67
173.00 41.71
174.00 40.63
175.00 39.57
176.00 38.62
177.00 37.78
178.00 37.06
179.00 36.47
180.00 35.97
181.00 35.59
182.00 35.29
183.00 35.08
184.00 34.94
185.00 34.89
186.00 34.91
187.00 35.00
188.00 35.15
189.00 35.37
190.00 35.65
191.00 35.99
192.00 36.38
193.00 36.82
194.00 37.31
195.00 37.84
196.00 38.40
197.00 38.98
198.00 39.57
199.00 40.15
200.00 40.70
201.00 41.21
202.00 41.67
203.00 42.07
204.00 42.42
205.00 42.73
206.00 43.02
207.00 43.30
208.00 43.61
209.00 43.95
210.00 44.36
211.00 44.85
212.00 45.44
213.00 46.10
214.00 46.84
215.00 47.60
216.00 48.26
217.00 48.66
218.00 48.57
219.00 47.95
220.00 46.94
221.00 45.72
222.00 44.44
223.00 43.23
224.00 42.11
225.00 41.08
226.00 40.14
227.00 39.30
228.00 38.55
229.00 37.87
230.00 37.27
231.00 36.72
232.00 36.23
233.00 35.80
234.00 35.41
235.00 35.06
236.00 34.74
237.00 34.46
238.00 34.20
239.00 33.94
240.00 33.71
241.00 33.48
242.00 33.25
243.00 33.01
244.00 32.76
245.00 32.49
246.00 32.20
247.00 31.88
248.00 31.54
249.00 31.18
250.00 30.79
251.00 30.38
252.00 29.94
253.00 29.50
254.00 29.03
255.00 28.56
256.00 28.08
257.00 27.60
258.00 27.12
259.00 26.64
260.00 26.16
261.00 25.69
262.00 25.22
263.00 24.76
264.00 24.30
265.00 23.85
266.00 23.41
267.00 22.98
268.00 22.55
269.00 22.13
270.00 21.72
271.00 21.31
272.00 20.91
273.00 20.51
274.00 20.12
275.00 19.74
276.00 19.36
277.00 18.98
278.00 18.61
279.00 18.25
280.00 17.88
281.00 17.52
282.00 17.17
283.00 16.82
284.00 16.47
285.00 16.12
286.00 15.78
287.00 15.44
288.00 15.11
289.00 14.78
290.00 14.45
291.00 14.12
292.00 13.80
293.00 13.48
294.00 13.17
295.00 12.85
296.00 12.54
297.00 12.23
298.00 11.93
299.00 11.63
300.00 11.33
301.00 11.04
302.00 10.75
303.00 10.46
304.00 10.17
305.00 9.89
306.00 9.61
307.00 9.33
308.00 9.05
309.00 8.78
310.00 8.50
311.00 8.23
312.00 7.97
313.00 7.70
314.00 7.43
315.00 7.18
316.00 6.92
317.00 6.66
318.00 6.41
319.00 6.15
320.00 5.91
321.00 5.66
322.00 5.42
323.00 5.18
324.00 4.95
325.00 4.71
326.00 4.49
327.00 4.26
328.00 4.04
329.00 3.83
330.00 3.62
331.00 3.42
332.00 3.22
333.00 3.03
334.00 2.84
335.00 2.66
336.00 2.48
337.00 2.31
338.00 2.15
339.00 1.99
340.00 1.84
341.00 1.70
342.00 1.56
343.00 1.43
344.00 1.30
345.00 1.18
346.00 1.07
347.00 0.96
348.00 0.86
349.00 0.77
350.00 0.68
351.00 0.60
352.00 0.52
353.00 0.45
354.00 0.38
355.00 0.32
356.00 0.27
357.00 0.22
358.00 0.17
359.00 0.13
VERTICAL 360
0.00 14.92
1.00 9.60
2.00 5.81
3.00 3.15
4.00 1.37
5.00 0.34
6.00 0.00
7.00 0.36
8.00 1.47
9.00 3.52
10.00 6.88
11.00 12.76
12.00 25.44
13.00 18.09
14.00 12.92
15.00 11.55
16.00 12.27
17.00 15.20
18.00 22.55
19.00 27.95
20.00 18.10
21.00 15.00
22.00 14.57
23.00 16.23
24.00 20.63
25.00 29.17
26.00 24.09
27.00 18.89
28.00 16.96
29.00 16.83
30.00 18.20
31.00 21.37
32.00 27.55
33.00 30.54
34.00 23.57
35.00 20.01
36.00 18.53
37.00 18.51
38.00 19.92
39.00 23.19
40.00 30.15
41.00 52.77
42.00 30.38
43.00 26.50
44.00 25.08
45.00 24.52
46.00 24.37
47.00 24.66
48.00 25.43
49.00 26.12
50.00 25.76
51.00 24.54
52.00 23.56
53.00 23.31
54.00 23.86
55.00 25.17
56.00 27.30
57.00 30.43
58.00 34.98
59.00 39.03
60.00 36.19
61.00 32.78
62.00 30.93
63.00 30.06
64.00 29.71
65.00 29.50
66.00 29.29
67.00 29.10
68.00 29.02
69.00 29.09
70.00 29.26
71.00 29.49
72.00 29.79
73.00 30.15
74.00 30.44
75.00 30.43
76.00 30.04
77.00 29.45
78.00 28.84
79.00 28.30
80.00 27.86
81.00 27.47
82.00 27.02
83.00 26.46
84.00 25.92
85.00 25.60
86.00 25.62
87.00 25.95
88.00 26.46
89.00 26.97
90.00 27.41
91.00 27.66
92.00 27.56
93.00 27.20
94.00 26.93
95.00 27.09
96.00 27.78
97.00 28.94
98.00 30.45
99.00 32.16
100.00 33.89
101.00 35.45
102.00 36.65
103.00 37.29
104.00 37.39
105.00 37.43
106.00 37.89
107.00 38.78
108.00 39.60
109.00 39.60
110.00 38.83
111.00 38.09
112.00 37.84
113.00 38.16
114.00 38.75
115.00 39.10
116.00 38.86
117.00 38.18
118.00 37.37
119.00 36.50
120.00 35.60
121.00 34.91
122.00 34.70
123.00 35.16
124.00 36.27
125.00 37.73
126.00 38.91
127.00 39.06
128.00 38.06
129.00 36.55
130.00 35.17
131.00 34.25
132.00 33.83
133.00 33.86
134.00 34.28
135.00 35.19
136.00 36.90
137.00 39.67
138.00 41.84
139.00 39.99
140.00 37.42
141.00 36.21
142.00 36.34
143.00 37.71
144.00 40.31
145.00 43.59
146.00 44.56
147.00 42.37
148.00 40.17
149.00 38.76
150.00 38.24
151.00 38.91
152.00 41.65
153.00 50.87
154.00 50.70
155.00 40.83
156.00 37.41
157.00 36.25
158.00 36.34
159.00 37.05
160.00 37.81
161.00 38.26
162.00 38.56
163.00 39.47
164.00 41.28
165.00 41.42
166.00 38.55
167.00 36.31
168.00 35.66
169.00 36.27
170.00 37.46
171.00 38.06
172.00 37.34
173.00 35.96
174.00 34.95
175.00 34.94
176.00 36.49
177.00 40.61
178.00 52.09
179.00 47.70
180.00 41.38
181.00 40.09
182.00 41.00
183.00 42.24
184.00 42.25
185.00 42.67
186.00 45.76
187.00 54.67
188.00 55.58
189.00 50.84
190.00 50.20
191.00 46.82
192.00 44.03
193.00 43.98
194.00 46.55
195.00 50.41
196.00 52.64
197.00 53.22
198.00 50.42
199.00 49.19
200.00 53.94
201.00 55.95
202.00 47.98
203.00 49.42
204.00 61.35
205.00 41.10
206.00 35.64
207.00 33.58
208.00 33.76
209.00 35.79
210.00 39.10
211.00 41.13
212.00 39.65
213.00 37.14
214.00 35.09
215.00 33.86
216.00 33.56
217.00 34.17
218.00 35.67
219.00 38.02
220.00 41.12
221.00 44.43
222.00 46.80
223.00 47.29
224.00 46.93
225.00 47.77
226.00 51.10
227.00 48.14
228.00 41.33
229.00 37.54
230.00 35.84
231.00 35.71
232.00 36.92
233.00 39.23
234.00 42.36
235.00 45.89
236.00 49.81
237.00 55.74
238.00 55.66
239.00 46.46
240.00 41.27
241.00 38.40
242.00 37.33
243.00 38.05
244.00 40.93
245.00 46.36
246.00 46.98
247.00 42.41
248.00 40.04
249.00 38.88
250.00 38.06
251.00 37.25
252.00 36.72
253.00 36.78
254.00 37.46
255.00 38.31
256.00 38.67
257.00 38.37
258.00 37.72
259.00 36.95
260.00 36.16
261.00 35.46
262.00 35.19
263.00 35.65
264.00 36.86
265.00 38.30
266.00 38.98
267.00 38.43
268.00 37.09
269.00 35.78
270.00 35.12
271.00 35.31
272.00 36.07
273.00 36.88
274.00 37.46
275.00 38.13
276.00 39.31
277.00 41.08
278.00 42.53
279.00 41.96
280.00 40.11
281.00 38.32
282.00 36.78
283.00 35.42
284.00 34.40
285.00 33.94
286.00 34.01
287.00 34.03
288.00 32.92
289.00 30.78
290.00 28.68
291.00 27.07
292.00 25.97
293.00 25.22
294.00 24.72
295.00 24.38
296.00 24.22
297.00 24.28
298.00 24.63
299.00 25.27
300.00 26.00
301.00 26.39
302.00 26.10
303.00 25.31
304.00 24.54
305.00 24.05
306.00 23.80
307.00 23.60
308.00 23.28
309.00 22.90
310.00 22.67
311.00 22.72
312.00 23.01
313.00 23.34
314.00 23.39
315.00 22.97
316.00 22.20
317.00 21.49
318.00 21.22
319.00 21.57
320.00 22.56
321.00 23.92
322.00 24.99
323.00 24.83
324.00 23.47
325.00 21.93
326.00 20.84
327.00 20.28
328.00 20.08
329.00 20.01
330.00 19.99
331.00 20.15
332.00 20.64
333.00 21.61
334.00 23.27
335.00 26.03
336.00 28.28
337.00 24.80
338.00 20.57
339.00 18.14
340.00 17.36
341.00 18.19
342.00 20.88
343.00 25.27
344.00 25.72
345.00 22.46
346.00 21.31
347.00 22.82
348.00 28.50
349.00 31.76
350.00 22.62
351.00 18.56
352.00 16.85
353.00 16.76
354.00 18.27
355.00 21.89
356.00 29.91
357.00 47.97
358.00 30.36
359.00 22.23
