NAME ATR4518R7_1750_X_CO_P45_09T_yL
FREQUENCY 1750
GAIN 14.85 dBd
TILT	ELECTRICAL
COMMENT DATE 05.08.2013 +45 degrees polarized system Lever position 09T deg
HORIZONTAL 360
0.00 0.00
1.00 0.00
2.00 0.00
3.00 0.01
4.00 0.03
5.00 0.05
6.00 0.08
7.00 0.12
8.00 0.16
9.00 0.20
10.00 0.25
11.00 0.30
12.00 0.36
13.00 0.43
14.00 0.49
15.00 0.56
16.00 0.64
17.00 0.72
18.00 0.80
19.00 0.89
20.00 0.97
21.00 1.07
22.00 1.17
23.00 1.28
24.00 1.38
25.00 1.50
26.00 1.62
27.00 1.74
28.00 1.88
29.00 2.01
30.00 2.15
31.00 2.30
32.00 2.46
33.00 2.62
34.00 2.78
35.00 2.95
36.00 3.13
37.00 3.31
38.00 3.50
39.00 3.69
40.00 3.89
41.00 4.08
42.00 4.29
43.00 4.49
44.00 4.70
45.00 4.91
46.00 5.13
47.00 5.34
48.00 5.56
49.00 5.78
50.00 6.01
51.00 6.23
52.00 6.45
53.00 6.68
54.00 6.91
55.00 7.15
56.00 7.38
57.00 7.62
58.00 7.86
59.00 8.11
60.00 8.36
61.00 8.61
62.00 8.87
63.00 9.14
64.00 9.41
65.00 9.69
66.00 9.97
67.00 10.26
68.00 10.57
69.00 10.87
70.00 11.19
71.00 11.51
72.00 11.85
73.00 12.19
74.00 12.54
75.00 12.89
76.00 13.25
77.00 13.62
78.00 14.00
79.00 14.38
80.00 14.76
81.00 15.15
82.00 15.54
83.00 15.93
84.00 16.32
85.00 16.70
86.00 17.09
87.00 17.47
88.00 17.84
89.00 18.21
90.00 18.58
91.00 18.94
92.00 19.30
93.00 19.66
94.00 20.01
95.00 20.37
96.00 20.72
97.00 21.08
98.00 21.44
99.00 21.81
100.00 22.19
101.00 22.57
102.00 22.96
103.00 23.35
104.00 23.76
105.00 24.17
106.00 24.59
107.00 25.01
108.00 25.43
109.00 25.85
110.00 26.27
111.00 26.68
112.00 27.09
113.00 27.50
114.00 27.90
115.00 28.29
116.00 28.69
117.00 29.10
118.00 29.51
119.00 29.93
120.00 30.37
121.00 30.81
122.00 31.27
123.00 31.73
124.00 32.19
125.00 32.61
126.00 32.99
127.00 33.29
128.00 33.50
129.00 33.59
130.00 33.58
131.00 33.47
132.00 33.29
133.00 33.07
134.00 32.83
135.00 32.62
136.00 32.44
137.00 32.32
138.00 32.27
139.00 32.31
140.00 32.43
141.00 32.66
142.00 33.00
143.00 33.47
144.00 34.09
145.00 34.87
146.00 35.85
147.00 37.09
148.00 38.64
149.00 40.66
150.00 43.39
151.00 47.49
152.00 55.34
153.00 61.78
154.00 50.04
155.00 45.44
156.00 42.67
157.00 40.80
158.00 39.48
159.00 38.55
160.00 37.94
161.00 37.59
162.00 37.47
163.00 37.59
164.00 37.94
165.00 38.53
166.00 39.39
167.00 40.56
168.00 42.05
169.00 43.75
170.00 45.21
171.00 45.33
172.00 43.84
173.00 41.71
174.00 39.69
175.00 37.95
176.00 36.51
177.00 35.33
178.00 34.35
179.00 33.57
180.00 32.96
181.00 32.50
182.00 32.19
183.00 32.01
184.00 31.96
185.00 32.05
186.00 32.28
187.00 32.66
188.00 33.19
189.00 33.90
190.00 34.82
191.00 35.97
192.00 37.39
193.00 39.11
194.00 41.00
195.00 42.48
196.00 42.48
197.00 40.90
198.00 38.82
199.00 36.88
200.00 35.21
201.00 33.81
202.00 32.65
203.00 31.67
204.00 30.85
205.00 30.18
206.00 29.63
207.00 29.19
208.00 28.85
209.00 28.60
210.00 28.45
211.00 28.38
212.00 28.40
213.00 28.50
214.00 28.68
215.00 28.96
216.00 29.34
217.00 29.82
218.00 30.42
219.00 31.16
220.00 32.05
221.00 33.15
222.00 34.49
223.00 36.18
224.00 38.34
225.00 41.23
226.00 45.02
227.00 47.68
228.00 44.74
229.00 40.89
230.00 37.96
231.00 35.72
232.00 33.96
233.00 32.53
234.00 31.35
235.00 30.35
236.00 29.50
237.00 28.78
238.00 28.16
239.00 27.63
240.00 27.18
241.00 26.79
242.00 26.45
243.00 26.16
244.00 25.91
245.00 25.69
246.00 25.48
247.00 25.29
248.00 25.11
249.00 24.93
250.00 24.74
251.00 24.54
252.00 24.33
253.00 24.10
254.00 23.86
255.00 23.60
256.00 23.33
257.00 23.05
258.00 22.76
259.00 22.46
260.00 22.17
261.00 21.87
262.00 21.57
263.00 21.28
264.00 20.99
265.00 20.70
266.00 20.41
267.00 20.12
268.00 19.84
269.00 19.55
270.00 19.25
271.00 18.96
272.00 18.65
273.00 18.34
274.00 18.02
275.00 17.70
276.00 17.36
277.00 17.02
278.00 16.67
279.00 16.31
280.00 15.95
281.00 15.58
282.00 15.22
283.00 14.85
284.00 14.48
285.00 14.11
286.00 13.75
287.00 13.39
288.00 13.03
289.00 12.68
290.00 12.34
291.00 12.00
292.00 11.67
293.00 11.35
294.00 11.04
295.00 10.73
296.00 10.43
297.00 10.14
298.00 9.86
299.00 9.59
300.00 9.32
301.00 9.06
302.00 8.82
303.00 8.58
304.00 8.34
305.00 8.12
306.00 7.90
307.00 7.69
308.00 7.48
309.00 7.28
310.00 7.09
311.00 6.91
312.00 6.73
313.00 6.55
314.00 6.38
315.00 6.22
316.00 6.06
317.00 5.90
318.00 5.74
319.00 5.58
320.00 5.42
321.00 5.27
322.00 5.11
323.00 4.95
324.00 4.79
325.00 4.62
326.00 4.45
327.00 4.28
328.00 4.11
329.00 3.93
330.00 3.74
331.00 3.56
332.00 3.37
333.00 3.18
334.00 2.99
335.00 2.80
336.00 2.61
337.00 2.43
338.00 2.24
339.00 2.06
340.00 1.88
341.00 1.71
342.00 1.55
343.00 1.39
344.00 1.24
345.00 1.09
346.00 0.96
347.00 0.83
348.00 0.71
349.00 0.60
350.00 0.50
351.00 0.41
352.00 0.33
353.00 0.26
354.00 0.20
355.00 0.14
356.00 0.10
357.00 0.06
358.00 0.03
359.00 0.01
VERTICAL 360
0.00 21.87
1.00 26.04
2.00 23.01
3.00 14.13
4.00 8.79
5.00 5.23
6.00 2.78
7.00 1.17
8.00 0.26
9.00 0.00
10.00 0.36
11.00 1.38
12.00 3.17
13.00 6.00
14.00 10.53
15.00 19.55
16.00 25.19
17.00 15.55
18.00 12.98
19.00 12.78
20.00 14.30
21.00 17.84
22.00 25.42
23.00 27.56
24.00 19.84
25.00 16.78
26.00 15.82
27.00 16.27
28.00 17.80
29.00 19.79
30.00 20.62
31.00 19.44
32.00 17.80
33.00 16.75
34.00 16.63
35.00 17.58
36.00 19.64
37.00 22.16
38.00 22.84
39.00 21.39
40.00 19.77
41.00 18.31
42.00 16.97
43.00 16.01
44.00 15.73
45.00 16.30
46.00 17.82
47.00 20.33
48.00 23.98
49.00 29.21
50.00 36.77
51.00 31.90
52.00 25.89
53.00 22.44
54.00 20.57
55.00 19.80
56.00 19.79
57.00 20.11
58.00 20.45
59.00 20.85
60.00 21.54
61.00 22.66
62.00 24.11
63.00 25.56
64.00 26.64
65.00 27.31
66.00 27.91
67.00 28.59
68.00 29.18
69.00 29.38
70.00 29.16
71.00 28.85
72.00 28.82
73.00 29.22
74.00 29.85
75.00 30.27
76.00 30.16
77.00 29.71
78.00 29.48
79.00 29.90
80.00 31.11
81.00 32.83
82.00 34.40
83.00 35.33
84.00 35.78
85.00 36.54
86.00 38.74
87.00 43.57
88.00 45.52
89.00 40.88
90.00 38.09
91.00 36.30
92.00 35.37
93.00 35.98
94.00 39.00
95.00 46.87
96.00 53.17
97.00 43.41
98.00 40.26
99.00 39.06
100.00 39.52
101.00 42.02
102.00 47.14
103.00 52.89
104.00 50.14
105.00 45.86
106.00 43.05
107.00 42.13
108.00 42.84
109.00 44.04
110.00 44.26
111.00 43.77
112.00 43.18
113.00 42.34
114.00 41.32
115.00 40.31
116.00 39.44
117.00 38.85
118.00 38.49
119.00 37.92
120.00 36.80
121.00 35.37
122.00 34.11
123.00 33.26
124.00 32.90
125.00 32.97
126.00 33.37
127.00 34.03
128.00 35.00
129.00 36.33
130.00 37.86
131.00 39.17
132.00 40.25
133.00 41.75
134.00 43.90
135.00 45.55
136.00 45.81
137.00 46.59
138.00 50.52
139.00 66.14
140.00 47.00
141.00 40.77
142.00 37.39
143.00 35.50
144.00 34.60
145.00 34.35
146.00 34.44
147.00 34.80
148.00 35.79
149.00 38.26
150.00 44.23
151.00 50.51
152.00 40.31
153.00 36.06
154.00 33.87
155.00 32.68
156.00 32.23
157.00 32.58
158.00 33.78
159.00 35.25
160.00 35.38
161.00 34.30
162.00 33.72
163.00 34.23
164.00 35.63
165.00 37.26
166.00 38.06
167.00 37.01
168.00 34.86
169.00 33.08
170.00 32.27
171.00 32.50
172.00 33.75
173.00 36.06
174.00 39.63
175.00 44.99
176.00 50.50
177.00 48.12
178.00 45.18
179.00 43.44
180.00 42.49
181.00 42.59
182.00 43.81
183.00 43.79
184.00 40.82
185.00 38.47
186.00 37.96
187.00 39.07
188.00 40.29
189.00 39.70
190.00 39.13
191.00 39.90
192.00 39.64
193.00 36.72
194.00 34.52
195.00 34.23
196.00 36.12
197.00 41.07
198.00 53.29
199.00 49.86
200.00 45.79
201.00 41.99
202.00 37.59
203.00 34.87
204.00 34.00
205.00 34.99
206.00 38.45
207.00 46.81
208.00 42.15
209.00 36.00
210.00 33.29
211.00 32.35
212.00 32.63
213.00 33.75
214.00 35.28
215.00 36.59
216.00 37.28
217.00 37.74
218.00 38.48
219.00 39.52
220.00 40.27
221.00 40.08
222.00 39.26
223.00 38.80
224.00 39.53
225.00 42.33
226.00 49.61
227.00 53.60
228.00 43.87
229.00 39.90
230.00 38.00
231.00 37.74
232.00 39.53
233.00 45.05
234.00 54.83
235.00 42.39
236.00 37.89
237.00 35.67
238.00 34.57
239.00 34.28
240.00 34.90
241.00 36.74
242.00 40.53
243.00 48.46
244.00 48.66
245.00 41.78
246.00 38.50
247.00 36.65
248.00 35.74
249.00 35.74
250.00 36.66
251.00 38.20
252.00 39.43
253.00 39.80
254.00 40.53
255.00 43.11
256.00 48.99
257.00 48.54
258.00 42.10
259.00 38.48
260.00 36.54
261.00 35.80
262.00 35.52
263.00 34.60
264.00 33.13
265.00 32.03
266.00 31.50
267.00 31.17
268.00 30.56
269.00 29.52
270.00 28.27
271.00 27.23
272.00 26.77
273.00 27.06
274.00 28.00
275.00 29.24
276.00 30.22
277.00 30.54
278.00 30.31
279.00 30.01
280.00 30.00
281.00 30.37
282.00 30.85
283.00 31.09
284.00 30.94
285.00 30.49
286.00 29.62
287.00 28.08
288.00 26.17
289.00 24.46
290.00 23.28
291.00 22.67
292.00 22.49
293.00 22.59
294.00 22.75
295.00 22.84
296.00 22.90
297.00 23.07
298.00 23.67
299.00 25.03
300.00 27.45
301.00 30.17
302.00 29.26
303.00 26.15
304.00 23.86
305.00 22.55
306.00 21.94
307.00 21.86
308.00 22.34
309.00 23.69
310.00 26.74
311.00 33.69
312.00 32.20
313.00 25.04
314.00 21.58
315.00 19.91
316.00 19.32
317.00 19.49
318.00 20.44
319.00 22.56
320.00 27.04
321.00 30.90
322.00 23.39
323.00 18.70
324.00 16.12
325.00 14.82
326.00 14.43
327.00 14.82
328.00 16.02
329.00 18.20
330.00 21.80
331.00 27.51
332.00 31.25
333.00 27.57
334.00 25.65
335.00 25.71
336.00 27.41
337.00 30.99
338.00 37.28
339.00 37.57
340.00 33.17
341.00 32.52
342.00 36.54
343.00 42.64
344.00 30.43
345.00 25.44
346.00 23.14
347.00 22.64
348.00 23.59
349.00 24.62
350.00 22.59
351.00 19.42
352.00 17.33
353.00 16.59
354.00 17.21
355.00 19.45
356.00 24.48
357.00 39.86
358.00 26.86
359.00 22.20
