NAME ATR4518R7_2350_X_CO_P45_05T_yL
FREQUENCY 2350
GAIN 15.47 dBd
TILT	ELECTRICAL
COMMENT DATE 05.08.2013 +45 degrees polarized system Lever position 05T deg
HORIZONTAL 360
0.00 0.02
1.00 0.00
2.00 0.00
3.00 0.01
4.00 0.04
5.00 0.08
6.00 0.13
7.00 0.20
8.00 0.27
9.00 0.35
10.00 0.43
11.00 0.52
12.00 0.62
13.00 0.71
14.00 0.81
15.00 0.91
16.00 1.00
17.00 1.10
18.00 1.19
19.00 1.28
20.00 1.36
21.00 1.45
22.00 1.54
23.00 1.63
24.00 1.72
25.00 1.82
26.00 1.92
27.00 2.03
28.00 2.15
29.00 2.27
30.00 2.41
31.00 2.55
32.00 2.71
33.00 2.87
34.00 3.05
35.00 3.23
36.00 3.43
37.00 3.64
38.00 3.85
39.00 4.08
40.00 4.31
41.00 4.55
42.00 4.79
43.00 5.04
44.00 5.29
45.00 5.55
46.00 5.80
47.00 6.06
48.00 6.33
49.00 6.59
50.00 6.85
51.00 7.11
52.00 7.37
53.00 7.63
54.00 7.90
55.00 8.17
56.00 8.43
57.00 8.71
58.00 8.98
59.00 9.26
60.00 9.55
61.00 9.85
62.00 10.15
63.00 10.47
64.00 10.79
65.00 11.13
66.00 11.47
67.00 11.83
68.00 12.20
69.00 12.58
70.00 12.97
71.00 13.37
72.00 13.79
73.00 14.21
74.00 14.63
75.00 15.07
76.00 15.50
77.00 15.94
78.00 16.37
79.00 16.80
80.00 17.22
81.00 17.63
82.00 18.03
83.00 18.42
84.00 18.79
85.00 19.14
86.00 19.48
87.00 19.79
88.00 20.10
89.00 20.38
90.00 20.66
91.00 20.92
92.00 21.18
93.00 21.43
94.00 21.68
95.00 21.92
96.00 22.17
97.00 22.42
98.00 22.68
99.00 22.94
100.00 23.21
101.00 23.49
102.00 23.76
103.00 24.04
104.00 24.32
105.00 24.58
106.00 24.84
107.00 25.07
108.00 25.28
109.00 25.45
110.00 25.59
111.00 25.69
112.00 25.75
113.00 25.78
114.00 25.77
115.00 25.75
116.00 25.71
117.00 25.68
118.00 25.65
119.00 25.65
120.00 25.67
121.00 25.73
122.00 25.84
123.00 26.00
124.00 26.22
125.00 26.50
126.00 26.85
127.00 27.28
128.00 27.79
129.00 28.38
130.00 29.06
131.00 29.83
132.00 30.68
133.00 31.60
134.00 32.55
135.00 33.48
136.00 34.30
137.00 34.89
138.00 35.15
139.00 35.06
140.00 34.70
141.00 34.18
142.00 33.60
143.00 33.02
144.00 32.49
145.00 32.02
146.00 31.63
147.00 31.31
148.00 31.07
149.00 30.89
150.00 30.80
151.00 30.77
152.00 30.82
153.00 30.95
154.00 31.15
155.00 31.44
156.00 31.79
157.00 32.22
158.00 32.70
159.00 33.18
160.00 33.62
161.00 33.91
162.00 33.97
163.00 33.75
164.00 33.27
165.00 32.60
166.00 31.84
167.00 31.07
168.00 30.36
169.00 29.73
170.00 29.20
171.00 28.79
172.00 28.50
173.00 28.34
174.00 28.31
175.00 28.42
176.00 28.66
177.00 29.06
178.00 29.61
179.00 30.33
180.00 31.21
181.00 32.26
182.00 33.42
183.00 34.57
184.00 35.47
185.00 35.81
186.00 35.46
187.00 34.63
188.00 33.64
189.00 32.69
190.00 31.90
191.00 31.29
192.00 30.88
193.00 30.67
194.00 30.66
195.00 30.86
196.00 31.28
197.00 31.96
198.00 32.92
199.00 34.26
200.00 36.09
201.00 38.67
202.00 42.61
203.00 49.63
204.00 51.15
205.00 43.51
206.00 39.33
207.00 36.66
208.00 34.81
209.00 33.47
210.00 32.53
211.00 31.88
212.00 31.48
213.00 31.31
214.00 31.35
215.00 31.59
216.00 32.02
217.00 32.63
218.00 33.42
219.00 34.33
220.00 35.27
221.00 36.03
222.00 36.34
223.00 36.04
224.00 35.24
225.00 34.21
226.00 33.14
227.00 32.17
228.00 31.33
229.00 30.64
230.00 30.10
231.00 29.70
232.00 29.42
233.00 29.27
234.00 29.22
235.00 29.26
236.00 29.39
237.00 29.58
238.00 29.81
239.00 30.05
240.00 30.25
241.00 30.39
242.00 30.41
243.00 30.30
244.00 30.06
245.00 29.69
246.00 29.25
247.00 28.75
248.00 28.24
249.00 27.74
250.00 27.27
251.00 26.84
252.00 26.46
253.00 26.13
254.00 25.84
255.00 25.60
256.00 25.40
257.00 25.22
258.00 25.05
259.00 24.89
260.00 24.72
261.00 24.52
262.00 24.28
263.00 23.99
264.00 23.65
265.00 23.26
266.00 22.83
267.00 22.36
268.00 21.88
269.00 21.39
270.00 20.90
271.00 20.43
272.00 19.97
273.00 19.55
274.00 19.15
275.00 18.78
276.00 18.44
277.00 18.14
278.00 17.86
279.00 17.60
280.00 17.36
281.00 17.14
282.00 16.93
283.00 16.73
284.00 16.53
285.00 16.32
286.00 16.11
287.00 15.88
288.00 15.64
289.00 15.38
290.00 15.11
291.00 14.81
292.00 14.50
293.00 14.18
294.00 13.84
295.00 13.50
296.00 13.15
297.00 12.80
298.00 12.44
299.00 12.09
300.00 11.75
301.00 11.40
302.00 11.06
303.00 10.72
304.00 10.38
305.00 10.05
306.00 9.72
307.00 9.40
308.00 9.08
309.00 8.75
310.00 8.43
311.00 8.11
312.00 7.79
313.00 7.47
314.00 7.16
315.00 6.84
316.00 6.53
317.00 6.22
318.00 5.92
319.00 5.63
320.00 5.34
321.00 5.06
322.00 4.80
323.00 4.54
324.00 4.29
325.00 4.06
326.00 3.84
327.00 3.63
328.00 3.44
329.00 3.25
330.00 3.08
331.00 2.93
332.00 2.78
333.00 2.64
334.00 2.51
335.00 2.40
336.00 2.28
337.00 2.18
338.00 2.07
339.00 1.97
340.00 1.87
341.00 1.77
342.00 1.67
343.00 1.57
344.00 1.46
345.00 1.35
346.00 1.24
347.00 1.13
348.00 1.02
349.00 0.90
350.00 0.79
351.00 0.68
352.00 0.57
353.00 0.47
354.00 0.37
355.00 0.28
356.00 0.21
357.00 0.14
358.00 0.08
359.00 0.04
VERTICAL 360
0.00 16.84
1.00 10.00
2.00 5.45
3.00 2.45
4.00 0.68
5.00 0.00
6.00 0.43
7.00 2.14
8.00 5.60
9.00 12.46
10.00 35.04
11.00 14.16
12.00 11.21
13.00 11.69
14.00 14.91
15.00 21.24
16.00 20.00
17.00 16.20
18.00 15.71
19.00 18.01
20.00 22.53
21.00 21.73
22.00 18.07
23.00 16.50
24.00 16.81
25.00 19.32
26.00 26.38
27.00 33.54
28.00 22.10
29.00 19.23
30.00 19.17
31.00 20.78
32.00 22.64
33.00 22.25
34.00 20.05
35.00 18.08
36.00 16.96
37.00 16.66
38.00 16.92
39.00 17.52
40.00 18.54
41.00 20.35
42.00 23.44
43.00 28.40
44.00 33.64
45.00 29.64
46.00 25.23
47.00 22.65
48.00 21.63
49.00 22.11
50.00 24.09
51.00 27.56
52.00 32.10
53.00 35.19
54.00 32.96
55.00 29.08
56.00 26.27
57.00 24.80
58.00 24.58
59.00 25.50
60.00 27.47
61.00 30.48
62.00 34.55
63.00 39.57
64.00 44.37
65.00 45.72
66.00 44.31
67.00 42.06
68.00 39.22
69.00 36.83
70.00 35.49
71.00 35.00
72.00 34.76
73.00 34.38
74.00 34.00
75.00 34.03
76.00 34.81
77.00 36.41
78.00 38.53
79.00 40.72
80.00 42.64
81.00 43.07
82.00 41.83
83.00 40.48
84.00 39.31
85.00 38.00
86.00 36.71
87.00 36.14
88.00 36.91
89.00 39.48
90.00 43.78
91.00 47.24
92.00 45.46
93.00 41.36
94.00 38.56
95.00 37.68
96.00 38.39
97.00 39.86
98.00 40.94
99.00 41.34
100.00 41.86
101.00 43.27
102.00 45.77
103.00 47.42
104.00 47.02
105.00 47.72
106.00 50.99
107.00 56.25
108.00 63.08
109.00 60.13
110.00 49.66
111.00 45.69
112.00 45.04
113.00 46.80
114.00 48.77
115.00 48.86
116.00 50.42
117.00 53.37
118.00 48.28
119.00 43.95
120.00 42.10
121.00 42.35
122.00 45.22
123.00 53.29
124.00 49.40
125.00 43.21
126.00 40.77
127.00 40.20
128.00 40.95
129.00 43.02
130.00 46.58
131.00 48.97
132.00 45.82
133.00 43.06
134.00 42.14
135.00 43.10
136.00 45.56
137.00 44.35
138.00 40.17
139.00 37.61
140.00 36.55
141.00 36.31
142.00 36.15
143.00 35.70
144.00 35.27
145.00 35.44
146.00 36.71
147.00 39.29
148.00 42.89
149.00 46.19
150.00 47.69
151.00 48.16
152.00 46.18
153.00 40.58
154.00 36.18
155.00 33.86
156.00 33.39
157.00 34.60
158.00 37.41
159.00 41.64
160.00 45.39
161.00 43.88
162.00 41.90
163.00 42.08
164.00 42.96
165.00 40.52
166.00 37.46
167.00 36.05
168.00 36.32
169.00 38.54
170.00 45.03
171.00 47.42
172.00 37.34
173.00 33.45
174.00 32.23
175.00 32.83
176.00 34.09
177.00 33.73
178.00 32.18
179.00 31.39
180.00 31.81
181.00 33.29
182.00 35.51
183.00 38.00
184.00 39.77
185.00 40.06
186.00 39.62
187.00 38.01
188.00 34.82
189.00 32.02
190.00 30.72
191.00 31.17
192.00 33.60
193.00 38.35
194.00 42.32
195.00 38.38
196.00 34.97
197.00 33.50
198.00 34.13
199.00 37.56
200.00 45.75
201.00 43.16
202.00 38.22
203.00 36.61
204.00 36.70
205.00 38.36
206.00 41.99
207.00 44.93
208.00 42.35
209.00 40.79
210.00 41.39
211.00 43.34
212.00 44.97
213.00 45.42
214.00 46.66
215.00 47.57
216.00 42.64
217.00 38.34
218.00 36.12
219.00 35.28
220.00 34.93
221.00 34.17
222.00 32.80
223.00 31.45
224.00 30.81
225.00 31.14
226.00 32.05
227.00 32.29
228.00 31.53
229.00 30.91
230.00 30.97
231.00 31.48
232.00 31.73
233.00 31.17
234.00 30.23
235.00 29.61
236.00 29.60
237.00 30.17
238.00 31.29
239.00 33.07
240.00 35.80
241.00 39.60
242.00 42.14
243.00 40.54
244.00 38.32
245.00 36.50
246.00 35.11
247.00 34.29
248.00 33.95
249.00 33.75
250.00 33.42
251.00 33.07
252.00 33.07
253.00 33.67
254.00 34.71
255.00 35.71
256.00 36.27
257.00 36.59
258.00 37.39
259.00 39.49
260.00 43.51
261.00 47.25
262.00 44.10
263.00 39.99
264.00 37.23
265.00 35.96
266.00 35.84
267.00 35.92
268.00 35.02
269.00 33.15
270.00 31.21
271.00 29.76
272.00 29.00
273.00 28.91
274.00 29.30
275.00 29.69
276.00 29.40
277.00 28.29
278.00 26.84
279.00 25.41
280.00 24.14
281.00 23.10
282.00 22.27
283.00 21.55
284.00 20.83
285.00 20.04
286.00 19.18
287.00 18.33
288.00 17.52
289.00 16.80
290.00 16.15
291.00 15.59
292.00 15.14
293.00 14.84
294.00 14.72
295.00 14.79
296.00 15.06
297.00 15.55
298.00 16.34
299.00 17.67
300.00 19.97
301.00 24.39
302.00 37.15
303.00 29.13
304.00 22.37
305.00 19.63
306.00 18.65
307.00 18.79
308.00 19.75
309.00 21.54
310.00 24.65
311.00 29.84
312.00 29.79
313.00 24.52
314.00 21.69
315.00 20.78
316.00 21.44
317.00 23.39
318.00 24.56
319.00 22.40
320.00 20.04
321.00 19.08
322.00 19.74
323.00 22.43
324.00 28.70
325.00 27.99
326.00 20.70
327.00 17.08
328.00 15.58
329.00 15.84
330.00 18.00
331.00 22.87
332.00 34.30
333.00 34.86
334.00 32.10
335.00 31.47
336.00 24.09
337.00 19.66
338.00 17.89
339.00 18.43
340.00 21.90
341.00 30.06
342.00 23.74
343.00 18.86
344.00 17.45
345.00 18.63
346.00 23.46
347.00 52.22
348.00 22.96
349.00 18.54
350.00 17.70
351.00 19.27
352.00 22.44
353.00 23.45
354.00 22.34
355.00 23.40
356.00 28.81
357.00 40.71
358.00 32.33
359.00 27.06
