NAME ATR4518R7_2535_X_CO_M45_02T_yL
FREQUENCY 2535
GAIN 15.93 dBd
TILT	ELECTRICAL
COMMENT DATE 05.08.2013 -45 degrees polarized system Lever position 02T deg
HORIZONTAL 360
0.00 0.01
1.00 0.00
2.00 0.01
3.00 0.04
4.00 0.08
5.00 0.14
6.00 0.22
7.00 0.31
8.00 0.43
9.00 0.55
10.00 0.69
11.00 0.85
12.00 1.01
13.00 1.18
14.00 1.36
15.00 1.54
16.00 1.72
17.00 1.89
18.00 2.06
19.00 2.23
20.00 2.38
21.00 2.54
22.00 2.68
23.00 2.82
24.00 2.96
25.00 3.10
26.00 3.24
27.00 3.38
28.00 3.53
29.00 3.69
30.00 3.85
31.00 4.03
32.00 4.21
33.00 4.41
34.00 4.61
35.00 4.83
36.00 5.06
37.00 5.30
38.00 5.56
39.00 5.82
40.00 6.09
41.00 6.38
42.00 6.67
43.00 6.97
44.00 7.27
45.00 7.58
46.00 7.90
47.00 8.22
48.00 8.55
49.00 8.87
50.00 9.20
51.00 9.53
52.00 9.86
53.00 10.18
54.00 10.50
55.00 10.82
56.00 11.13
57.00 11.44
58.00 11.74
59.00 12.03
60.00 12.32
61.00 12.61
62.00 12.89
63.00 13.17
64.00 13.45
65.00 13.73
66.00 14.01
67.00 14.30
68.00 14.59
69.00 14.89
70.00 15.20
71.00 15.52
72.00 15.85
73.00 16.19
74.00 16.53
75.00 16.88
76.00 17.23
77.00 17.59
78.00 17.95
79.00 18.31
80.00 18.67
81.00 19.03
82.00 19.38
83.00 19.73
84.00 20.08
85.00 20.43
86.00 20.78
87.00 21.14
88.00 21.52
89.00 21.90
90.00 22.31
91.00 22.74
92.00 23.20
93.00 23.69
94.00 24.21
95.00 24.77
96.00 25.36
97.00 25.99
98.00 26.67
99.00 27.37
100.00 28.11
101.00 28.88
102.00 29.69
103.00 30.52
104.00 31.38
105.00 32.28
106.00 33.22
107.00 34.23
108.00 35.31
109.00 36.49
110.00 37.79
111.00 39.20
112.00 40.60
113.00 41.69
114.00 42.00
115.00 41.32
116.00 39.99
117.00 38.49
118.00 37.07
119.00 35.83
120.00 34.77
121.00 33.88
122.00 33.16
123.00 32.60
124.00 32.17
125.00 31.87
126.00 31.70
127.00 31.64
128.00 31.70
129.00 31.86
130.00 32.13
131.00 32.50
132.00 32.97
133.00 33.53
134.00 34.18
135.00 34.90
136.00 35.67
137.00 36.46
138.00 37.22
139.00 37.92
140.00 38.48
141.00 38.87
142.00 39.10
143.00 39.17
144.00 39.15
145.00 39.06
146.00 38.96
147.00 38.89
148.00 38.84
149.00 38.85
150.00 38.92
151.00 39.03
152.00 39.20
153.00 39.43
154.00 39.70
155.00 40.01
156.00 40.35
157.00 40.72
158.00 41.10
159.00 41.46
160.00 41.79
161.00 42.07
162.00 42.26
163.00 42.35
164.00 42.34
165.00 42.21
166.00 42.00
167.00 41.74
168.00 41.44
169.00 41.13
170.00 40.84
171.00 40.58
172.00 40.36
173.00 40.19
174.00 40.08
175.00 40.03
176.00 40.06
177.00 40.18
178.00 40.39
179.00 40.73
180.00 41.22
181.00 41.88
182.00 42.78
183.00 44.00
184.00 45.67
185.00 48.03
186.00 51.48
187.00 55.92
188.00 54.63
189.00 49.62
190.00 45.89
191.00 43.16
192.00 41.08
193.00 39.44
194.00 38.12
195.00 37.08
196.00 36.26
197.00 35.64
198.00 35.22
199.00 34.97
200.00 34.90
201.00 35.01
202.00 35.33
203.00 35.87
204.00 36.67
205.00 37.78
206.00 39.32
207.00 41.48
208.00 44.67
209.00 50.07
210.00 59.72
211.00 50.42
212.00 44.76
213.00 41.43
214.00 39.18
215.00 37.57
216.00 36.39
217.00 35.55
218.00 34.99
219.00 34.67
220.00 34.56
221.00 34.65
222.00 34.94
223.00 35.39
224.00 35.99
225.00 36.66
226.00 37.31
227.00 37.73
228.00 37.77
229.00 37.35
230.00 36.59
231.00 35.66
232.00 34.74
233.00 33.89
234.00 33.18
235.00 32.62
236.00 32.19
237.00 31.92
238.00 31.77
239.00 31.76
240.00 31.87
241.00 32.07
242.00 32.35
243.00 32.66
244.00 32.95
245.00 33.14
246.00 33.16
247.00 32.96
248.00 32.53
249.00 31.93
250.00 31.21
251.00 30.44
252.00 29.68
253.00 28.96
254.00 28.29
255.00 27.69
256.00 27.16
257.00 26.70
258.00 26.31
259.00 25.99
260.00 25.74
261.00 25.54
262.00 25.40
263.00 25.31
264.00 25.26
265.00 25.22
266.00 25.19
267.00 25.13
268.00 25.03
269.00 24.85
270.00 24.59
271.00 24.23
272.00 23.78
273.00 23.26
274.00 22.68
275.00 22.08
276.00 21.47
277.00 20.87
278.00 20.30
279.00 19.76
280.00 19.27
281.00 18.81
282.00 18.40
283.00 18.02
284.00 17.69
285.00 17.38
286.00 17.10
287.00 16.85
288.00 16.60
289.00 16.36
290.00 16.11
291.00 15.86
292.00 15.58
293.00 15.29
294.00 14.97
295.00 14.63
296.00 14.27
297.00 13.88
298.00 13.49
299.00 13.08
300.00 12.66
301.00 12.24
302.00 11.83
303.00 11.42
304.00 11.02
305.00 10.63
306.00 10.24
307.00 9.86
308.00 9.48
309.00 9.11
310.00 8.74
311.00 8.36
312.00 7.99
313.00 7.61
314.00 7.22
315.00 6.84
316.00 6.45
317.00 6.06
318.00 5.67
319.00 5.29
320.00 4.91
321.00 4.55
322.00 4.19
323.00 3.86
324.00 3.54
325.00 3.23
326.00 2.95
327.00 2.68
328.00 2.44
329.00 2.21
330.00 2.01
331.00 1.82
332.00 1.65
333.00 1.50
334.00 1.36
335.00 1.24
336.00 1.13
337.00 1.04
338.00 0.95
339.00 0.87
340.00 0.81
341.00 0.75
342.00 0.69
343.00 0.65
344.00 0.60
345.00 0.57
346.00 0.53
347.00 0.49
348.00 0.45
349.00 0.42
350.00 0.38
351.00 0.34
352.00 0.29
353.00 0.25
354.00 0.21
355.00 0.16
356.00 0.12
357.00 0.08
358.00 0.05
359.00 0.02
VERTICAL 360
0.00 2.89
1.00 0.85
2.00 0.00
3.00 0.32
4.00 2.00
5.00 5.60
6.00 13.22
7.00 25.19
8.00 12.41
9.00 10.17
10.00 11.20
11.00 14.37
12.00 15.61
13.00 13.76
14.00 13.54
15.00 15.67
16.00 19.56
17.00 19.93
18.00 16.98
19.00 16.14
20.00 18.46
21.00 23.90
22.00 20.69
23.00 17.22
24.00 16.82
25.00 18.51
26.00 22.30
27.00 29.83
28.00 26.82
29.00 22.18
30.00 21.85
31.00 25.01
32.00 27.55
33.00 23.06
34.00 20.60
35.00 20.72
36.00 23.03
37.00 25.73
38.00 24.59
39.00 22.85
40.00 22.43
41.00 23.15
42.00 25.61
43.00 31.81
44.00 34.09
45.00 27.90
46.00 26.36
47.00 27.51
48.00 30.40
49.00 33.84
50.00 35.69
51.00 34.19
52.00 31.42
53.00 30.05
54.00 30.83
55.00 33.21
56.00 33.04
57.00 30.13
58.00 28.32
59.00 27.87
60.00 28.18
61.00 28.23
62.00 27.60
63.00 26.84
64.00 26.20
65.00 25.48
66.00 24.67
67.00 24.13
68.00 24.10
69.00 24.44
70.00 24.87
71.00 25.11
72.00 25.09
73.00 25.02
74.00 25.04
75.00 25.13
76.00 25.59
77.00 26.82
78.00 28.57
79.00 29.96
80.00 30.31
81.00 30.04
82.00 30.73
83.00 34.06
84.00 40.46
85.00 36.86
86.00 32.63
87.00 30.00
88.00 28.74
89.00 29.49
90.00 32.52
91.00 37.13
92.00 39.19
93.00 34.74
94.00 30.71
95.00 29.34
96.00 30.51
97.00 33.96
98.00 38.16
99.00 38.45
100.00 36.48
101.00 36.06
102.00 38.51
103.00 45.74
104.00 64.24
105.00 48.60
106.00 45.74
107.00 46.93
108.00 60.18
109.00 46.11
110.00 41.66
111.00 42.22
112.00 45.09
113.00 45.50
114.00 44.96
115.00 44.43
116.00 44.17
117.00 44.41
118.00 41.63
119.00 38.99
120.00 38.47
121.00 39.32
122.00 40.96
123.00 45.54
124.00 54.18
125.00 42.20
126.00 38.66
127.00 38.37
128.00 39.90
129.00 42.92
130.00 46.19
131.00 42.08
132.00 39.15
133.00 40.09
134.00 44.31
135.00 41.17
136.00 36.82
137.00 35.13
138.00 35.71
139.00 39.31
140.00 48.43
141.00 51.81
142.00 52.36
143.00 42.80
144.00 36.92
145.00 33.98
146.00 32.60
147.00 33.48
148.00 39.22
149.00 43.66
150.00 34.79
151.00 32.92
152.00 33.73
153.00 35.88
154.00 40.07
155.00 41.47
156.00 38.37
157.00 40.49
158.00 51.97
159.00 40.71
160.00 37.79
161.00 37.90
162.00 38.02
163.00 39.29
164.00 44.30
165.00 57.37
166.00 55.34
167.00 53.49
168.00 47.72
169.00 44.61
170.00 42.84
171.00 40.70
172.00 39.50
173.00 41.31
174.00 51.35
175.00 44.90
176.00 39.78
177.00 40.02
178.00 41.88
179.00 41.91
180.00 43.85
181.00 44.90
182.00 40.65
183.00 40.32
184.00 44.18
185.00 44.13
186.00 40.45
187.00 37.81
188.00 35.06
189.00 33.60
190.00 34.36
191.00 37.91
192.00 42.34
193.00 38.77
194.00 36.15
195.00 35.54
196.00 35.25
197.00 34.23
198.00 33.36
199.00 33.51
200.00 34.78
201.00 36.62
202.00 37.82
203.00 38.14
204.00 39.09
205.00 41.64
206.00 44.98
207.00 45.50
208.00 43.19
209.00 41.65
210.00 41.69
211.00 40.13
212.00 37.27
213.00 36.56
214.00 38.62
215.00 42.07
216.00 42.80
217.00 43.44
218.00 44.07
219.00 43.40
220.00 45.98
221.00 75.04
222.00 43.95
223.00 38.00
224.00 34.70
225.00 32.56
226.00 31.42
227.00 31.16
228.00 31.46
229.00 32.17
230.00 33.50
231.00 35.48
232.00 37.35
233.00 38.11
234.00 38.06
235.00 38.22
236.00 38.22
237.00 36.13
238.00 33.03
239.00 30.62
240.00 29.17
241.00 28.51
242.00 28.42
243.00 28.67
244.00 29.11
245.00 29.74
246.00 30.77
247.00 32.55
248.00 35.46
249.00 40.00
250.00 49.21
251.00 46.63
252.00 40.63
253.00 40.35
254.00 45.11
255.00 74.35
256.00 47.33
257.00 40.35
258.00 35.78
259.00 33.08
260.00 31.30
261.00 29.69
262.00 28.43
263.00 28.06
264.00 28.91
265.00 30.96
266.00 33.83
267.00 37.70
268.00 39.65
269.00 35.76
270.00 33.47
271.00 32.48
272.00 32.49
273.00 35.46
274.00 41.67
275.00 34.32
276.00 30.61
277.00 28.71
278.00 27.05
279.00 26.44
280.00 27.35
281.00 28.97
282.00 29.23
283.00 27.42
284.00 25.37
285.00 24.31
286.00 24.34
287.00 24.99
288.00 25.66
289.00 26.26
290.00 27.04
291.00 27.90
292.00 28.03
293.00 27.31
294.00 26.48
295.00 25.59
296.00 24.18
297.00 22.50
298.00 21.24
299.00 20.76
300.00 21.02
301.00 21.83
302.00 22.98
303.00 24.21
304.00 24.77
305.00 23.92
306.00 22.42
307.00 21.17
308.00 20.40
309.00 20.19
310.00 20.79
311.00 22.40
312.00 24.46
313.00 24.49
314.00 22.57
315.00 21.44
316.00 22.10
317.00 25.06
318.00 28.46
319.00 25.44
320.00 22.78
321.00 22.32
322.00 23.87
323.00 28.40
324.00 30.93
325.00 23.23
326.00 19.40
327.00 18.09
328.00 18.50
329.00 20.12
330.00 22.06
331.00 22.79
332.00 22.14
333.00 21.60
334.00 21.89
335.00 22.29
336.00 21.29
337.00 19.90
338.00 20.07
339.00 23.40
340.00 36.64
341.00 25.05
342.00 19.82
343.00 18.76
344.00 20.70
345.00 27.12
346.00 27.30
347.00 20.51
348.00 18.65
349.00 20.29
350.00 26.53
351.00 28.44
352.00 22.09
353.00 20.22
354.00 20.75
355.00 23.13
356.00 28.49
357.00 20.30
358.00 11.67
359.00 6.32
