NAME ATR4518R7_1880_X_CO_M45_04T_yyR
FREQUENCY 1880
GAIN 14.79 dBd
TILT	ELECTRICAL
COMMENT DATE 05.08.2013 -45 degrees polarized system Lever position 04T deg
HORIZONTAL 360
0.00 0.12
1.00 0.09
2.00 0.07
3.00 0.04
4.00 0.03
5.00 0.01
6.00 0.00
7.00 0.00
8.00 0.00
9.00 0.00
10.00 0.01
11.00 0.03
12.00 0.05
13.00 0.08
14.00 0.11
15.00 0.16
16.00 0.21
17.00 0.26
18.00 0.33
19.00 0.40
20.00 0.49
21.00 0.58
22.00 0.68
23.00 0.79
24.00 0.91
25.00 1.05
26.00 1.19
27.00 1.34
28.00 1.50
29.00 1.67
30.00 1.85
31.00 2.04
32.00 2.24
33.00 2.45
34.00 2.67
35.00 2.90
36.00 3.13
37.00 3.38
38.00 3.64
39.00 3.90
40.00 4.17
41.00 4.45
42.00 4.74
43.00 5.03
44.00 5.34
45.00 5.64
46.00 5.96
47.00 6.28
48.00 6.61
49.00 6.94
50.00 7.29
51.00 7.63
52.00 7.98
53.00 8.34
54.00 8.70
55.00 9.06
56.00 9.43
57.00 9.80
58.00 10.18
59.00 10.55
60.00 10.93
61.00 11.32
62.00 11.70
63.00 12.08
64.00 12.46
65.00 12.84
66.00 13.22
67.00 13.60
68.00 13.97
69.00 14.33
70.00 14.70
71.00 15.06
72.00 15.42
73.00 15.79
74.00 16.14
75.00 16.50
76.00 16.86
77.00 17.22
78.00 17.59
79.00 17.96
80.00 18.35
81.00 18.74
82.00 19.14
83.00 19.56
84.00 19.98
85.00 20.43
86.00 20.89
87.00 21.37
88.00 21.87
89.00 22.39
90.00 22.92
91.00 23.48
92.00 24.05
93.00 24.63
94.00 25.23
95.00 25.82
96.00 26.43
97.00 27.02
98.00 27.59
99.00 28.14
100.00 28.65
101.00 29.11
102.00 29.51
103.00 29.83
104.00 30.09
105.00 30.27
106.00 30.38
107.00 30.41
108.00 30.39
109.00 30.32
110.00 30.21
111.00 30.06
112.00 29.89
113.00 29.70
114.00 29.50
115.00 29.30
116.00 29.10
117.00 28.91
118.00 28.73
119.00 28.56
120.00 28.42
121.00 28.30
122.00 28.22
123.00 28.16
124.00 28.15
125.00 28.18
126.00 28.25
127.00 28.37
128.00 28.54
129.00 28.77
130.00 29.06
131.00 29.42
132.00 29.86
133.00 30.38
134.00 30.99
135.00 31.70
136.00 32.54
137.00 33.51
138.00 34.66
139.00 36.01
140.00 37.62
141.00 39.58
142.00 41.97
143.00 44.81
144.00 47.42
145.00 47.57
146.00 45.31
147.00 42.87
148.00 40.88
149.00 39.32
150.00 38.12
151.00 37.18
152.00 36.46
153.00 35.93
154.00 35.54
155.00 35.30
156.00 35.17
157.00 35.16
158.00 35.26
159.00 35.45
160.00 35.73
161.00 36.10
162.00 36.54
163.00 37.04
164.00 37.57
165.00 38.10
166.00 38.59
167.00 38.99
168.00 39.24
169.00 39.30
170.00 39.18
171.00 38.91
172.00 38.54
173.00 38.11
174.00 37.67
175.00 37.25
176.00 36.88
177.00 36.56
178.00 36.29
179.00 36.10
180.00 35.96
181.00 35.89
182.00 35.89
183.00 35.95
184.00 36.07
185.00 36.24
186.00 36.47
187.00 36.76
188.00 37.10
189.00 37.49
190.00 37.92
191.00 38.41
192.00 38.92
193.00 39.47
194.00 40.05
195.00 40.64
196.00 41.22
197.00 41.80
198.00 42.33
199.00 42.81
200.00 43.21
201.00 43.51
202.00 43.69
203.00 43.75
204.00 43.71
205.00 43.57
206.00 43.35
207.00 43.07
208.00 42.76
209.00 42.43
210.00 42.09
211.00 41.74
212.00 41.40
213.00 41.06
214.00 40.73
215.00 40.41
216.00 40.09
217.00 39.78
218.00 39.48
219.00 39.19
220.00 38.89
221.00 38.60
222.00 38.32
223.00 38.04
224.00 37.76
225.00 37.48
226.00 37.21
227.00 36.95
228.00 36.69
229.00 36.44
230.00 36.20
231.00 35.97
232.00 35.75
233.00 35.53
234.00 35.32
235.00 35.12
236.00 34.92
237.00 34.73
238.00 34.53
239.00 34.33
240.00 34.12
241.00 33.89
242.00 33.65
243.00 33.40
244.00 33.13
245.00 32.83
246.00 32.51
247.00 32.17
248.00 31.80
249.00 31.42
250.00 31.02
251.00 30.60
252.00 30.18
253.00 29.74
254.00 29.30
255.00 28.86
256.00 28.42
257.00 27.97
258.00 27.53
259.00 27.08
260.00 26.65
261.00 26.22
262.00 25.78
263.00 25.36
264.00 24.94
265.00 24.53
266.00 24.12
267.00 23.71
268.00 23.30
269.00 22.90
270.00 22.51
271.00 22.11
272.00 21.72
273.00 21.33
274.00 20.95
275.00 20.56
276.00 20.18
277.00 19.80
278.00 19.42
279.00 19.04
280.00 18.67
281.00 18.29
282.00 17.92
283.00 17.55
284.00 17.19
285.00 16.82
286.00 16.46
287.00 16.10
288.00 15.74
289.00 15.39
290.00 15.03
291.00 14.68
292.00 14.34
293.00 13.99
294.00 13.65
295.00 13.31
296.00 12.98
297.00 12.64
298.00 12.31
299.00 11.99
300.00 11.66
301.00 11.34
302.00 11.02
303.00 10.70
304.00 10.39
305.00 10.07
306.00 9.77
307.00 9.46
308.00 9.15
309.00 8.85
310.00 8.55
311.00 8.26
312.00 7.96
313.00 7.67
314.00 7.38
315.00 7.10
316.00 6.82
317.00 6.54
318.00 6.27
319.00 6.00
320.00 5.73
321.00 5.47
322.00 5.21
323.00 4.96
324.00 4.72
325.00 4.48
326.00 4.24
327.00 4.01
328.00 3.79
329.00 3.58
330.00 3.37
331.00 3.16
332.00 2.97
333.00 2.78
334.00 2.60
335.00 2.42
336.00 2.26
337.00 2.10
338.00 1.94
339.00 1.80
340.00 1.66
341.00 1.53
342.00 1.40
343.00 1.28
344.00 1.17
345.00 1.07
346.00 0.97
347.00 0.88
348.00 0.79
349.00 0.71
350.00 0.63
351.00 0.56
352.00 0.50
353.00 0.43
354.00 0.38
355.00 0.32
356.00 0.28
357.00 0.23
358.00 0.19
359.00 0.15
VERTICAL 360
0.00 6.32
1.00 3.45
2.00 1.53
3.00 0.40
4.00 0.00
5.00 0.31
6.00 1.40
7.00 3.42
8.00 6.81
9.00 12.89
10.00 26.21
11.00 17.64
12.00 12.64
13.00 11.43
14.00 12.29
15.00 15.33
16.00 23.11
17.00 31.22
18.00 18.23
19.00 14.73
20.00 13.95
21.00 15.19
22.00 18.87
23.00 26.20
24.00 24.61
25.00 18.96
26.00 16.74
27.00 16.48
28.00 17.84
29.00 21.12
30.00 26.28
31.00 25.54
32.00 20.99
33.00 18.60
34.00 17.83
35.00 18.28
36.00 19.86
37.00 22.82
38.00 28.28
39.00 42.10
40.00 33.35
41.00 27.35
42.00 25.23
43.00 24.60
44.00 24.41
45.00 23.90
46.00 22.91
47.00 21.86
48.00 21.06
49.00 20.59
50.00 20.49
51.00 20.88
52.00 21.94
53.00 24.01
54.00 27.77
55.00 35.79
56.00 49.21
57.00 32.61
58.00 28.81
59.00 27.30
60.00 26.91
61.00 27.23
62.00 28.00
63.00 29.02
64.00 29.96
65.00 30.51
66.00 30.67
67.00 30.72
68.00 30.91
69.00 31.22
70.00 31.46
71.00 31.52
72.00 31.49
73.00 31.60
74.00 31.94
75.00 32.23
76.00 31.90
77.00 30.81
78.00 29.32
79.00 27.89
80.00 26.77
81.00 26.11
82.00 25.84
83.00 25.72
84.00 25.58
85.00 25.41
86.00 25.31
87.00 25.42
88.00 25.91
89.00 26.95
90.00 28.55
91.00 30.00
92.00 29.90
93.00 28.55
94.00 27.48
95.00 27.34
96.00 28.25
97.00 30.14
98.00 32.84
99.00 35.90
100.00 38.34
101.00 39.34
102.00 39.45
103.00 39.24
104.00 38.73
105.00 38.26
106.00 38.19
107.00 38.44
108.00 38.57
109.00 38.17
110.00 37.31
111.00 36.52
112.00 36.22
113.00 36.46
114.00 36.93
115.00 37.08
116.00 36.68
117.00 36.11
118.00 35.95
119.00 36.51
120.00 37.56
121.00 38.25
122.00 38.22
123.00 38.30
124.00 39.11
125.00 40.38
126.00 41.15
127.00 40.49
128.00 38.59
129.00 36.42
130.00 34.71
131.00 33.70
132.00 33.33
133.00 33.42
134.00 33.83
135.00 34.52
136.00 35.61
137.00 37.29
138.00 39.22
139.00 39.55
140.00 38.00
141.00 36.70
142.00 36.38
143.00 36.78
144.00 37.53
145.00 38.72
146.00 40.96
147.00 44.77
148.00 46.37
149.00 42.46
150.00 39.49
151.00 38.36
152.00 38.88
153.00 41.33
154.00 47.30
155.00 55.24
156.00 46.50
157.00 42.75
158.00 41.61
159.00 41.32
160.00 40.69
161.00 39.30
162.00 37.89
163.00 37.27
164.00 37.85
165.00 38.93
166.00 38.31
167.00 36.33
168.00 35.11
169.00 35.10
170.00 35.96
171.00 36.92
172.00 37.12
173.00 36.54
174.00 35.91
175.00 35.89
176.00 36.92
177.00 39.83
178.00 45.83
179.00 58.37
180.00 49.18
181.00 45.22
182.00 45.12
183.00 45.55
184.00 44.37
185.00 43.84
186.00 46.17
187.00 52.11
188.00 49.72
189.00 45.44
190.00 44.78
191.00 45.70
192.00 46.25
193.00 46.94
194.00 49.74
195.00 54.37
196.00 55.78
197.00 58.10
198.00 53.38
199.00 46.81
200.00 44.69
201.00 46.25
202.00 52.85
203.00 66.95
204.00 62.02
205.00 50.09
206.00 41.64
207.00 37.37
208.00 35.51
209.00 35.25
210.00 35.69
211.00 35.74
212.00 35.09
213.00 34.23
214.00 33.42
215.00 32.75
216.00 32.50
217.00 32.95
218.00 34.23
219.00 36.28
220.00 38.83
221.00 41.42
222.00 43.24
223.00 43.12
224.00 41.92
225.00 41.62
226.00 43.23
227.00 46.75
228.00 45.49
229.00 40.34
230.00 37.16
231.00 35.70
232.00 35.60
233.00 36.73
234.00 39.11
235.00 42.97
236.00 48.95
237.00 55.52
238.00 51.63
239.00 46.93
240.00 43.86
241.00 41.80
242.00 40.76
243.00 40.90
244.00 42.42
245.00 45.46
246.00 48.83
247.00 48.84
248.00 47.16
249.00 46.58
250.00 46.89
251.00 46.08
252.00 43.41
253.00 41.01
254.00 39.80
255.00 39.59
256.00 39.91
257.00 40.27
258.00 40.58
259.00 41.20
260.00 42.48
261.00 43.58
262.00 42.43
263.00 40.46
264.00 39.74
265.00 40.46
266.00 41.68
267.00 41.70
268.00 40.11
269.00 37.87
270.00 35.85
271.00 34.60
272.00 34.24
273.00 34.57
274.00 35.18
275.00 35.64
276.00 35.81
277.00 35.92
278.00 36.20
279.00 36.51
280.00 36.46
281.00 35.79
282.00 34.37
283.00 32.44
284.00 30.55
285.00 29.00
286.00 27.74
287.00 26.64
288.00 25.59
289.00 24.63
290.00 23.90
291.00 23.52
292.00 23.53
293.00 23.82
294.00 24.23
295.00 24.64
296.00 25.15
297.00 25.97
298.00 27.18
299.00 28.35
300.00 28.42
301.00 27.15
302.00 25.59
303.00 24.41
304.00 23.69
305.00 23.31
306.00 23.08
307.00 22.88
308.00 22.70
309.00 22.65
310.00 22.82
311.00 23.17
312.00 23.56
313.00 23.85
314.00 23.96
315.00 23.88
316.00 23.71
317.00 23.59
318.00 23.69
319.00 24.05
320.00 24.55
321.00 24.79
322.00 24.40
323.00 23.35
324.00 22.04
325.00 20.89
326.00 20.07
327.00 19.58
328.00 19.40
329.00 19.60
330.00 20.38
331.00 21.96
332.00 24.41
333.00 27.12
334.00 27.41
335.00 24.81
336.00 22.14
337.00 20.41
338.00 19.84
339.00 20.72
340.00 23.68
341.00 29.36
342.00 28.14
343.00 23.14
344.00 21.51
345.00 22.92
346.00 30.11
347.00 33.31
348.00 21.42
349.00 17.23
350.00 15.53
351.00 15.52
352.00 17.14
353.00 20.89
354.00 28.86
355.00 39.23
356.00 30.94
357.00 24.11
358.00 16.23
359.00 10.42
