NAME ATR4518R7_1850_X_CO_M45_03T_yL
FREQUENCY 1850
GAIN 15.33 dBd
TILT	ELECTRICAL
COMMENT DATE 05.08.2013 -45 degrees polarized system Lever position 03T deg
HORIZONTAL 360
0.00 0.03
1.00 0.01
2.00 0.00
3.00 0.00
4.00 0.01
5.00 0.02
6.00 0.04
7.00 0.07
8.00 0.11
9.00 0.16
10.00 0.21
11.00 0.27
12.00 0.34
13.00 0.41
14.00 0.49
15.00 0.58
16.00 0.67
17.00 0.76
18.00 0.86
19.00 0.97
20.00 1.08
21.00 1.19
22.00 1.30
23.00 1.42
24.00 1.54
25.00 1.67
26.00 1.80
27.00 1.94
28.00 2.08
29.00 2.22
30.00 2.37
31.00 2.53
32.00 2.70
33.00 2.87
34.00 3.05
35.00 3.23
36.00 3.42
37.00 3.62
38.00 3.83
39.00 4.04
40.00 4.26
41.00 4.49
42.00 4.73
43.00 4.97
44.00 5.22
45.00 5.47
46.00 5.73
47.00 6.00
48.00 6.27
49.00 6.54
50.00 6.82
51.00 7.10
52.00 7.39
53.00 7.67
54.00 7.97
55.00 8.26
56.00 8.56
57.00 8.86
58.00 9.17
59.00 9.48
60.00 9.79
61.00 10.11
62.00 10.43
63.00 10.76
64.00 11.10
65.00 11.44
66.00 11.79
67.00 12.15
68.00 12.52
69.00 12.90
70.00 13.29
71.00 13.70
72.00 14.11
73.00 14.53
74.00 14.97
75.00 15.41
76.00 15.87
77.00 16.34
78.00 16.81
79.00 17.29
80.00 17.77
81.00 18.26
82.00 18.75
83.00 19.24
84.00 19.72
85.00 20.19
86.00 20.65
87.00 21.09
88.00 21.51
89.00 21.91
90.00 22.29
91.00 22.64
92.00 22.97
93.00 23.29
94.00 23.59
95.00 23.87
96.00 24.16
97.00 24.44
98.00 24.72
99.00 25.01
100.00 25.31
101.00 25.62
102.00 25.94
103.00 26.27
104.00 26.60
105.00 26.93
106.00 27.24
107.00 27.54
108.00 27.79
109.00 28.00
110.00 28.17
111.00 28.28
112.00 28.35
113.00 28.39
114.00 28.40
115.00 28.40
116.00 28.41
117.00 28.43
118.00 28.48
119.00 28.57
120.00 28.70
121.00 28.86
122.00 29.05
123.00 29.25
124.00 29.46
125.00 29.62
126.00 29.72
127.00 29.72
128.00 29.59
129.00 29.33
130.00 28.95
131.00 28.48
132.00 27.96
133.00 27.42
134.00 26.89
135.00 26.40
136.00 25.95
137.00 25.57
138.00 25.25
139.00 25.00
140.00 24.83
141.00 24.74
142.00 24.72
143.00 24.79
144.00 24.94
145.00 25.18
146.00 25.50
147.00 25.91
148.00 26.42
149.00 27.01
150.00 27.70
151.00 28.46
152.00 29.29
153.00 30.15
154.00 30.99
155.00 31.72
156.00 32.26
157.00 32.53
158.00 32.51
159.00 32.28
160.00 31.93
161.00 31.55
162.00 31.19
163.00 30.92
164.00 30.74
165.00 30.69
166.00 30.76
167.00 30.97
168.00 31.33
169.00 31.86
170.00 32.57
171.00 33.48
172.00 34.62
173.00 36.04
174.00 37.76
175.00 39.72
176.00 41.53
177.00 42.20
178.00 41.15
179.00 39.31
180.00 37.48
181.00 35.93
182.00 34.67
183.00 33.67
184.00 32.89
185.00 32.31
186.00 31.91
187.00 31.67
188.00 31.58
189.00 31.64
190.00 31.86
191.00 32.24
192.00 32.79
193.00 33.55
194.00 34.54
195.00 35.84
196.00 37.57
197.00 39.91
198.00 43.26
199.00 48.35
200.00 50.68
201.00 45.04
202.00 40.75
203.00 37.78
204.00 35.58
205.00 33.85
206.00 32.46
207.00 31.33
208.00 30.40
209.00 29.62
210.00 29.00
211.00 28.49
212.00 28.11
213.00 27.84
214.00 27.67
215.00 27.60
216.00 27.65
217.00 27.80
218.00 28.08
219.00 28.48
220.00 29.04
221.00 29.76
222.00 30.70
223.00 31.89
224.00 33.44
225.00 35.47
226.00 38.22
227.00 41.91
228.00 44.73
229.00 41.87
230.00 37.91
231.00 34.89
232.00 32.59
233.00 30.80
234.00 29.34
235.00 28.15
236.00 27.17
237.00 26.34
238.00 25.66
239.00 25.10
240.00 24.63
241.00 24.26
242.00 23.96
243.00 23.73
244.00 23.56
245.00 23.44
246.00 23.36
247.00 23.30
248.00 23.25
249.00 23.20
250.00 23.15
251.00 23.07
252.00 22.95
253.00 22.80
254.00 22.61
255.00 22.38
256.00 22.11
257.00 21.81
258.00 21.49
259.00 21.15
260.00 20.82
261.00 20.48
262.00 20.16
263.00 19.84
264.00 19.53
265.00 19.24
266.00 18.96
267.00 18.69
268.00 18.43
269.00 18.18
270.00 17.93
271.00 17.68
272.00 17.43
273.00 17.18
274.00 16.92
275.00 16.65
276.00 16.37
277.00 16.08
278.00 15.78
279.00 15.47
280.00 15.16
281.00 14.83
282.00 14.50
283.00 14.17
284.00 13.83
285.00 13.50
286.00 13.16
287.00 12.83
288.00 12.51
289.00 12.18
290.00 11.87
291.00 11.56
292.00 11.26
293.00 10.97
294.00 10.68
295.00 10.40
296.00 10.13
297.00 9.86
298.00 9.60
299.00 9.35
300.00 9.09
301.00 8.85
302.00 8.60
303.00 8.36
304.00 8.13
305.00 7.90
306.00 7.67
307.00 7.44
308.00 7.21
309.00 7.00
310.00 6.78
311.00 6.57
312.00 6.36
313.00 6.16
314.00 5.96
315.00 5.76
316.00 5.57
317.00 5.38
318.00 5.20
319.00 5.02
320.00 4.84
321.00 4.67
322.00 4.49
323.00 4.32
324.00 4.15
325.00 3.98
326.00 3.81
327.00 3.64
328.00 3.47
329.00 3.30
330.00 3.13
331.00 2.96
332.00 2.79
333.00 2.63
334.00 2.47
335.00 2.31
336.00 2.15
337.00 2.00
338.00 1.86
339.00 1.72
340.00 1.58
341.00 1.45
342.00 1.33
343.00 1.21
344.00 1.09
345.00 0.99
346.00 0.89
347.00 0.79
348.00 0.70
349.00 0.61
350.00 0.53
351.00 0.46
352.00 0.39
353.00 0.32
354.00 0.26
355.00 0.21
356.00 0.16
357.00 0.12
358.00 0.08
359.00 0.05
VERTICAL 360
0.00 3.63
1.00 1.69
2.00 0.50
3.00 0.00
4.00 0.19
5.00 1.12
6.00 2.93
7.00 5.93
8.00 11.03
9.00 23.11
10.00 19.89
11.00 13.54
12.00 12.07
13.00 13.10
14.00 16.95
15.00 27.63
16.00 20.78
17.00 14.70
18.00 12.31
19.00 11.83
20.00 12.82
21.00 15.25
22.00 19.09
23.00 22.20
24.00 20.74
25.00 18.80
26.00 18.23
27.00 19.10
28.00 21.58
29.00 25.28
30.00 24.83
31.00 21.19
32.00 18.78
33.00 17.55
34.00 17.07
35.00 17.15
36.00 17.83
37.00 19.27
38.00 21.67
39.00 24.76
40.00 26.70
41.00 25.99
42.00 24.49
43.00 22.97
44.00 21.46
45.00 20.17
46.00 19.31
47.00 18.93
48.00 19.03
49.00 19.54
50.00 20.43
51.00 21.70
52.00 23.35
53.00 25.38
54.00 27.87
55.00 31.03
56.00 35.49
57.00 43.90
58.00 48.70
59.00 37.85
60.00 33.31
61.00 30.53
62.00 28.72
63.00 27.62
64.00 27.04
65.00 26.82
66.00 26.77
67.00 26.76
68.00 26.79
69.00 26.96
70.00 27.40
71.00 28.18
72.00 29.25
73.00 30.47
74.00 31.67
75.00 32.73
76.00 33.71
77.00 34.98
78.00 36.88
79.00 39.55
80.00 42.81
81.00 44.63
82.00 41.42
83.00 37.98
84.00 36.32
85.00 36.37
86.00 37.84
87.00 40.06
88.00 41.81
89.00 42.00
90.00 40.48
91.00 38.36
92.00 36.72
93.00 35.84
94.00 35.57
95.00 35.71
96.00 36.15
97.00 36.92
98.00 38.08
99.00 39.61
100.00 41.30
101.00 42.69
102.00 43.41
103.00 43.64
104.00 44.07
105.00 45.39
106.00 48.08
107.00 52.40
108.00 56.55
109.00 55.82
110.00 54.00
111.00 53.03
112.00 52.86
113.00 53.81
114.00 56.08
115.00 53.30
116.00 47.07
117.00 42.74
118.00 40.04
119.00 38.59
120.00 38.31
121.00 39.27
122.00 41.62
123.00 44.99
124.00 46.24
125.00 44.50
126.00 42.84
127.00 41.48
128.00 40.40
129.00 39.95
130.00 40.33
131.00 41.27
132.00 42.16
133.00 42.46
134.00 42.36
135.00 42.37
136.00 42.87
137.00 43.97
138.00 45.16
139.00 45.19
140.00 43.89
141.00 42.33
142.00 41.10
143.00 40.42
144.00 40.22
145.00 40.10
146.00 39.77
147.00 39.78
148.00 40.93
149.00 42.86
150.00 41.97
151.00 39.30
152.00 38.25
153.00 39.36
154.00 42.08
155.00 42.65
156.00 41.08
157.00 41.05
158.00 41.05
159.00 38.37
160.00 35.98
161.00 35.42
162.00 36.54
163.00 37.88
164.00 37.17
165.00 35.88
166.00 35.45
167.00 35.51
168.00 35.22
169.00 34.57
170.00 33.93
171.00 33.42
172.00 33.08
173.00 33.11
174.00 33.52
175.00 34.01
176.00 34.10
177.00 33.67
178.00 33.29
179.00 33.50
180.00 34.96
181.00 38.56
182.00 46.73
183.00 49.29
184.00 43.92
185.00 44.64
186.00 50.34
187.00 47.41
188.00 40.89
189.00 36.88
190.00 34.31
191.00 33.18
192.00 33.69
193.00 36.08
194.00 40.44
195.00 44.28
196.00 44.36
197.00 45.15
198.00 46.88
199.00 45.91
200.00 42.18
201.00 38.87
202.00 37.04
203.00 36.74
204.00 37.41
205.00 37.96
206.00 38.10
207.00 38.80
208.00 39.99
209.00 39.29
210.00 36.52
211.00 33.78
212.00 31.52
213.00 29.81
214.00 28.72
215.00 28.29
216.00 28.47
217.00 29.15
218.00 30.17
219.00 31.50
220.00 33.26
221.00 35.73
222.00 39.32
223.00 44.35
224.00 47.24
225.00 43.67
226.00 40.39
227.00 38.12
228.00 36.56
229.00 35.63
230.00 35.35
231.00 35.78
232.00 36.77
233.00 37.63
234.00 37.23
235.00 35.65
236.00 34.04
237.00 33.01
238.00 32.76
239.00 33.35
240.00 34.69
241.00 36.39
242.00 37.42
243.00 37.09
244.00 36.15
245.00 35.38
246.00 34.97
247.00 34.88
248.00 35.02
249.00 35.33
250.00 35.84
251.00 36.68
252.00 38.05
253.00 39.93
254.00 41.46
255.00 41.49
256.00 40.91
257.00 40.71
258.00 40.70
259.00 40.22
260.00 38.95
261.00 37.33
262.00 36.02
263.00 35.39
264.00 35.51
265.00 36.23
266.00 37.21
267.00 38.02
268.00 38.30
269.00 37.82
270.00 36.53
271.00 34.69
272.00 32.73
273.00 30.99
274.00 29.64
275.00 28.66
276.00 27.95
277.00 27.41
278.00 26.95
279.00 26.54
280.00 26.21
281.00 26.02
282.00 25.94
283.00 25.92
284.00 25.91
285.00 25.92
286.00 26.04
287.00 26.32
288.00 26.80
289.00 27.58
290.00 28.75
291.00 30.41
292.00 32.30
293.00 33.23
294.00 32.19
295.00 30.38
296.00 28.68
297.00 27.07
298.00 25.41
299.00 23.83
300.00 22.56
301.00 21.84
302.00 21.73
303.00 22.16
304.00 22.89
305.00 23.68
306.00 24.45
307.00 25.09
308.00 24.83
309.00 23.20
310.00 21.13
311.00 19.45
312.00 18.37
313.00 17.84
314.00 17.73
315.00 18.00
316.00 18.72
317.00 20.03
318.00 22.06
319.00 24.74
320.00 27.29
321.00 28.36
322.00 28.19
323.00 27.71
324.00 26.82
325.00 25.29
326.00 23.50
327.00 22.00
328.00 21.11
329.00 21.04
330.00 21.93
331.00 23.95
332.00 26.84
333.00 27.61
334.00 24.93
335.00 22.61
336.00 21.64
337.00 22.19
338.00 24.73
339.00 30.83
340.00 31.46
341.00 24.73
342.00 21.96
343.00 21.79
344.00 24.41
345.00 34.00
346.00 29.84
347.00 21.57
348.00 18.06
349.00 16.51
350.00 16.33
351.00 17.39
352.00 19.89
353.00 24.26
354.00 30.34
355.00 28.18
356.00 21.09
357.00 14.96
358.00 10.10
359.00 6.38
