NAME ATR4518R7_0894_X_CO_P45_01T
FREQUENCY 0894
GAIN 14.55 dBd
TILT	ELECTRICAL
COMMENT DATE 05.08.2013 +45 degrees polarized system Lever position 01T deg
HORIZONTAL 360
0.00 0.01
1.00 0.00
2.00 0.01
3.00 0.01
4.00 0.03
5.00 0.05
6.00 0.07
7.00 0.11
8.00 0.14
9.00 0.19
10.00 0.24
11.00 0.30
12.00 0.36
13.00 0.43
14.00 0.50
15.00 0.59
16.00 0.68
17.00 0.77
18.00 0.87
19.00 0.98
20.00 1.09
21.00 1.21
22.00 1.34
23.00 1.47
24.00 1.61
25.00 1.75
26.00 1.90
27.00 2.06
28.00 2.22
29.00 2.39
30.00 2.57
31.00 2.75
32.00 2.94
33.00 3.13
34.00 3.33
35.00 3.54
36.00 3.75
37.00 3.97
38.00 4.19
39.00 4.42
40.00 4.66
41.00 4.90
42.00 5.15
43.00 5.41
44.00 5.67
45.00 5.93
46.00 6.20
47.00 6.48
48.00 6.77
49.00 7.06
50.00 7.35
51.00 7.65
52.00 7.96
53.00 8.28
54.00 8.59
55.00 8.92
56.00 9.25
57.00 9.59
58.00 9.93
59.00 10.28
60.00 10.64
61.00 11.00
62.00 11.36
63.00 11.74
64.00 12.12
65.00 12.50
66.00 12.90
67.00 13.29
68.00 13.70
69.00 14.11
70.00 14.53
71.00 14.96
72.00 15.39
73.00 15.83
74.00 16.28
75.00 16.73
76.00 17.20
77.00 17.67
78.00 18.15
79.00 18.64
80.00 19.13
81.00 19.64
82.00 20.15
83.00 20.68
84.00 21.22
85.00 21.76
86.00 22.32
87.00 22.89
88.00 23.47
89.00 24.06
90.00 24.66
91.00 25.27
92.00 25.89
93.00 26.51
94.00 27.15
95.00 27.79
96.00 28.43
97.00 29.08
98.00 29.71
99.00 30.34
100.00 30.94
101.00 31.52
102.00 32.06
103.00 32.54
104.00 32.98
105.00 33.34
106.00 33.64
107.00 33.86
108.00 34.01
109.00 34.10
110.00 34.12
111.00 34.10
112.00 34.05
113.00 33.96
114.00 33.86
115.00 33.75
116.00 33.64
117.00 33.52
118.00 33.41
119.00 33.31
120.00 33.22
121.00 33.14
122.00 33.07
123.00 33.02
124.00 32.99
125.00 32.97
126.00 32.97
127.00 32.98
128.00 33.02
129.00 33.06
130.00 33.14
131.00 33.22
132.00 33.33
133.00 33.45
134.00 33.60
135.00 33.77
136.00 33.96
137.00 34.18
138.00 34.42
139.00 34.68
140.00 34.98
141.00 35.30
142.00 35.66
143.00 36.05
144.00 36.47
145.00 36.94
146.00 37.45
147.00 38.01
148.00 38.61
149.00 39.27
150.00 39.99
151.00 40.75
152.00 41.58
153.00 42.42
154.00 43.26
155.00 44.04
156.00 44.65
157.00 44.99
158.00 44.96
159.00 44.57
160.00 43.90
161.00 43.06
162.00 42.15
163.00 41.24
164.00 40.36
165.00 39.53
166.00 38.75
167.00 38.03
168.00 37.37
169.00 36.75
170.00 36.20
171.00 35.67
172.00 35.20
173.00 34.76
174.00 34.36
175.00 33.99
176.00 33.66
177.00 33.36
178.00 33.09
179.00 32.84
180.00 32.62
181.00 32.42
182.00 32.25
183.00 32.10
184.00 31.98
185.00 31.87
186.00 31.79
187.00 31.73
188.00 31.68
189.00 31.66
190.00 31.65
191.00 31.66
192.00 31.69
193.00 31.74
194.00 31.81
195.00 31.89
196.00 31.98
197.00 32.10
198.00 32.22
199.00 32.37
200.00 32.52
201.00 32.69
202.00 32.88
203.00 33.07
204.00 33.28
205.00 33.49
206.00 33.72
207.00 33.95
208.00 34.20
209.00 34.44
210.00 34.70
211.00 34.96
212.00 35.22
213.00 35.49
214.00 35.75
215.00 36.01
216.00 36.27
217.00 36.53
218.00 36.78
219.00 37.03
220.00 37.26
221.00 37.49
222.00 37.71
223.00 37.90
224.00 38.09
225.00 38.25
226.00 38.39
227.00 38.51
228.00 38.60
229.00 38.67
230.00 38.69
231.00 38.69
232.00 38.64
233.00 38.56
234.00 38.44
235.00 38.26
236.00 38.05
237.00 37.80
238.00 37.51
239.00 37.19
240.00 36.84
241.00 36.46
242.00 36.06
243.00 35.63
244.00 35.19
245.00 34.73
246.00 34.27
247.00 33.79
248.00 33.30
249.00 32.81
250.00 32.32
251.00 31.82
252.00 31.32
253.00 30.81
254.00 30.31
255.00 29.80
256.00 29.29
257.00 28.79
258.00 28.28
259.00 27.77
260.00 27.27
261.00 26.77
262.00 26.27
263.00 25.77
264.00 25.27
265.00 24.78
266.00 24.29
267.00 23.81
268.00 23.33
269.00 22.85
270.00 22.38
271.00 21.91
272.00 21.45
273.00 21.00
274.00 20.54
275.00 20.10
276.00 19.66
277.00 19.22
278.00 18.79
279.00 18.37
280.00 17.95
281.00 17.54
282.00 17.13
283.00 16.73
284.00 16.33
285.00 15.94
286.00 15.55
287.00 15.17
288.00 14.79
289.00 14.43
290.00 14.06
291.00 13.70
292.00 13.34
293.00 12.98
294.00 12.63
295.00 12.29
296.00 11.95
297.00 11.62
298.00 11.28
299.00 10.96
300.00 10.63
301.00 10.32
302.00 10.00
303.00 9.69
304.00 9.38
305.00 9.08
306.00 8.78
307.00 8.49
308.00 8.19
309.00 7.91
310.00 7.63
311.00 7.35
312.00 7.08
313.00 6.81
314.00 6.54
315.00 6.28
316.00 6.03
317.00 5.77
318.00 5.53
319.00 5.29
320.00 5.05
321.00 4.82
322.00 4.59
323.00 4.37
324.00 4.15
325.00 3.94
326.00 3.73
327.00 3.53
328.00 3.33
329.00 3.14
330.00 2.95
331.00 2.77
332.00 2.59
333.00 2.42
334.00 2.26
335.00 2.10
336.00 1.94
337.00 1.79
338.00 1.65
339.00 1.52
340.00 1.38
341.00 1.26
342.00 1.14
343.00 1.03
344.00 0.92
345.00 0.82
346.00 0.72
347.00 0.63
348.00 0.55
349.00 0.47
350.00 0.40
351.00 0.33
352.00 0.27
353.00 0.22
354.00 0.17
355.00 0.13
356.00 0.09
357.00 0.06
358.00 0.04
359.00 0.02
VERTICAL 360
0.00 0.26
1.00 0.00
2.00 0.10
3.00 0.57
4.00 1.42
5.00 2.72
6.00 4.54
7.00 7.01
8.00 10.36
9.00 15.03
10.00 22.47
11.00 50.99
12.00 27.64
13.00 24.73
14.00 25.69
15.00 30.68
16.00 48.04
17.00 28.21
18.00 23.07
19.00 20.68
20.00 19.76
21.00 19.94
22.00 21.18
23.00 23.74
24.00 28.56
25.00 38.30
26.00 32.20
27.00 27.32
28.00 25.89
29.00 26.88
30.00 31.02
31.00 40.17
32.00 29.33
33.00 23.28
34.00 19.54
35.00 16.86
36.00 14.86
37.00 13.43
38.00 12.52
39.00 12.13
40.00 12.21
41.00 12.71
42.00 13.53
43.00 14.61
44.00 15.94
45.00 17.61
46.00 19.74
47.00 22.52
48.00 26.04
49.00 30.33
50.00 35.77
51.00 46.65
52.00 44.09
53.00 36.13
54.00 33.15
55.00 32.10
56.00 32.16
57.00 32.94
58.00 33.88
59.00 34.33
60.00 34.67
61.00 36.07
62.00 39.66
63.00 48.44
64.00 51.39
65.00 41.25
66.00 36.93
67.00 34.65
68.00 33.97
69.00 34.81
70.00 36.76
71.00 37.75
72.00 36.52
73.00 35.47
74.00 35.59
75.00 36.42
76.00 36.48
77.00 34.30
78.00 31.27
79.00 28.94
80.00 27.81
81.00 27.91
82.00 29.16
83.00 30.93
84.00 30.86
85.00 28.87
86.00 26.84
87.00 25.76
88.00 25.92
89.00 27.26
90.00 29.62
91.00 32.77
92.00 36.57
93.00 39.38
94.00 37.19
95.00 34.57
96.00 33.19
97.00 32.57
98.00 32.50
99.00 33.21
100.00 34.97
101.00 37.93
102.00 41.75
103.00 42.56
104.00 39.50
105.00 37.34
106.00 36.66
107.00 37.10
108.00 38.04
109.00 38.55
110.00 38.23
111.00 37.86
112.00 38.31
113.00 39.99
114.00 42.69
115.00 44.04
116.00 41.93
117.00 39.76
118.00 39.00
119.00 39.73
120.00 41.72
121.00 44.12
122.00 44.94
123.00 42.74
124.00 39.97
125.00 38.33
126.00 37.90
127.00 38.03
128.00 37.92
129.00 37.41
130.00 36.74
131.00 36.06
132.00 35.58
133.00 35.48
134.00 35.84
135.00 36.79
136.00 38.63
137.00 41.30
138.00 42.31
139.00 40.31
140.00 38.52
141.00 37.65
142.00 37.30
143.00 37.08
144.00 36.94
145.00 36.98
146.00 37.28
147.00 37.62
148.00 37.81
149.00 37.88
150.00 38.01
151.00 38.39
152.00 39.23
153.00 40.19
154.00 39.71
155.00 37.91
156.00 36.59
157.00 36.21
158.00 36.28
159.00 36.27
160.00 36.41
161.00 37.27
162.00 38.99
163.00 41.16
164.00 42.82
165.00 42.68
166.00 40.92
167.00 39.42
168.00 39.26
169.00 40.84
170.00 44.29
171.00 46.34
172.00 42.49
173.00 38.50
174.00 35.57
175.00 33.55
176.00 32.35
177.00 31.84
178.00 31.90
179.00 32.33
180.00 32.73
181.00 33.23
182.00 33.93
183.00 35.07
184.00 36.92
185.00 39.63
186.00 42.77
187.00 44.39
188.00 43.84
189.00 42.77
190.00 41.94
191.00 41.35
192.00 40.72
193.00 39.76
194.00 38.75
195.00 38.23
196.00 38.44
197.00 39.14
198.00 39.75
199.00 39.80
200.00 39.59
201.00 39.91
202.00 41.68
203.00 46.43
204.00 56.02
205.00 46.44
206.00 42.37
207.00 41.40
208.00 42.24
209.00 43.32
210.00 41.46
211.00 37.72
212.00 34.44
213.00 32.08
214.00 30.62
215.00 30.06
216.00 30.38
217.00 31.51
218.00 33.35
219.00 35.60
220.00 37.22
221.00 36.59
222.00 34.50
223.00 32.54
224.00 31.21
225.00 30.56
226.00 30.47
227.00 30.65
228.00 30.65
229.00 30.18
230.00 29.44
231.00 28.89
232.00 28.90
233.00 29.69
234.00 31.28
235.00 33.40
236.00 35.23
237.00 35.73
238.00 35.01
239.00 34.03
240.00 33.56
241.00 34.16
242.00 36.40
243.00 41.46
244.00 51.78
245.00 45.50
246.00 42.39
247.00 41.73
248.00 39.94
249.00 37.43
250.00 36.00
251.00 36.08
252.00 37.90
253.00 42.25
254.00 48.93
255.00 44.69
256.00 41.84
257.00 42.42
258.00 46.93
259.00 58.53
260.00 42.64
261.00 36.70
262.00 33.63
263.00 32.36
264.00 32.41
265.00 33.28
266.00 33.88
267.00 32.86
268.00 30.80
269.00 29.05
270.00 28.15
271.00 28.03
272.00 28.34
273.00 28.55
274.00 28.24
275.00 27.46
276.00 26.67
277.00 26.25
278.00 26.28
279.00 26.52
280.00 26.63
281.00 26.47
282.00 26.28
283.00 26.42
284.00 27.16
285.00 28.55
286.00 30.29
287.00 31.51
288.00 31.75
289.00 31.76
290.00 32.42
291.00 34.10
292.00 35.69
293.00 34.41
294.00 32.08
295.00 30.78
296.00 30.62
297.00 31.26
298.00 32.05
299.00 32.22
300.00 31.89
301.00 31.98
302.00 33.11
303.00 35.52
304.00 38.62
305.00 38.36
306.00 34.39
307.00 30.42
308.00 26.93
309.00 23.93
310.00 21.50
311.00 19.66
312.00 18.37
313.00 17.48
314.00 16.84
315.00 16.29
316.00 15.78
317.00 15.38
318.00 15.21
319.00 15.40
320.00 16.01
321.00 17.02
322.00 18.30
323.00 19.63
324.00 20.82
325.00 21.93
326.00 23.24
327.00 25.03
328.00 27.38
329.00 30.23
330.00 33.54
331.00 37.32
332.00 41.63
333.00 48.44
334.00 49.77
335.00 37.12
336.00 30.58
337.00 26.35
338.00 23.60
339.00 21.99
340.00 21.32
341.00 21.47
342.00 22.40
343.00 24.32
344.00 28.00
345.00 37.13
346.00 35.32
347.00 26.98
348.00 23.78
349.00 23.11
350.00 25.05
351.00 28.85
352.00 22.00
353.00 15.41
354.00 10.94
355.00 7.67
356.00 5.18
357.00 3.29
358.00 1.87
359.00 0.87
