NAME ATR4518R7_2535_X_CO_M45_08T_yyR
FREQUENCY 2535
GAIN 15.28 dBd
TILT	ELECTRICAL
COMMENT DATE 05.08.2013 -45 degrees polarized system Lever position 08T deg
HORIZONTAL 360
0.00 0.01
1.00 0.03
2.00 0.05
3.00 0.09
4.00 0.14
5.00 0.20
6.00 0.26
7.00 0.34
8.00 0.42
9.00 0.51
10.00 0.60
11.00 0.71
12.00 0.81
13.00 0.93
14.00 1.04
15.00 1.17
16.00 1.30
17.00 1.43
18.00 1.58
19.00 1.73
20.00 1.89
21.00 2.06
22.00 2.24
23.00 2.43
24.00 2.63
25.00 2.84
26.00 3.07
27.00 3.30
28.00 3.55
29.00 3.81
30.00 4.09
31.00 4.37
32.00 4.67
33.00 4.98
34.00 5.30
35.00 5.63
36.00 5.97
37.00 6.31
38.00 6.67
39.00 7.03
40.00 7.40
41.00 7.78
42.00 8.16
43.00 8.55
44.00 8.95
45.00 9.34
46.00 9.75
47.00 10.15
48.00 10.56
49.00 10.97
50.00 11.39
51.00 11.80
52.00 12.22
53.00 12.63
54.00 13.03
55.00 13.43
56.00 13.83
57.00 14.21
58.00 14.58
59.00 14.94
60.00 15.29
61.00 15.64
62.00 15.97
63.00 16.30
64.00 16.62
65.00 16.95
66.00 17.29
67.00 17.64
68.00 18.01
69.00 18.39
70.00 18.82
71.00 19.27
72.00 19.75
73.00 20.27
74.00 20.83
75.00 21.42
76.00 22.03
77.00 22.66
78.00 23.28
79.00 23.88
80.00 24.42
81.00 24.87
82.00 25.20
83.00 25.40
84.00 25.48
85.00 25.45
86.00 25.35
87.00 25.20
88.00 25.05
89.00 24.91
90.00 24.81
91.00 24.77
92.00 24.78
93.00 24.86
94.00 25.02
95.00 25.26
96.00 25.59
97.00 26.01
98.00 26.52
99.00 27.13
100.00 27.83
101.00 28.65
102.00 29.56
103.00 30.57
104.00 31.64
105.00 32.75
106.00 33.80
107.00 34.67
108.00 35.28
109.00 35.57
110.00 35.56
111.00 35.38
112.00 35.16
113.00 34.98
114.00 34.89
115.00 34.94
116.00 35.14
117.00 35.51
118.00 36.05
119.00 36.78
120.00 37.71
121.00 38.82
122.00 40.09
123.00 41.43
124.00 42.60
125.00 43.26
126.00 43.20
127.00 42.57
128.00 41.72
129.00 40.91
130.00 40.24
131.00 39.78
132.00 39.54
133.00 39.50
134.00 39.68
135.00 40.07
136.00 40.67
137.00 41.47
138.00 42.46
139.00 43.57
140.00 44.64
141.00 45.41
142.00 45.56
143.00 45.05
144.00 44.15
145.00 43.13
146.00 42.20
147.00 41.42
148.00 40.81
149.00 40.36
150.00 40.07
151.00 39.91
152.00 39.86
153.00 39.91
154.00 40.03
155.00 40.19
156.00 40.36
157.00 40.51
158.00 40.62
159.00 40.67
160.00 40.66
161.00 40.62
162.00 40.57
163.00 40.55
164.00 40.57
165.00 40.67
166.00 40.88
167.00 41.22
168.00 41.72
169.00 42.40
170.00 43.32
171.00 44.53
172.00 46.14
173.00 48.30
174.00 51.19
175.00 54.39
176.00 54.38
177.00 50.82
178.00 47.47
179.00 44.86
180.00 42.80
181.00 41.14
182.00 39.77
183.00 38.64
184.00 37.71
185.00 36.94
186.00 36.32
187.00 35.85
188.00 35.51
189.00 35.30
190.00 35.23
191.00 35.30
192.00 35.51
193.00 35.88
194.00 36.42
195.00 37.14
196.00 38.03
197.00 39.06
198.00 40.09
199.00 40.83
200.00 40.89
201.00 40.14
202.00 38.87
203.00 37.46
204.00 36.13
205.00 34.97
206.00 34.00
207.00 33.23
208.00 32.63
209.00 32.22
210.00 31.98
211.00 31.90
212.00 32.00
213.00 32.28
214.00 32.74
215.00 33.37
216.00 34.17
217.00 35.07
218.00 35.94
219.00 36.48
220.00 36.38
221.00 35.58
222.00 34.34
223.00 32.98
224.00 31.68
225.00 30.51
226.00 29.51
227.00 28.66
228.00 27.96
229.00 27.40
230.00 26.96
231.00 26.64
232.00 26.44
233.00 26.33
234.00 26.31
235.00 26.38
236.00 26.52
237.00 26.73
238.00 26.99
239.00 27.28
240.00 27.58
241.00 27.86
242.00 28.11
243.00 28.29
244.00 28.39
245.00 28.41
246.00 28.34
247.00 28.20
248.00 28.01
249.00 27.80
250.00 27.58
251.00 27.36
252.00 27.16
253.00 26.99
254.00 26.84
255.00 26.72
256.00 26.63
257.00 26.57
258.00 26.53
259.00 26.52
260.00 26.52
261.00 26.53
262.00 26.54
263.00 26.55
264.00 26.56
265.00 26.53
266.00 26.47
267.00 26.35
268.00 26.17
269.00 25.92
270.00 25.58
271.00 25.17
272.00 24.68
273.00 24.14
274.00 23.55
275.00 22.92
276.00 22.28
277.00 21.64
278.00 21.00
279.00 20.37
280.00 19.76
281.00 19.18
282.00 18.62
283.00 18.08
284.00 17.58
285.00 17.09
286.00 16.64
287.00 16.20
288.00 15.79
289.00 15.39
290.00 15.01
291.00 14.65
292.00 14.30
293.00 13.95
294.00 13.61
295.00 13.28
296.00 12.95
297.00 12.62
298.00 12.28
299.00 11.95
300.00 11.61
301.00 11.26
302.00 10.92
303.00 10.57
304.00 10.22
305.00 9.86
306.00 9.51
307.00 9.15
308.00 8.80
309.00 8.45
310.00 8.10
311.00 7.75
312.00 7.41
313.00 7.08
314.00 6.75
315.00 6.44
316.00 6.12
317.00 5.82
318.00 5.53
319.00 5.25
320.00 4.98
321.00 4.72
322.00 4.47
323.00 4.23
324.00 4.00
325.00 3.78
326.00 3.58
327.00 3.38
328.00 3.19
329.00 3.01
330.00 2.84
331.00 2.68
332.00 2.53
333.00 2.38
334.00 2.24
335.00 2.10
336.00 1.97
337.00 1.85
338.00 1.72
339.00 1.60
340.00 1.48
341.00 1.36
342.00 1.25
343.00 1.13
344.00 1.02
345.00 0.91
346.00 0.80
347.00 0.70
348.00 0.60
349.00 0.50
350.00 0.41
351.00 0.33
352.00 0.26
353.00 0.19
354.00 0.13
355.00 0.09
356.00 0.05
357.00 0.02
358.00 0.01
359.00 0.00
VERTICAL 360
0.00 17.77
1.00 17.24
2.00 15.44
3.00 12.08
4.00 8.19
5.00 4.78
6.00 2.22
7.00 0.62
8.00 0.00
9.00 0.41
10.00 2.06
11.00 5.44
12.00 12.38
13.00 26.02
14.00 13.47
15.00 10.85
16.00 11.93
17.00 16.17
18.00 20.62
19.00 16.84
20.00 14.55
21.00 15.18
22.00 19.01
23.00 26.90
24.00 22.82
25.00 19.12
26.00 20.03
27.00 27.19
28.00 28.13
29.00 19.03
30.00 16.12
31.00 15.88
32.00 17.75
33.00 22.25
34.00 32.10
35.00 29.42
36.00 23.62
37.00 22.60
38.00 25.07
39.00 29.95
40.00 25.78
41.00 21.95
42.00 21.29
43.00 22.97
44.00 26.94
45.00 33.76
46.00 32.49
47.00 26.94
48.00 24.78
49.00 25.08
50.00 28.02
51.00 35.39
52.00 40.70
53.00 33.86
54.00 31.25
55.00 29.47
56.00 28.23
57.00 27.84
58.00 27.93
59.00 27.32
60.00 26.18
61.00 26.10
62.00 27.59
63.00 29.53
64.00 29.68
65.00 28.54
66.00 28.11
67.00 29.36
68.00 32.31
69.00 35.25
70.00 35.97
71.00 35.39
72.00 36.34
73.00 40.83
74.00 40.87
75.00 37.46
76.00 36.72
77.00 35.55
78.00 35.57
79.00 39.10
80.00 46.57
81.00 50.85
82.00 39.98
83.00 35.26
84.00 33.85
85.00 31.48
86.00 28.96
87.00 29.53
88.00 36.54
89.00 42.77
90.00 32.48
91.00 31.92
92.00 32.78
93.00 30.88
94.00 30.15
95.00 32.05
96.00 35.14
97.00 35.68
98.00 34.12
99.00 33.18
100.00 34.12
101.00 37.20
102.00 40.67
103.00 40.27
104.00 37.01
105.00 35.28
106.00 36.35
107.00 40.10
108.00 44.18
109.00 43.68
110.00 41.15
111.00 40.94
112.00 42.46
113.00 41.59
114.00 41.22
115.00 43.81
116.00 48.90
117.00 53.67
118.00 44.87
119.00 43.02
120.00 50.77
121.00 49.76
122.00 43.40
123.00 42.64
124.00 38.96
125.00 36.77
126.00 38.08
127.00 41.57
128.00 42.25
129.00 41.09
130.00 41.01
131.00 41.66
132.00 41.70
133.00 40.00
134.00 37.79
135.00 36.82
136.00 37.89
137.00 39.20
138.00 37.73
139.00 36.77
140.00 37.92
141.00 40.51
142.00 41.66
143.00 40.11
144.00 39.60
145.00 40.62
146.00 41.21
147.00 40.68
148.00 39.27
149.00 38.11
150.00 37.95
151.00 36.91
152.00 35.16
153.00 34.87
154.00 36.60
155.00 40.11
156.00 44.16
157.00 45.13
158.00 43.80
159.00 43.16
160.00 43.67
161.00 44.85
162.00 44.54
163.00 41.61
164.00 38.88
165.00 38.31
166.00 40.81
167.00 47.31
168.00 52.09
169.00 50.55
170.00 48.97
171.00 46.80
172.00 44.86
173.00 41.55
174.00 38.99
175.00 37.72
176.00 36.01
177.00 33.57
178.00 32.32
179.00 33.21
180.00 35.72
181.00 37.53
182.00 38.49
183.00 41.43
184.00 45.90
185.00 43.03
186.00 38.56
187.00 36.58
188.00 35.60
189.00 33.89
190.00 32.32
191.00 32.12
192.00 33.51
193.00 36.44
194.00 40.46
195.00 44.62
196.00 51.19
197.00 44.76
198.00 37.00
199.00 33.71
200.00 33.21
201.00 35.15
202.00 39.43
203.00 42.88
204.00 39.09
205.00 36.13
206.00 35.96
207.00 36.47
208.00 34.64
209.00 33.05
210.00 33.21
211.00 34.36
212.00 35.20
213.00 35.44
214.00 36.50
215.00 39.84
216.00 41.85
217.00 38.59
218.00 37.19
219.00 37.35
220.00 37.90
221.00 39.16
222.00 41.15
223.00 42.60
224.00 43.88
225.00 45.83
226.00 45.62
227.00 42.90
228.00 40.69
229.00 39.28
230.00 38.37
231.00 38.09
232.00 39.02
233.00 41.77
234.00 44.38
235.00 42.59
236.00 41.50
237.00 42.29
238.00 41.65
239.00 39.08
240.00 37.26
241.00 36.40
242.00 35.94
243.00 35.76
244.00 36.24
245.00 37.67
246.00 39.74
247.00 41.18
248.00 40.65
249.00 39.21
250.00 38.91
251.00 40.79
252.00 43.47
253.00 42.60
254.00 41.68
255.00 42.33
256.00 43.88
257.00 47.04
258.00 45.83
259.00 42.46
260.00 43.51
261.00 49.41
262.00 50.18
263.00 47.16
264.00 45.42
265.00 41.39
266.00 36.42
267.00 32.71
268.00 30.85
269.00 30.49
270.00 30.80
271.00 30.71
272.00 30.05
273.00 29.52
274.00 29.60
275.00 30.14
276.00 30.30
277.00 29.45
278.00 28.30
279.00 27.63
280.00 27.49
281.00 27.38
282.00 26.87
283.00 26.08
284.00 25.55
285.00 25.73
286.00 26.64
287.00 27.82
288.00 28.55
289.00 28.69
290.00 28.82
291.00 29.45
292.00 30.39
293.00 30.81
294.00 30.60
295.00 30.97
296.00 33.50
297.00 42.16
298.00 36.49
299.00 27.52
300.00 22.52
301.00 18.89
302.00 16.04
303.00 13.82
304.00 12.21
305.00 11.15
306.00 10.58
307.00 10.43
308.00 10.73
309.00 11.56
310.00 13.14
311.00 15.79
312.00 20.01
313.00 24.20
314.00 21.86
315.00 18.69
316.00 17.32
317.00 17.49
318.00 19.18
319.00 22.77
320.00 26.70
321.00 24.09
322.00 21.32
323.00 21.33
324.00 24.61
325.00 33.20
326.00 28.73
327.00 22.97
328.00 21.21
329.00 22.16
330.00 27.50
331.00 34.93
332.00 22.28
333.00 18.29
334.00 17.83
335.00 21.19
336.00 33.75
337.00 21.06
338.00 14.74
339.00 12.18
340.00 11.69
341.00 13.03
342.00 16.52
343.00 24.03
344.00 45.06
345.00 25.29
346.00 22.93
347.00 24.07
348.00 27.05
349.00 26.59
350.00 23.68
351.00 22.90
352.00 24.28
353.00 26.10
354.00 26.43
355.00 26.99
356.00 26.36
357.00 22.53
358.00 19.55
359.00 18.19
