NAME ATR4518R7_2655_X_CO_M45_08T_yL
FREQUENCY 2655
GAIN 15.88 dBd
TILT	ELECTRICAL
COMMENT DATE 05.08.2013 -45 degrees polarized system Lever position 08T deg
HORIZONTAL 360
0.00 0.23
1.00 0.33
2.00 0.44
3.00 0.55
4.00 0.67
5.00 0.78
6.00 0.89
7.00 0.99
8.00 1.07
9.00 1.14
10.00 1.19
11.00 1.24
12.00 1.28
13.00 1.31
14.00 1.34
15.00 1.38
16.00 1.43
17.00 1.49
18.00 1.57
19.00 1.67
20.00 1.79
21.00 1.93
22.00 2.09
23.00 2.27
24.00 2.47
25.00 2.69
26.00 2.92
27.00 3.16
28.00 3.41
29.00 3.65
30.00 3.89
31.00 4.13
32.00 4.35
33.00 4.55
34.00 4.74
35.00 4.91
36.00 5.07
37.00 5.20
38.00 5.33
39.00 5.44
40.00 5.55
41.00 5.65
42.00 5.75
43.00 5.85
44.00 5.96
45.00 6.08
46.00 6.21
47.00 6.34
48.00 6.50
49.00 6.66
50.00 6.84
51.00 7.04
52.00 7.25
53.00 7.47
54.00 7.72
55.00 7.97
56.00 8.25
57.00 8.53
58.00 8.84
59.00 9.15
60.00 9.48
61.00 9.83
62.00 10.18
63.00 10.55
64.00 10.94
65.00 11.32
66.00 11.73
67.00 12.14
68.00 12.56
69.00 12.99
70.00 13.43
71.00 13.87
72.00 14.33
73.00 14.79
74.00 15.25
75.00 15.72
76.00 16.18
77.00 16.65
78.00 17.12
79.00 17.59
80.00 18.05
81.00 18.50
82.00 18.95
83.00 19.38
84.00 19.81
85.00 20.22
86.00 20.63
87.00 21.02
88.00 21.41
89.00 21.79
90.00 22.16
91.00 22.54
92.00 22.92
93.00 23.31
94.00 23.71
95.00 24.13
96.00 24.58
97.00 25.05
98.00 25.56
99.00 26.12
100.00 26.71
101.00 27.35
102.00 28.04
103.00 28.79
104.00 29.58
105.00 30.43
106.00 31.32
107.00 32.25
108.00 33.22
109.00 34.22
110.00 35.25
111.00 36.31
112.00 37.42
113.00 38.64
114.00 40.04
115.00 41.73
116.00 43.95
117.00 47.17
118.00 52.78
119.00 76.97
120.00 52.88
121.00 46.64
122.00 42.98
123.00 40.47
124.00 38.59
125.00 37.15
126.00 36.04
127.00 35.21
128.00 34.61
129.00 34.23
130.00 34.03
131.00 34.01
132.00 34.14
133.00 34.38
134.00 34.68
135.00 34.92
136.00 34.97
137.00 34.69
138.00 34.06
139.00 33.15
140.00 32.10
141.00 31.02
142.00 30.02
143.00 29.11
144.00 28.32
145.00 27.66
146.00 27.13
147.00 26.72
148.00 26.44
149.00 26.28
150.00 26.24
151.00 26.32
152.00 26.52
153.00 26.83
154.00 27.27
155.00 27.82
156.00 28.47
157.00 29.23
158.00 30.05
159.00 30.90
160.00 31.70
161.00 32.35
162.00 32.75
163.00 32.85
164.00 32.68
165.00 32.35
166.00 31.95
167.00 31.57
168.00 31.25
169.00 31.03
170.00 30.93
171.00 30.96
172.00 31.11
173.00 31.39
174.00 31.80
175.00 32.34
176.00 32.98
177.00 33.71
178.00 34.45
179.00 35.12
180.00 35.57
181.00 35.67
182.00 35.38
183.00 34.79
184.00 34.04
185.00 33.25
186.00 32.51
187.00 31.86
188.00 31.32
189.00 30.91
190.00 30.62
191.00 30.46
192.00 30.44
193.00 30.55
194.00 30.81
195.00 31.22
196.00 31.80
197.00 32.56
198.00 33.54
199.00 34.77
200.00 36.30
201.00 38.16
202.00 40.31
203.00 42.32
204.00 43.04
205.00 41.90
206.00 40.04
207.00 38.32
208.00 36.94
209.00 35.91
210.00 35.20
211.00 34.75
212.00 34.57
213.00 34.64
214.00 34.96
215.00 35.55
216.00 36.45
217.00 37.71
218.00 39.43
219.00 41.81
220.00 45.12
221.00 49.40
222.00 50.30
223.00 46.34
224.00 43.01
225.00 40.71
226.00 39.11
227.00 38.03
228.00 37.34
229.00 36.98
230.00 36.92
231.00 37.15
232.00 37.67
233.00 38.49
234.00 39.64
235.00 41.14
236.00 43.01
237.00 45.04
238.00 46.49
239.00 46.24
240.00 44.65
241.00 42.89
242.00 41.41
243.00 40.26
244.00 39.44
245.00 38.90
246.00 38.56
247.00 38.39
248.00 38.34
249.00 38.33
250.00 38.29
251.00 38.15
252.00 37.85
253.00 37.39
254.00 36.81
255.00 36.17
256.00 35.52
257.00 34.91
258.00 34.40
259.00 33.98
260.00 33.68
261.00 33.51
262.00 33.48
263.00 33.59
264.00 33.85
265.00 34.27
266.00 34.82
267.00 35.47
268.00 36.11
269.00 36.53
270.00 36.45
271.00 35.75
272.00 34.54
273.00 33.10
274.00 31.65
275.00 30.28
276.00 29.05
277.00 27.95
278.00 26.98
279.00 26.14
280.00 25.41
281.00 24.78
282.00 24.23
283.00 23.75
284.00 23.33
285.00 22.94
286.00 22.56
287.00 22.18
288.00 21.76
289.00 21.31
290.00 20.79
291.00 20.21
292.00 19.58
293.00 18.91
294.00 18.20
295.00 17.48
296.00 16.75
297.00 16.04
298.00 15.34
299.00 14.67
300.00 14.03
301.00 13.41
302.00 12.82
303.00 12.26
304.00 11.72
305.00 11.21
306.00 10.72
307.00 10.24
308.00 9.77
309.00 9.32
310.00 8.88
311.00 8.44
312.00 8.01
313.00 7.59
314.00 7.17
315.00 6.76
316.00 6.36
317.00 5.97
318.00 5.60
319.00 5.24
320.00 4.89
321.00 4.56
322.00 4.25
323.00 3.96
324.00 3.69
325.00 3.43
326.00 3.19
327.00 2.97
328.00 2.77
329.00 2.58
330.00 2.41
331.00 2.26
332.00 2.11
333.00 1.98
334.00 1.85
335.00 1.74
336.00 1.63
337.00 1.53
338.00 1.43
339.00 1.33
340.00 1.23
341.00 1.14
342.00 1.04
343.00 0.94
344.00 0.83
345.00 0.73
346.00 0.63
347.00 0.52
348.00 0.42
349.00 0.32
350.00 0.24
351.00 0.16
352.00 0.09
353.00 0.04
354.00 0.01
355.00 0.00
356.00 0.01
357.00 0.04
358.00 0.08
359.00 0.15
VERTICAL 360
0.00 19.28
1.00 19.20
2.00 20.55
3.00 16.99
4.00 10.47
5.00 5.67
6.00 2.47
7.00 0.61
8.00 0.00
9.00 0.68
10.00 2.89
11.00 7.51
12.00 19.17
13.00 16.22
14.00 10.54
15.00 10.24
16.00 13.57
17.00 24.31
18.00 21.17
19.00 15.17
20.00 14.55
21.00 17.65
22.00 28.68
23.00 24.06
24.00 18.59
25.00 18.61
26.00 23.36
27.00 33.15
28.00 20.99
29.00 17.62
30.00 18.15
31.00 23.30
32.00 26.58
33.00 17.31
34.00 13.30
35.00 11.57
36.00 11.40
37.00 12.70
38.00 15.75
39.00 21.22
40.00 26.54
41.00 23.36
42.00 21.41
43.00 21.39
44.00 22.67
45.00 25.16
46.00 29.72
47.00 40.32
48.00 34.53
49.00 29.04
50.00 27.67
51.00 28.69
52.00 31.50
53.00 35.45
54.00 39.40
55.00 42.87
56.00 48.11
57.00 52.71
58.00 43.48
59.00 39.01
60.00 37.40
61.00 38.32
62.00 41.74
63.00 45.04
64.00 41.91
65.00 38.14
66.00 36.87
67.00 38.55
68.00 42.25
69.00 42.82
70.00 40.35
71.00 37.42
72.00 36.14
73.00 36.98
74.00 38.70
75.00 39.09
76.00 36.67
77.00 34.19
78.00 34.13
79.00 37.17
80.00 43.27
81.00 49.35
82.00 45.52
83.00 38.15
84.00 34.86
85.00 34.69
86.00 38.04
87.00 42.11
88.00 36.85
89.00 35.17
90.00 36.20
91.00 35.32
92.00 34.29
93.00 37.22
94.00 47.49
95.00 38.59
96.00 35.45
97.00 35.66
98.00 35.69
99.00 34.92
100.00 35.34
101.00 37.14
102.00 38.73
103.00 38.05
104.00 35.95
105.00 34.51
106.00 34.39
107.00 35.05
108.00 35.38
109.00 34.74
110.00 33.44
111.00 32.28
112.00 31.75
113.00 31.76
114.00 31.93
115.00 31.85
116.00 31.41
117.00 31.00
118.00 31.17
119.00 32.37
120.00 34.95
121.00 37.95
122.00 37.63
123.00 37.15
124.00 39.85
125.00 41.67
126.00 37.97
127.00 37.64
128.00 41.78
129.00 53.34
130.00 55.02
131.00 46.00
132.00 41.09
133.00 38.61
134.00 35.98
135.00 33.68
136.00 32.99
137.00 33.85
138.00 35.56
139.00 37.38
140.00 39.22
141.00 40.64
142.00 39.24
143.00 36.61
144.00 34.62
145.00 33.51
146.00 33.94
147.00 36.09
148.00 37.89
149.00 38.10
150.00 37.13
151.00 35.24
152.00 35.33
153.00 36.89
154.00 36.25
155.00 37.15
156.00 42.63
157.00 39.88
158.00 38.62
159.00 39.25
160.00 33.98
161.00 31.64
162.00 32.19
163.00 33.12
164.00 33.07
165.00 33.84
166.00 35.75
167.00 36.84
168.00 34.82
169.00 32.78
170.00 32.38
171.00 32.60
172.00 32.34
173.00 32.12
174.00 31.74
175.00 31.39
176.00 32.37
177.00 34.92
178.00 38.10
179.00 44.19
180.00 47.87
181.00 38.77
182.00 36.59
183.00 35.35
184.00 34.07
185.00 34.62
186.00 35.34
187.00 33.76
188.00 33.74
189.00 36.75
190.00 41.45
191.00 41.32
192.00 36.52
193.00 33.87
194.00 32.64
195.00 29.64
196.00 26.95
197.00 26.09
198.00 26.20
199.00 26.21
200.00 26.90
201.00 29.48
202.00 34.43
203.00 39.27
204.00 38.23
205.00 36.85
206.00 36.15
207.00 34.92
208.00 35.02
209.00 39.20
210.00 53.16
211.00 44.60
212.00 49.45
213.00 42.07
214.00 35.10
215.00 32.83
216.00 32.50
217.00 33.13
218.00 34.67
219.00 37.19
220.00 40.61
221.00 44.07
222.00 43.08
223.00 38.52
224.00 34.69
225.00 32.56
226.00 31.99
227.00 32.15
228.00 31.69
229.00 30.28
230.00 28.85
231.00 28.09
232.00 28.16
233.00 28.76
234.00 29.28
235.00 29.53
236.00 30.12
237.00 31.97
238.00 36.22
239.00 46.62
240.00 49.01
241.00 44.14
242.00 48.61
243.00 54.63
244.00 42.85
245.00 39.94
246.00 40.69
247.00 46.02
248.00 57.30
249.00 42.39
250.00 37.95
251.00 35.90
252.00 34.95
253.00 34.62
254.00 34.65
255.00 34.93
256.00 35.86
257.00 38.17
258.00 41.16
259.00 40.12
260.00 38.19
261.00 38.07
262.00 39.43
263.00 42.57
264.00 51.27
265.00 49.46
266.00 41.07
267.00 37.44
268.00 35.77
269.00 36.03
270.00 39.25
271.00 51.26
272.00 41.18
273.00 34.77
274.00 31.89
275.00 30.69
276.00 30.84
277.00 32.34
278.00 34.69
279.00 35.94
280.00 35.62
281.00 35.50
282.00 36.47
283.00 39.33
284.00 45.22
285.00 56.06
286.00 51.55
287.00 44.08
288.00 40.93
289.00 40.55
290.00 42.14
291.00 46.37
292.00 52.07
293.00 45.36
294.00 43.63
295.00 46.30
296.00 51.70
297.00 47.71
298.00 41.01
299.00 36.88
300.00 33.01
301.00 28.16
302.00 23.73
303.00 20.32
304.00 17.74
305.00 15.70
306.00 14.06
307.00 12.69
308.00 11.56
309.00 10.68
310.00 10.12
311.00 10.02
312.00 10.58
313.00 12.06
314.00 14.87
315.00 20.31
316.00 31.53
317.00 20.35
318.00 15.75
319.00 14.25
320.00 14.87
321.00 17.92
322.00 26.08
323.00 31.02
324.00 21.36
325.00 19.08
326.00 19.67
327.00 23.27
328.00 35.98
329.00 27.57
330.00 21.85
331.00 21.20
332.00 24.83
333.00 35.57
334.00 23.48
335.00 18.87
336.00 17.77
337.00 19.69
338.00 27.29
339.00 25.59
340.00 18.46
341.00 16.56
342.00 17.75
343.00 22.48
344.00 31.74
345.00 23.43
346.00 19.89
347.00 20.10
348.00 24.27
349.00 39.76
350.00 28.49
351.00 25.85
352.00 29.42
353.00 47.36
354.00 29.14
355.00 25.77
356.00 27.55
357.00 41.06
358.00 27.92
359.00 21.63
