NAME ATR4518R7_0806_X_CO_M45_09T
FREQUENCY 0806
GAIN 14.30 dBd
TILT	ELECTRICAL
COMMENT DATE 05.08.2013 -45 degrees polarized system Lever position 09T deg
HORIZONTAL 360
0.00 0.00
1.00 0.00
2.00 0.01
3.00 0.03
4.00 0.05
5.00 0.08
6.00 0.11
7.00 0.15
8.00 0.20
9.00 0.25
10.00 0.31
11.00 0.37
12.00 0.44
13.00 0.52
14.00 0.60
15.00 0.69
16.00 0.79
17.00 0.89
18.00 0.99
19.00 1.11
20.00 1.23
21.00 1.35
22.00 1.48
23.00 1.62
24.00 1.76
25.00 1.91
26.00 2.07
27.00 2.23
28.00 2.40
29.00 2.58
30.00 2.76
31.00 2.95
32.00 3.14
33.00 3.35
34.00 3.55
35.00 3.77
36.00 3.99
37.00 4.21
38.00 4.44
39.00 4.68
40.00 4.93
41.00 5.18
42.00 5.43
43.00 5.69
44.00 5.96
45.00 6.23
46.00 6.51
47.00 6.80
48.00 7.09
49.00 7.38
50.00 7.68
51.00 7.99
52.00 8.29
53.00 8.61
54.00 8.93
55.00 9.25
56.00 9.57
57.00 9.90
58.00 10.24
59.00 10.57
60.00 10.91
61.00 11.25
62.00 11.59
63.00 11.93
64.00 12.27
65.00 12.62
66.00 12.96
67.00 13.31
68.00 13.66
69.00 14.00
70.00 14.34
71.00 14.69
72.00 15.03
73.00 15.37
74.00 15.71
75.00 16.05
76.00 16.38
77.00 16.72
78.00 17.05
79.00 17.38
80.00 17.71
81.00 18.03
82.00 18.35
83.00 18.67
84.00 18.99
85.00 19.31
86.00 19.62
87.00 19.93
88.00 20.24
89.00 20.54
90.00 20.84
91.00 21.14
92.00 21.44
93.00 21.73
94.00 22.02
95.00 22.30
96.00 22.58
97.00 22.85
98.00 23.12
99.00 23.38
100.00 23.63
101.00 23.88
102.00 24.12
103.00 24.35
104.00 24.58
105.00 24.80
106.00 25.02
107.00 25.23
108.00 25.43
109.00 25.62
110.00 25.82
111.00 26.00
112.00 26.19
113.00 26.37
114.00 26.54
115.00 26.71
116.00 26.89
117.00 27.06
118.00 27.23
119.00 27.40
120.00 27.57
121.00 27.75
122.00 27.92
123.00 28.09
124.00 28.26
125.00 28.43
126.00 28.59
127.00 28.76
128.00 28.92
129.00 29.08
130.00 29.23
131.00 29.38
132.00 29.52
133.00 29.65
134.00 29.76
135.00 29.87
136.00 29.96
137.00 30.04
138.00 30.11
139.00 30.16
140.00 30.20
141.00 30.23
142.00 30.24
143.00 30.24
144.00 30.23
145.00 30.21
146.00 30.19
147.00 30.16
148.00 30.12
149.00 30.08
150.00 30.04
151.00 30.01
152.00 29.97
153.00 29.94
154.00 29.91
155.00 29.89
156.00 29.87
157.00 29.86
158.00 29.85
159.00 29.85
160.00 29.87
161.00 29.89
162.00 29.92
163.00 29.96
164.00 30.01
165.00 30.06
166.00 30.13
167.00 30.21
168.00 30.29
169.00 30.38
170.00 30.48
171.00 30.58
172.00 30.69
173.00 30.81
174.00 30.94
175.00 31.06
176.00 31.20
177.00 31.33
178.00 31.47
179.00 31.60
180.00 31.75
181.00 31.88
182.00 32.02
183.00 32.15
184.00 32.28
185.00 32.41
186.00 32.53
187.00 32.64
188.00 32.75
189.00 32.85
190.00 32.94
191.00 33.03
192.00 33.11
193.00 33.18
194.00 33.25
195.00 33.30
196.00 33.36
197.00 33.40
198.00 33.44
199.00 33.46
200.00 33.49
201.00 33.52
202.00 33.53
203.00 33.54
204.00 33.55
205.00 33.56
206.00 33.56
207.00 33.57
208.00 33.57
209.00 33.57
210.00 33.57
211.00 33.56
212.00 33.57
213.00 33.57
214.00 33.56
215.00 33.56
216.00 33.57
217.00 33.57
218.00 33.57
219.00 33.58
220.00 33.59
221.00 33.60
222.00 33.61
223.00 33.61
224.00 33.62
225.00 33.62
226.00 33.62
227.00 33.61
228.00 33.59
229.00 33.56
230.00 33.51
231.00 33.44
232.00 33.35
233.00 33.23
234.00 33.08
235.00 32.89
236.00 32.67
237.00 32.40
238.00 32.11
239.00 31.77
240.00 31.40
241.00 31.01
242.00 30.58
243.00 30.13
244.00 29.66
245.00 29.18
246.00 28.69
247.00 28.19
248.00 27.69
249.00 27.18
250.00 26.68
251.00 26.18
252.00 25.69
253.00 25.20
254.00 24.72
255.00 24.24
256.00 23.77
257.00 23.32
258.00 22.87
259.00 22.43
260.00 21.99
261.00 21.57
262.00 21.16
263.00 20.75
264.00 20.35
265.00 19.96
266.00 19.58
267.00 19.21
268.00 18.84
269.00 18.48
270.00 18.13
271.00 17.78
272.00 17.44
273.00 17.10
274.00 16.77
275.00 16.45
276.00 16.13
277.00 15.81
278.00 15.50
279.00 15.19
280.00 14.89
281.00 14.59
282.00 14.29
283.00 13.99
284.00 13.70
285.00 13.41
286.00 13.12
287.00 12.83
288.00 12.55
289.00 12.26
290.00 11.98
291.00 11.70
292.00 11.42
293.00 11.14
294.00 10.86
295.00 10.59
296.00 10.31
297.00 10.04
298.00 9.77
299.00 9.50
300.00 9.23
301.00 8.96
302.00 8.69
303.00 8.43
304.00 8.17
305.00 7.91
306.00 7.65
307.00 7.39
308.00 7.14
309.00 6.89
310.00 6.65
311.00 6.40
312.00 6.16
313.00 5.92
314.00 5.69
315.00 5.46
316.00 5.23
317.00 5.01
318.00 4.79
319.00 4.57
320.00 4.36
321.00 4.15
322.00 3.95
323.00 3.75
324.00 3.55
325.00 3.36
326.00 3.18
327.00 3.00
328.00 2.82
329.00 2.65
330.00 2.49
331.00 2.32
332.00 2.17
333.00 2.02
334.00 1.87
335.00 1.73
336.00 1.60
337.00 1.47
338.00 1.34
339.00 1.22
340.00 1.11
341.00 1.00
342.00 0.90
343.00 0.80
344.00 0.71
345.00 0.62
346.00 0.54
347.00 0.46
348.00 0.39
349.00 0.33
350.00 0.27
351.00 0.22
352.00 0.17
353.00 0.13
354.00 0.09
355.00 0.06
356.00 0.04
357.00 0.02
358.00 0.01
359.00 0.00
VERTICAL 360
0.00 17.29
1.00 12.07
2.00 8.49
3.00 5.85
4.00 3.85
5.00 2.34
6.00 1.24
7.00 0.51
8.00 0.10
9.00 0.00
10.00 0.20
11.00 0.72
12.00 1.57
13.00 2.78
14.00 4.40
15.00 6.54
16.00 9.36
17.00 13.21
18.00 19.04
19.00 31.65
20.00 27.58
21.00 21.66
22.00 19.83
23.00 19.78
24.00 21.05
25.00 23.67
26.00 27.63
27.00 29.23
28.00 25.71
29.00 22.70
30.00 20.93
31.00 20.09
32.00 20.00
33.00 20.59
34.00 21.88
35.00 23.93
36.00 26.85
37.00 30.07
38.00 30.62
39.00 28.41
40.00 26.49
41.00 25.50
42.00 25.36
43.00 25.98
44.00 27.16
45.00 28.50
46.00 29.04
47.00 28.20
48.00 26.72
49.00 25.34
50.00 24.33
51.00 23.72
52.00 23.48
53.00 23.59
54.00 24.05
55.00 24.86
56.00 26.03
57.00 27.59
58.00 29.57
59.00 31.99
60.00 34.58
61.00 36.06
62.00 35.12
63.00 33.10
64.00 31.26
65.00 29.87
66.00 28.91
67.00 28.34
68.00 28.09
69.00 28.12
70.00 28.39
71.00 28.85
72.00 29.43
73.00 30.11
74.00 30.87
75.00 31.72
76.00 32.76
77.00 34.17
78.00 36.24
79.00 39.61
80.00 45.20
81.00 43.79
82.00 37.37
83.00 33.24
84.00 30.48
85.00 28.59
86.00 27.30
87.00 26.50
88.00 26.05
89.00 25.84
90.00 25.77
91.00 25.79
92.00 25.87
93.00 26.06
94.00 26.38
95.00 26.87
96.00 27.52
97.00 28.34
98.00 29.36
99.00 30.67
100.00 32.36
101.00 34.52
102.00 37.04
103.00 39.45
104.00 41.11
105.00 41.89
106.00 41.89
107.00 40.69
108.00 38.62
109.00 36.61
110.00 35.13
111.00 34.22
112.00 33.82
113.00 33.83
114.00 34.17
115.00 34.75
116.00 35.46
117.00 36.13
118.00 36.58
119.00 36.75
120.00 36.83
121.00 37.11
122.00 37.85
123.00 39.24
124.00 41.47
125.00 44.81
126.00 49.89
127.00 59.61
128.00 62.55
129.00 52.39
130.00 47.31
131.00 43.62
132.00 40.83
133.00 38.82
134.00 37.54
135.00 36.97
136.00 37.15
137.00 38.20
138.00 40.45
139.00 44.88
140.00 55.36
141.00 47.27
142.00 40.66
143.00 36.99
144.00 34.58
145.00 32.87
146.00 31.67
147.00 30.87
148.00 30.46
149.00 30.47
150.00 30.94
151.00 31.99
152.00 33.78
153.00 36.58
154.00 40.74
155.00 43.86
156.00 40.78
157.00 37.48
158.00 35.46
159.00 34.32
160.00 33.70
161.00 33.37
162.00 33.09
163.00 32.73
164.00 32.21
165.00 31.64
166.00 31.11
167.00 30.73
168.00 30.57
169.00 30.67
170.00 31.07
171.00 31.75
172.00 32.46
173.00 33.27
174.00 33.96
175.00 34.24
176.00 34.09
177.00 33.69
178.00 33.30
179.00 33.12
180.00 33.24
181.00 33.72
182.00 34.61
183.00 35.96
184.00 37.88
185.00 40.52
186.00 44.27
187.00 49.29
188.00 49.02
189.00 43.72
190.00 39.63
191.00 36.56
192.00 34.14
193.00 32.20
194.00 30.69
195.00 29.57
196.00 28.82
197.00 28.46
198.00 28.48
199.00 28.91
200.00 29.76
201.00 31.04
202.00 32.71
203.00 34.58
204.00 36.17
205.00 36.88
206.00 36.76
207.00 36.38
208.00 36.22
209.00 36.41
210.00 36.94
211.00 37.64
212.00 38.11
213.00 37.88
214.00 36.93
215.00 35.72
216.00 34.64
217.00 33.87
218.00 33.43
219.00 33.31
220.00 33.45
221.00 33.74
222.00 34.04
223.00 34.18
224.00 34.14
225.00 34.05
226.00 34.11
227.00 34.49
228.00 35.31
229.00 36.69
230.00 38.70
231.00 41.41
232.00 44.46
233.00 45.80
234.00 44.16
235.00 41.96
236.00 40.19
237.00 38.75
238.00 37.44
239.00 36.18
240.00 35.00
241.00 34.00
242.00 33.23
243.00 32.72
244.00 32.46
245.00 32.48
246.00 32.83
247.00 33.61
248.00 34.92
249.00 36.90
250.00 39.43
251.00 41.45
252.00 41.10
253.00 39.47
254.00 38.19
255.00 37.55
256.00 37.45
257.00 37.71
258.00 38.19
259.00 38.76
260.00 39.38
261.00 40.04
262.00 40.77
263.00 41.60
264.00 42.57
265.00 43.63
266.00 44.60
267.00 45.08
268.00 44.69
269.00 43.42
270.00 41.68
271.00 39.92
272.00 38.44
273.00 37.35
274.00 36.71
275.00 36.48
276.00 36.60
277.00 36.93
278.00 37.28
279.00 37.43
280.00 37.22
281.00 36.61
282.00 35.76
283.00 34.87
284.00 34.11
285.00 33.58
286.00 33.35
287.00 33.40
288.00 33.72
289.00 34.24
290.00 34.86
291.00 35.39
292.00 35.60
293.00 35.38
294.00 34.77
295.00 33.95
296.00 33.08
297.00 32.27
298.00 31.57
299.00 31.00
300.00 30.60
301.00 30.43
302.00 30.56
303.00 31.07
304.00 32.14
305.00 34.05
306.00 37.49
307.00 45.30
308.00 48.73
309.00 37.43
310.00 32.57
311.00 29.52
312.00 27.39
313.00 25.87
314.00 24.79
315.00 24.08
316.00 23.74
317.00 23.76
318.00 24.23
319.00 25.25
320.00 27.07
321.00 30.15
322.00 35.23
323.00 35.78
324.00 29.88
325.00 25.92
326.00 23.40
327.00 21.80
328.00 20.91
329.00 20.63
330.00 20.94
331.00 21.91
332.00 23.67
333.00 26.54
334.00 31.08
335.00 35.70
336.00 32.19
337.00 28.61
338.00 26.90
339.00 26.61
340.00 27.67
341.00 30.38
342.00 34.50
343.00 32.51
344.00 27.52
345.00 24.28
346.00 22.39
347.00 21.55
348.00 21.69
349.00 22.96
350.00 25.92
351.00 32.89
352.00 37.66
353.00 26.95
354.00 22.76
355.00 20.92
356.00 20.83
357.00 22.96
358.00 30.77
359.00 26.93
