NAME ATR4518R7_0947_X_CO_P45_07T
FREQUENCY 0947
GAIN 14.90 dBd
TILT	ELECTRICAL
COMMENT DATE 05.08.2013 +45 degrees polarized system Lever position 07T deg
HORIZONTAL 360
0.00 0.03
1.00 0.01
2.00 0.00
3.00 0.00
4.00 0.00
5.00 0.01
6.00 0.03
7.00 0.05
8.00 0.08
9.00 0.11
10.00 0.16
11.00 0.20
12.00 0.26
13.00 0.32
14.00 0.39
15.00 0.47
16.00 0.55
17.00 0.63
18.00 0.73
19.00 0.83
20.00 0.93
21.00 1.05
22.00 1.17
23.00 1.29
24.00 1.42
25.00 1.56
26.00 1.70
27.00 1.85
28.00 2.01
29.00 2.17
30.00 2.33
31.00 2.51
32.00 2.69
33.00 2.87
34.00 3.06
35.00 3.25
36.00 3.45
37.00 3.66
38.00 3.87
39.00 4.09
40.00 4.31
41.00 4.54
42.00 4.77
43.00 5.01
44.00 5.25
45.00 5.50
46.00 5.75
47.00 6.01
48.00 6.27
49.00 6.54
50.00 6.81
51.00 7.09
52.00 7.37
53.00 7.66
54.00 7.95
55.00 8.25
56.00 8.55
57.00 8.85
58.00 9.16
59.00 9.48
60.00 9.80
61.00 10.13
62.00 10.46
63.00 10.80
64.00 11.15
65.00 11.49
66.00 11.85
67.00 12.21
68.00 12.58
69.00 12.95
70.00 13.33
71.00 13.72
72.00 14.11
73.00 14.51
74.00 14.92
75.00 15.33
76.00 15.76
77.00 16.19
78.00 16.63
79.00 17.07
80.00 17.53
81.00 17.99
82.00 18.46
83.00 18.94
84.00 19.42
85.00 19.92
86.00 20.42
87.00 20.93
88.00 21.44
89.00 21.96
90.00 22.49
91.00 23.03
92.00 23.56
93.00 24.10
94.00 24.65
95.00 25.19
96.00 25.73
97.00 26.27
98.00 26.80
99.00 27.32
100.00 27.84
101.00 28.33
102.00 28.81
103.00 29.26
104.00 29.69
105.00 30.09
106.00 30.46
107.00 30.79
108.00 31.08
109.00 31.34
110.00 31.55
111.00 31.73
112.00 31.87
113.00 31.97
114.00 32.04
115.00 32.08
116.00 32.09
117.00 32.08
118.00 32.06
119.00 32.01
120.00 31.96
121.00 31.89
122.00 31.82
123.00 31.75
124.00 31.67
125.00 31.60
126.00 31.53
127.00 31.46
128.00 31.41
129.00 31.36
130.00 31.32
131.00 31.29
132.00 31.28
133.00 31.28
134.00 31.30
135.00 31.33
136.00 31.38
137.00 31.45
138.00 31.54
139.00 31.65
140.00 31.79
141.00 31.94
142.00 32.13
143.00 32.34
144.00 32.58
145.00 32.86
146.00 33.16
147.00 33.51
148.00 33.89
149.00 34.32
150.00 34.79
151.00 35.32
152.00 35.91
153.00 36.57
154.00 37.31
155.00 38.14
156.00 39.09
157.00 40.16
158.00 41.41
159.00 42.86
160.00 44.59
161.00 46.67
162.00 49.16
163.00 51.79
164.00 53.06
165.00 51.55
166.00 48.98
167.00 46.65
168.00 44.73
169.00 43.15
170.00 41.85
171.00 40.74
172.00 39.80
173.00 38.99
174.00 38.30
175.00 37.70
176.00 37.19
177.00 36.75
178.00 36.38
179.00 36.06
180.00 35.80
181.00 35.60
182.00 35.44
183.00 35.33
184.00 35.26
185.00 35.24
186.00 35.25
187.00 35.31
188.00 35.40
189.00 35.53
190.00 35.69
191.00 35.87
192.00 36.08
193.00 36.32
194.00 36.56
195.00 36.80
196.00 37.03
197.00 37.24
198.00 37.39
199.00 37.50
200.00 37.52
201.00 37.46
202.00 37.32
203.00 37.08
204.00 36.77
205.00 36.40
206.00 35.99
207.00 35.54
208.00 35.09
209.00 34.63
210.00 34.17
211.00 33.73
212.00 33.31
213.00 32.90
214.00 32.53
215.00 32.17
216.00 31.85
217.00 31.55
218.00 31.27
219.00 31.03
220.00 30.80
221.00 30.61
222.00 30.44
223.00 30.29
224.00 30.17
225.00 30.06
226.00 29.98
227.00 29.92
228.00 29.88
229.00 29.87
230.00 29.86
231.00 29.88
232.00 29.91
233.00 29.97
234.00 30.03
235.00 30.11
236.00 30.20
237.00 30.29
238.00 30.40
239.00 30.52
240.00 30.64
241.00 30.77
242.00 30.90
243.00 31.04
244.00 31.17
245.00 31.30
246.00 31.44
247.00 31.57
248.00 31.69
249.00 31.82
250.00 31.94
251.00 32.06
252.00 32.17
253.00 32.27
254.00 32.36
255.00 32.45
256.00 32.53
257.00 32.60
258.00 32.65
259.00 32.68
260.00 32.67
261.00 32.63
262.00 32.56
263.00 32.42
264.00 32.23
265.00 31.98
266.00 31.67
267.00 31.29
268.00 30.85
269.00 30.35
270.00 29.81
271.00 29.23
272.00 28.62
273.00 27.98
274.00 27.34
275.00 26.68
276.00 26.03
277.00 25.37
278.00 24.72
279.00 24.08
280.00 23.45
281.00 22.83
282.00 22.22
283.00 21.62
284.00 21.04
285.00 20.46
286.00 19.90
287.00 19.35
288.00 18.81
289.00 18.29
290.00 17.77
291.00 17.27
292.00 16.77
293.00 16.29
294.00 15.81
295.00 15.35
296.00 14.89
297.00 14.44
298.00 14.00
299.00 13.57
300.00 13.15
301.00 12.73
302.00 12.32
303.00 11.92
304.00 11.53
305.00 11.14
306.00 10.76
307.00 10.39
308.00 10.02
309.00 9.66
310.00 9.31
311.00 8.96
312.00 8.63
313.00 8.29
314.00 7.97
315.00 7.64
316.00 7.33
317.00 7.02
318.00 6.72
319.00 6.43
320.00 6.14
321.00 5.86
322.00 5.58
323.00 5.31
324.00 5.05
325.00 4.80
326.00 4.55
327.00 4.31
328.00 4.07
329.00 3.84
330.00 3.62
331.00 3.40
332.00 3.19
333.00 2.99
334.00 2.79
335.00 2.60
336.00 2.42
337.00 2.24
338.00 2.07
339.00 1.91
340.00 1.75
341.00 1.60
342.00 1.46
343.00 1.32
344.00 1.19
345.00 1.07
346.00 0.96
347.00 0.84
348.00 0.74
349.00 0.65
350.00 0.56
351.00 0.47
352.00 0.40
353.00 0.33
354.00 0.26
355.00 0.21
356.00 0.16
357.00 0.11
358.00 0.08
359.00 0.05
VERTICAL 360
0.00 11.13
1.00 7.86
2.00 5.31
3.00 3.36
4.00 1.89
5.00 0.86
6.00 0.24
7.00 0.00
8.00 0.14
9.00 0.69
10.00 1.65
11.00 3.08
12.00 5.02
13.00 7.57
14.00 10.89
15.00 15.24
16.00 20.27
17.00 21.89
18.00 20.30
19.00 19.74
20.00 20.78
21.00 23.68
22.00 29.77
23.00 39.36
24.00 28.70
25.00 24.53
26.00 22.91
27.00 22.85
28.00 24.09
29.00 26.65
30.00 30.74
31.00 36.13
32.00 35.49
33.00 31.52
34.00 29.50
35.00 29.09
36.00 29.37
37.00 28.52
38.00 26.11
39.00 23.76
40.00 22.15
41.00 21.22
42.00 20.78
43.00 20.65
44.00 20.73
45.00 21.03
46.00 21.63
47.00 22.70
48.00 24.44
49.00 27.01
50.00 30.14
51.00 32.30
52.00 32.40
53.00 32.12
54.00 31.91
55.00 30.80
56.00 29.27
57.00 28.50
58.00 28.96
59.00 30.87
60.00 34.44
61.00 36.40
62.00 33.51
63.00 31.77
64.00 32.20
65.00 34.47
66.00 36.12
67.00 33.83
68.00 31.83
69.00 31.91
70.00 34.71
71.00 43.42
72.00 38.19
73.00 31.67
74.00 29.46
75.00 29.91
76.00 32.83
77.00 36.39
78.00 33.78
79.00 31.13
80.00 30.71
81.00 32.01
82.00 32.40
83.00 29.49
84.00 26.60
85.00 25.49
86.00 26.62
87.00 30.08
88.00 32.41
89.00 29.66
90.00 26.81
91.00 25.29
92.00 25.80
93.00 28.51
94.00 33.53
95.00 37.06
96.00 29.01
97.00 25.85
98.00 25.56
99.00 28.10
100.00 34.73
101.00 43.33
102.00 36.07
103.00 33.55
104.00 33.78
105.00 36.08
106.00 34.95
107.00 32.53
108.00 33.32
109.00 38.88
110.00 53.82
111.00 36.76
112.00 32.34
113.00 31.11
114.00 32.50
115.00 36.16
116.00 36.68
117.00 33.51
118.00 31.98
119.00 32.51
120.00 35.28
121.00 38.45
122.00 36.15
123.00 33.88
124.00 33.99
125.00 36.93
126.00 43.49
127.00 41.14
128.00 37.23
129.00 36.61
130.00 38.62
131.00 44.12
132.00 41.85
133.00 36.51
134.00 34.88
135.00 35.69
136.00 38.06
137.00 39.90
138.00 38.37
139.00 36.07
140.00 34.95
141.00 35.00
142.00 36.08
143.00 38.33
144.00 41.38
145.00 43.48
146.00 44.21
147.00 44.35
148.00 45.78
149.00 52.63
150.00 46.21
151.00 39.47
152.00 36.11
153.00 34.15
154.00 33.09
155.00 32.68
156.00 32.54
157.00 32.40
158.00 32.18
159.00 31.95
160.00 32.19
161.00 33.45
162.00 35.97
163.00 39.74
164.00 45.60
165.00 60.12
166.00 45.57
167.00 39.35
168.00 35.94
169.00 34.28
170.00 33.86
171.00 34.11
172.00 34.56
173.00 35.33
174.00 36.10
175.00 37.25
176.00 37.49
177.00 36.12
178.00 34.89
179.00 34.94
180.00 36.37
181.00 38.38
182.00 39.52
183.00 39.63
184.00 39.26
185.00 37.59
186.00 35.79
187.00 35.00
188.00 35.39
189.00 36.42
190.00 36.87
191.00 36.08
192.00 34.64
193.00 33.20
194.00 32.27
195.00 32.23
196.00 33.32
197.00 35.19
198.00 36.22
199.00 35.63
200.00 35.16
201.00 35.59
202.00 36.76
203.00 38.51
204.00 40.58
205.00 39.71
206.00 35.64
207.00 32.42
208.00 30.49
209.00 29.43
210.00 28.80
211.00 28.39
212.00 28.32
213.00 28.85
214.00 30.12
215.00 31.82
216.00 33.37
217.00 34.37
218.00 34.90
219.00 35.31
220.00 36.08
221.00 37.50
222.00 39.66
223.00 42.45
224.00 43.36
225.00 40.98
226.00 38.83
227.00 37.44
228.00 36.48
229.00 36.05
230.00 36.17
231.00 36.24
232.00 35.52
233.00 34.14
234.00 32.84
235.00 32.25
236.00 32.75
237.00 34.35
238.00 36.80
239.00 39.76
240.00 42.04
241.00 41.47
242.00 40.13
243.00 39.46
244.00 38.71
245.00 36.53
246.00 33.73
247.00 31.91
248.00 31.36
249.00 31.55
250.00 31.64
251.00 31.20
252.00 30.80
253.00 31.27
254.00 33.02
255.00 35.56
256.00 37.08
257.00 36.26
258.00 34.77
259.00 34.91
260.00 37.91
261.00 44.61
262.00 52.55
263.00 50.93
264.00 45.15
265.00 43.16
266.00 37.49
267.00 32.63
268.00 31.04
269.00 32.33
270.00 36.09
271.00 41.31
272.00 37.33
273.00 31.36
274.00 28.87
275.00 29.20
276.00 31.93
277.00 36.33
278.00 35.52
279.00 30.80
280.00 28.49
281.00 28.71
282.00 31.20
283.00 35.64
284.00 38.69
285.00 35.20
286.00 33.00
287.00 34.00
288.00 39.21
289.00 64.13
290.00 42.00
291.00 37.81
292.00 38.16
293.00 44.97
294.00 41.52
295.00 35.12
296.00 33.67
297.00 35.11
298.00 38.63
299.00 36.79
300.00 31.82
301.00 29.36
302.00 29.06
303.00 30.56
304.00 33.57
305.00 35.71
306.00 34.54
307.00 34.61
308.00 38.95
309.00 51.26
310.00 36.31
311.00 31.79
312.00 30.48
313.00 31.60
314.00 34.81
315.00 36.97
316.00 36.46
317.00 37.23
318.00 35.66
319.00 30.15
320.00 25.96
321.00 23.59
322.00 22.74
323.00 22.86
324.00 23.00
325.00 22.53
326.00 21.99
327.00 22.28
328.00 23.98
329.00 27.75
330.00 35.09
331.00 46.09
332.00 37.79
333.00 34.06
334.00 31.05
335.00 28.95
336.00 28.45
337.00 29.92
338.00 33.25
339.00 34.42
340.00 31.69
341.00 29.87
342.00 29.12
343.00 28.39
344.00 26.74
345.00 24.41
346.00 22.10
347.00 20.26
348.00 19.11
349.00 18.78
350.00 19.35
351.00 20.89
352.00 23.34
353.00 25.56
354.00 25.02
355.00 23.36
356.00 22.70
357.00 22.52
358.00 19.88
359.00 15.27
