NAME ATR4518R7_0880_X_CO_P45_00T
FREQUENCY 0880
GAIN 14.59 dBd
TILT	ELECTRICAL
COMMENT DATE 05.08.2013 +45 degrees polarized system Lever position 00T deg
HORIZONTAL 360
0.00 0.01
1.00 0.00
2.00 0.00
3.00 0.01
4.00 0.02
5.00 0.04
6.00 0.07
7.00 0.10
8.00 0.14
9.00 0.18
10.00 0.23
11.00 0.29
12.00 0.35
13.00 0.42
14.00 0.50
15.00 0.58
16.00 0.67
17.00 0.76
18.00 0.86
19.00 0.97
20.00 1.09
21.00 1.21
22.00 1.34
23.00 1.47
24.00 1.61
25.00 1.76
26.00 1.91
27.00 2.07
28.00 2.24
29.00 2.41
30.00 2.59
31.00 2.77
32.00 2.96
33.00 3.16
34.00 3.37
35.00 3.57
36.00 3.79
37.00 4.01
38.00 4.24
39.00 4.48
40.00 4.72
41.00 4.96
42.00 5.22
43.00 5.48
44.00 5.74
45.00 6.01
46.00 6.29
47.00 6.57
48.00 6.86
49.00 7.15
50.00 7.45
51.00 7.75
52.00 8.06
53.00 8.38
54.00 8.70
55.00 9.03
56.00 9.36
57.00 9.70
58.00 10.04
59.00 10.39
60.00 10.75
61.00 11.11
62.00 11.47
63.00 11.85
64.00 12.22
65.00 12.61
66.00 13.00
67.00 13.39
68.00 13.79
69.00 14.20
70.00 14.61
71.00 15.03
72.00 15.46
73.00 15.89
74.00 16.33
75.00 16.78
76.00 17.23
77.00 17.68
78.00 18.15
79.00 18.61
80.00 19.09
81.00 19.57
82.00 20.05
83.00 20.53
84.00 21.02
85.00 21.51
86.00 21.99
87.00 22.48
88.00 22.96
89.00 23.43
90.00 23.89
91.00 24.33
92.00 24.76
93.00 25.16
94.00 25.54
95.00 25.89
96.00 26.21
97.00 26.50
98.00 26.75
99.00 26.96
100.00 27.15
101.00 27.30
102.00 27.41
103.00 27.50
104.00 27.57
105.00 27.62
106.00 27.66
107.00 27.68
108.00 27.70
109.00 27.71
110.00 27.72
111.00 27.73
112.00 27.74
113.00 27.76
114.00 27.78
115.00 27.82
116.00 27.86
117.00 27.90
118.00 27.97
119.00 28.04
120.00 28.12
121.00 28.22
122.00 28.33
123.00 28.45
124.00 28.58
125.00 28.73
126.00 28.90
127.00 29.08
128.00 29.27
129.00 29.48
130.00 29.71
131.00 29.96
132.00 30.22
133.00 30.50
134.00 30.80
135.00 31.12
136.00 31.47
137.00 31.83
138.00 32.22
139.00 32.64
140.00 33.08
141.00 33.55
142.00 34.05
143.00 34.58
144.00 35.14
145.00 35.72
146.00 36.34
147.00 36.98
148.00 37.64
149.00 38.31
150.00 38.96
151.00 39.58
152.00 40.12
153.00 40.55
154.00 40.83
155.00 40.92
156.00 40.82
157.00 40.55
158.00 40.15
159.00 39.65
160.00 39.11
161.00 38.53
162.00 37.97
163.00 37.42
164.00 36.89
165.00 36.39
166.00 35.92
167.00 35.48
168.00 35.08
169.00 34.70
170.00 34.36
171.00 34.05
172.00 33.76
173.00 33.50
174.00 33.26
175.00 33.05
176.00 32.86
177.00 32.70
178.00 32.56
179.00 32.44
180.00 32.35
181.00 32.27
182.00 32.20
183.00 32.17
184.00 32.14
185.00 32.14
186.00 32.15
187.00 32.18
188.00 32.23
189.00 32.29
190.00 32.36
191.00 32.46
192.00 32.56
193.00 32.68
194.00 32.82
195.00 32.96
196.00 33.12
197.00 33.28
198.00 33.46
199.00 33.65
200.00 33.84
201.00 34.03
202.00 34.23
203.00 34.44
204.00 34.64
205.00 34.84
206.00 35.04
207.00 35.24
208.00 35.42
209.00 35.59
210.00 35.75
211.00 35.90
212.00 36.03
213.00 36.13
214.00 36.22
215.00 36.28
216.00 36.32
217.00 36.34
218.00 36.33
219.00 36.30
220.00 36.24
221.00 36.17
222.00 36.07
223.00 35.95
224.00 35.80
225.00 35.64
226.00 35.47
227.00 35.27
228.00 35.06
229.00 34.84
230.00 34.61
231.00 34.37
232.00 34.12
233.00 33.86
234.00 33.59
235.00 33.33
236.00 33.06
237.00 32.78
238.00 32.51
239.00 32.23
240.00 31.95
241.00 31.67
242.00 31.39
243.00 31.11
244.00 30.83
245.00 30.54
246.00 30.26
247.00 29.97
248.00 29.69
249.00 29.40
250.00 29.10
251.00 28.80
252.00 28.50
253.00 28.19
254.00 27.87
255.00 27.54
256.00 27.21
257.00 26.87
258.00 26.52
259.00 26.16
260.00 25.79
261.00 25.42
262.00 25.03
263.00 24.64
264.00 24.24
265.00 23.84
266.00 23.43
267.00 23.02
268.00 22.60
269.00 22.18
270.00 21.76
271.00 21.34
272.00 20.92
273.00 20.50
274.00 20.08
275.00 19.66
276.00 19.25
277.00 18.84
278.00 18.43
279.00 18.02
280.00 17.62
281.00 17.23
282.00 16.83
283.00 16.45
284.00 16.06
285.00 15.69
286.00 15.31
287.00 14.94
288.00 14.58
289.00 14.22
290.00 13.86
291.00 13.51
292.00 13.17
293.00 12.83
294.00 12.49
295.00 12.16
296.00 11.83
297.00 11.50
298.00 11.18
299.00 10.87
300.00 10.55
301.00 10.24
302.00 9.94
303.00 9.64
304.00 9.34
305.00 9.04
306.00 8.75
307.00 8.47
308.00 8.19
309.00 7.91
310.00 7.63
311.00 7.36
312.00 7.09
313.00 6.83
314.00 6.57
315.00 6.32
316.00 6.06
317.00 5.82
318.00 5.57
319.00 5.34
320.00 5.10
321.00 4.87
322.00 4.64
323.00 4.42
324.00 4.21
325.00 4.00
326.00 3.79
327.00 3.59
328.00 3.39
329.00 3.20
330.00 3.01
331.00 2.83
332.00 2.65
333.00 2.48
334.00 2.31
335.00 2.15
336.00 2.00
337.00 1.85
338.00 1.70
339.00 1.56
340.00 1.43
341.00 1.30
342.00 1.18
343.00 1.07
344.00 0.96
345.00 0.85
346.00 0.75
347.00 0.66
348.00 0.57
349.00 0.49
350.00 0.42
351.00 0.35
352.00 0.29
353.00 0.23
354.00 0.18
355.00 0.14
356.00 0.10
357.00 0.07
358.00 0.04
359.00 0.02
VERTICAL 360
0.00 0.00
1.00 0.17
2.00 0.71
3.00 1.67
4.00 3.09
5.00 5.06
6.00 7.71
7.00 11.32
8.00 16.62
9.00 26.13
10.00 28.66
11.00 22.35
12.00 21.00
13.00 22.35
14.00 26.95
15.00 37.52
16.00 26.93
17.00 21.87
18.00 19.58
19.00 18.72
20.00 18.91
21.00 20.10
22.00 22.60
23.00 27.55
24.00 39.21
25.00 30.09
26.00 25.01
27.00 23.31
28.00 23.74
29.00 26.45
30.00 33.72
31.00 33.84
32.00 24.86
33.00 20.20
34.00 17.08
35.00 14.78
36.00 13.09
37.00 11.93
38.00 11.27
39.00 11.04
40.00 11.20
41.00 11.67
42.00 12.44
43.00 13.50
44.00 14.91
45.00 16.75
46.00 19.13
47.00 22.11
48.00 25.71
49.00 29.76
50.00 33.78
51.00 36.40
52.00 36.13
53.00 34.94
54.00 34.41
55.00 34.52
56.00 34.67
57.00 34.18
58.00 32.97
59.00 31.90
60.00 31.76
61.00 32.99
62.00 35.74
63.00 40.15
64.00 45.21
65.00 41.11
66.00 35.51
67.00 32.38
68.00 31.26
69.00 31.85
70.00 34.07
71.00 37.84
72.00 42.40
73.00 43.41
74.00 40.24
75.00 37.49
76.00 35.87
77.00 34.96
78.00 34.01
79.00 32.63
80.00 31.26
81.00 30.50
82.00 30.56
83.00 31.34
84.00 32.22
85.00 32.26
86.00 31.28
87.00 29.99
88.00 29.04
89.00 28.72
90.00 29.08
91.00 29.96
92.00 30.89
93.00 31.35
94.00 31.29
95.00 31.16
96.00 31.37
97.00 32.03
98.00 33.03
99.00 34.24
100.00 35.69
101.00 37.06
102.00 37.24
103.00 36.37
104.00 35.85
105.00 36.16
106.00 37.01
107.00 37.65
108.00 37.33
109.00 36.26
110.00 35.28
111.00 34.98
112.00 35.54
113.00 36.61
114.00 36.97
115.00 35.79
116.00 34.20
117.00 33.16
118.00 32.85
119.00 33.14
120.00 33.87
121.00 34.68
122.00 34.98
123.00 34.72
124.00 34.66
125.00 35.40
126.00 36.77
127.00 37.91
128.00 38.44
129.00 39.22
130.00 40.75
131.00 42.50
132.00 43.20
133.00 42.49
134.00 41.58
135.00 41.70
136.00 42.76
137.00 41.62
138.00 37.92
139.00 34.78
140.00 32.60
141.00 31.16
142.00 30.33
143.00 30.07
144.00 30.31
145.00 30.93
146.00 31.76
147.00 32.71
148.00 33.86
149.00 35.37
150.00 37.41
151.00 39.62
152.00 40.52
153.00 39.27
154.00 37.23
155.00 35.46
156.00 34.41
157.00 34.25
158.00 34.94
159.00 36.19
160.00 37.34
161.00 37.68
162.00 37.26
163.00 36.79
164.00 36.77
165.00 37.34
166.00 38.45
167.00 40.30
168.00 43.74
169.00 51.63
170.00 52.55
171.00 44.30
172.00 40.83
173.00 38.97
174.00 37.62
175.00 36.31
176.00 35.03
177.00 33.93
178.00 33.10
179.00 32.54
180.00 32.23
181.00 32.25
182.00 32.64
183.00 33.38
184.00 34.44
185.00 35.67
186.00 36.79
187.00 37.76
188.00 39.18
189.00 41.49
190.00 42.16
191.00 38.84
192.00 35.59
193.00 33.36
194.00 31.87
195.00 30.86
196.00 30.22
197.00 29.91
198.00 30.02
199.00 30.66
200.00 31.90
201.00 33.77
202.00 36.41
203.00 40.57
204.00 49.49
205.00 48.03
206.00 40.81
207.00 38.17
208.00 37.69
209.00 38.83
210.00 41.56
211.00 45.91
212.00 48.37
213.00 45.73
214.00 43.97
215.00 44.01
216.00 45.31
217.00 46.76
218.00 47.40
219.00 48.76
220.00 54.70
221.00 57.17
222.00 45.23
223.00 39.99
224.00 36.70
225.00 34.40
226.00 32.78
227.00 31.75
228.00 31.17
229.00 30.74
230.00 30.12
231.00 29.31
232.00 28.65
233.00 28.43
234.00 28.75
235.00 29.58
236.00 30.91
237.00 32.56
238.00 33.46
239.00 32.67
240.00 31.54
241.00 31.33
242.00 32.38
243.00 34.72
244.00 38.29
245.00 43.28
246.00 52.19
247.00 52.96
248.00 43.30
249.00 38.93
250.00 36.69
251.00 35.90
252.00 36.18
253.00 36.94
254.00 37.41
255.00 37.15
256.00 36.17
257.00 35.06
258.00 34.60
259.00 35.21
260.00 36.73
261.00 38.54
262.00 40.54
263.00 42.65
264.00 40.91
265.00 37.53
266.00 35.75
267.00 35.13
268.00 34.54
269.00 33.84
270.00 33.92
271.00 35.39
272.00 38.12
273.00 39.84
274.00 38.21
275.00 35.67
276.00 33.75
277.00 32.97
278.00 33.56
279.00 35.63
280.00 39.03
281.00 41.73
282.00 40.10
283.00 37.28
284.00 35.68
285.00 35.62
286.00 36.89
287.00 38.15
288.00 37.47
289.00 36.08
290.00 35.36
291.00 35.37
292.00 35.68
293.00 35.26
294.00 33.60
295.00 31.78
296.00 30.65
297.00 30.40
298.00 30.95
299.00 32.23
300.00 34.27
301.00 37.37
302.00 40.93
303.00 36.96
304.00 31.05
305.00 26.88
306.00 23.96
307.00 21.88
308.00 20.35
309.00 19.19
310.00 18.25
311.00 17.39
312.00 16.54
313.00 15.73
314.00 15.04
315.00 14.59
316.00 14.43
317.00 14.63
318.00 15.18
319.00 16.04
320.00 17.12
321.00 18.27
322.00 19.41
323.00 20.63
324.00 22.13
325.00 24.12
326.00 26.82
327.00 30.29
328.00 33.87
329.00 35.83
330.00 36.32
331.00 36.57
332.00 36.09
333.00 33.78
334.00 30.43
335.00 27.33
336.00 24.95
337.00 23.33
338.00 22.44
339.00 22.28
340.00 22.92
341.00 24.61
342.00 28.02
343.00 36.03
344.00 36.74
345.00 27.65
346.00 23.82
347.00 22.20
348.00 22.37
349.00 24.69
350.00 26.89
351.00 20.22
352.00 14.28
353.00 10.10
354.00 7.02
355.00 4.69
356.00 2.93
357.00 1.64
358.00 0.73
359.00 0.19
