NAME ATR4518R7_0947_X_CO_P45_02T
FREQUENCY 0947
GAIN 14.82 dBd
TILT	ELECTRICAL
COMMENT DATE 05.08.2013 +45 degrees polarized system Lever position 02T deg
HORIZONTAL 360
0.00 0.02
1.00 0.01
2.00 0.00
3.00 0.00
4.00 0.00
5.00 0.02
6.00 0.03
7.00 0.06
8.00 0.09
9.00 0.13
10.00 0.18
11.00 0.23
12.00 0.29
13.00 0.35
14.00 0.43
15.00 0.51
16.00 0.59
17.00 0.68
18.00 0.78
19.00 0.89
20.00 1.00
21.00 1.12
22.00 1.24
23.00 1.38
24.00 1.51
25.00 1.66
26.00 1.81
27.00 1.97
28.00 2.13
29.00 2.30
30.00 2.48
31.00 2.66
32.00 2.85
33.00 3.04
34.00 3.25
35.00 3.45
36.00 3.67
37.00 3.89
38.00 4.11
39.00 4.34
40.00 4.58
41.00 4.83
42.00 5.08
43.00 5.33
44.00 5.59
45.00 5.86
46.00 6.13
47.00 6.41
48.00 6.69
49.00 6.98
50.00 7.28
51.00 7.58
52.00 7.89
53.00 8.20
54.00 8.52
55.00 8.84
56.00 9.17
57.00 9.51
58.00 9.85
59.00 10.20
60.00 10.55
61.00 10.91
62.00 11.28
63.00 11.65
64.00 12.02
65.00 12.41
66.00 12.80
67.00 13.20
68.00 13.61
69.00 14.02
70.00 14.43
71.00 14.86
72.00 15.29
73.00 15.73
74.00 16.18
75.00 16.64
76.00 17.11
77.00 17.58
78.00 18.06
79.00 18.55
80.00 19.05
81.00 19.56
82.00 20.08
83.00 20.61
84.00 21.15
85.00 21.70
86.00 22.26
87.00 22.83
88.00 23.41
89.00 24.01
90.00 24.61
91.00 25.23
92.00 25.86
93.00 26.50
94.00 27.16
95.00 27.83
96.00 28.51
97.00 29.20
98.00 29.91
99.00 30.63
100.00 31.35
101.00 32.09
102.00 32.83
103.00 33.56
104.00 34.28
105.00 34.98
106.00 35.64
107.00 36.25
108.00 36.77
109.00 37.20
110.00 37.52
111.00 37.71
112.00 37.77
113.00 37.72
114.00 37.58
115.00 37.35
116.00 37.07
117.00 36.76
118.00 36.43
119.00 36.08
120.00 35.73
121.00 35.40
122.00 35.08
123.00 34.76
124.00 34.47
125.00 34.20
126.00 33.95
127.00 33.71
128.00 33.50
129.00 33.32
130.00 33.15
131.00 32.99
132.00 32.87
133.00 32.76
134.00 32.67
135.00 32.61
136.00 32.57
137.00 32.55
138.00 32.55
139.00 32.57
140.00 32.62
141.00 32.68
142.00 32.78
143.00 32.90
144.00 33.04
145.00 33.22
146.00 33.42
147.00 33.64
148.00 33.90
149.00 34.20
150.00 34.52
151.00 34.88
152.00 35.29
153.00 35.73
154.00 36.22
155.00 36.76
156.00 37.35
157.00 38.00
158.00 38.71
159.00 39.49
160.00 40.33
161.00 41.26
162.00 42.24
163.00 43.29
164.00 44.33
165.00 45.31
166.00 46.09
167.00 46.54
168.00 46.55
169.00 46.16
170.00 45.50
171.00 44.70
172.00 43.89
173.00 43.11
174.00 42.40
175.00 41.76
176.00 41.20
177.00 40.73
178.00 40.33
179.00 40.00
180.00 39.75
181.00 39.56
182.00 39.44
183.00 39.38
184.00 39.39
185.00 39.46
186.00 39.59
187.00 39.80
188.00 40.07
189.00 40.42
190.00 40.84
191.00 41.33
192.00 41.90
193.00 42.54
194.00 43.25
195.00 44.00
196.00 44.71
197.00 45.31
198.00 45.69
199.00 45.71
200.00 45.34
201.00 44.64
202.00 43.74
203.00 42.75
204.00 41.75
205.00 40.80
206.00 39.90
207.00 39.08
208.00 38.33
209.00 37.64
210.00 37.02
211.00 36.47
212.00 35.97
213.00 35.53
214.00 35.14
215.00 34.80
216.00 34.51
217.00 34.26
218.00 34.07
219.00 33.91
220.00 33.80
221.00 33.73
222.00 33.69
223.00 33.71
224.00 33.76
225.00 33.86
226.00 34.00
227.00 34.19
228.00 34.42
229.00 34.70
230.00 35.03
231.00 35.41
232.00 35.84
233.00 36.33
234.00 36.86
235.00 37.45
236.00 38.08
237.00 38.73
238.00 39.37
239.00 39.98
240.00 40.47
241.00 40.76
242.00 40.81
243.00 40.59
244.00 40.12
245.00 39.48
246.00 38.74
247.00 37.93
248.00 37.14
249.00 36.35
250.00 35.61
251.00 34.89
252.00 34.22
253.00 33.59
254.00 33.00
255.00 32.43
256.00 31.90
257.00 31.39
258.00 30.90
259.00 30.43
260.00 29.97
261.00 29.52
262.00 29.08
263.00 28.64
264.00 28.20
265.00 27.76
266.00 27.31
267.00 26.87
268.00 26.41
269.00 25.95
270.00 25.49
271.00 25.02
272.00 24.54
273.00 24.06
274.00 23.58
275.00 23.09
276.00 22.60
277.00 22.12
278.00 21.63
279.00 21.15
280.00 20.66
281.00 20.19
282.00 19.71
283.00 19.24
284.00 18.78
285.00 18.32
286.00 17.87
287.00 17.42
288.00 16.98
289.00 16.55
290.00 16.12
291.00 15.70
292.00 15.28
293.00 14.88
294.00 14.47
295.00 14.07
296.00 13.68
297.00 13.30
298.00 12.92
299.00 12.55
300.00 12.18
301.00 11.82
302.00 11.46
303.00 11.11
304.00 10.76
305.00 10.42
306.00 10.08
307.00 9.75
308.00 9.42
309.00 9.10
310.00 8.78
311.00 8.47
312.00 8.16
313.00 7.85
314.00 7.56
315.00 7.26
316.00 6.98
317.00 6.69
318.00 6.42
319.00 6.14
320.00 5.87
321.00 5.61
322.00 5.36
323.00 5.10
324.00 4.86
325.00 4.62
326.00 4.38
327.00 4.15
328.00 3.93
329.00 3.71
330.00 3.50
331.00 3.29
332.00 3.09
333.00 2.89
334.00 2.70
335.00 2.52
336.00 2.34
337.00 2.18
338.00 2.01
339.00 1.85
340.00 1.70
341.00 1.56
342.00 1.42
343.00 1.28
344.00 1.16
345.00 1.04
346.00 0.92
347.00 0.82
348.00 0.72
349.00 0.62
350.00 0.53
351.00 0.45
352.00 0.38
353.00 0.31
354.00 0.25
355.00 0.19
356.00 0.15
357.00 0.11
358.00 0.07
359.00 0.04
VERTICAL 360
0.00 0.71
1.00 0.15
2.00 0.00
3.00 0.23
4.00 0.85
5.00 1.91
6.00 3.46
7.00 5.62
8.00 8.50
9.00 12.34
10.00 17.47
11.00 23.58
12.00 25.15
13.00 23.81
14.00 24.51
15.00 28.58
16.00 44.54
17.00 28.82
18.00 23.17
19.00 20.73
20.00 19.92
21.00 20.29
22.00 21.86
23.00 25.24
24.00 33.11
25.00 34.48
26.00 26.08
27.00 23.04
28.00 22.34
29.00 23.28
30.00 25.31
31.00 26.52
32.00 24.52
33.00 21.32
34.00 18.46
35.00 16.22
36.00 14.63
37.00 13.67
38.00 13.27
39.00 13.31
40.00 13.70
41.00 14.36
42.00 15.27
43.00 16.48
44.00 18.06
45.00 20.08
46.00 22.69
47.00 26.15
48.00 31.02
49.00 38.32
50.00 43.63
51.00 41.18
52.00 40.37
53.00 38.58
54.00 35.65
55.00 33.74
56.00 33.42
57.00 34.57
58.00 36.39
59.00 37.30
60.00 36.52
61.00 35.75
62.00 36.61
63.00 39.65
64.00 43.34
65.00 42.15
66.00 37.07
67.00 33.77
68.00 33.31
69.00 35.34
70.00 36.81
71.00 35.86
72.00 36.16
73.00 38.07
74.00 42.56
75.00 55.73
76.00 38.01
77.00 33.26
78.00 31.09
79.00 29.96
80.00 30.23
81.00 31.91
82.00 31.21
83.00 28.30
84.00 26.41
85.00 25.93
86.00 26.98
87.00 29.91
88.00 33.30
89.00 31.16
90.00 28.43
91.00 27.12
92.00 26.95
93.00 28.39
94.00 32.35
95.00 40.77
96.00 48.41
97.00 40.99
98.00 39.25
99.00 40.70
100.00 39.19
101.00 34.87
102.00 33.10
103.00 33.24
104.00 34.53
105.00 36.90
106.00 37.20
107.00 34.25
108.00 32.94
109.00 33.68
110.00 35.72
111.00 37.73
112.00 36.63
113.00 34.40
114.00 34.15
115.00 36.31
116.00 41.08
117.00 49.86
118.00 43.23
119.00 39.05
120.00 40.15
121.00 48.57
122.00 42.17
123.00 36.58
124.00 34.41
125.00 33.65
126.00 33.84
127.00 34.33
128.00 34.07
129.00 33.61
130.00 34.10
131.00 36.18
132.00 41.13
133.00 60.40
134.00 43.99
135.00 38.90
136.00 36.46
137.00 34.36
138.00 32.39
139.00 31.03
140.00 30.65
141.00 31.38
142.00 33.04
143.00 35.10
144.00 36.78
145.00 37.93
146.00 39.38
147.00 41.59
148.00 42.70
149.00 41.40
150.00 39.80
151.00 38.80
152.00 38.94
153.00 40.66
154.00 44.03
155.00 46.38
156.00 44.32
157.00 43.43
158.00 45.59
159.00 44.63
160.00 39.35
161.00 36.33
162.00 34.97
163.00 34.31
164.00 33.79
165.00 33.42
166.00 33.53
167.00 34.39
168.00 35.91
169.00 37.73
170.00 39.86
171.00 43.33
172.00 49.39
173.00 45.70
174.00 40.97
175.00 39.75
176.00 38.20
177.00 38.60
178.00 39.38
179.00 37.67
180.00 33.70
181.00 31.75
182.00 31.43
183.00 32.02
184.00 32.81
185.00 33.30
186.00 33.97
187.00 34.51
188.00 36.67
189.00 40.46
190.00 44.02
191.00 43.50
192.00 41.18
193.00 39.41
194.00 37.99
195.00 36.74
196.00 35.93
197.00 35.44
198.00 35.33
199.00 36.42
200.00 39.85
201.00 45.44
202.00 42.43
203.00 38.70
204.00 36.82
205.00 35.42
206.00 34.12
207.00 33.55
208.00 34.46
209.00 37.25
210.00 40.39
211.00 39.01
212.00 36.84
213.00 35.90
214.00 35.30
215.00 34.18
216.00 33.06
217.00 32.68
218.00 33.17
219.00 34.12
220.00 35.06
221.00 35.96
222.00 37.28
223.00 39.31
224.00 41.87
225.00 44.97
226.00 50.91
227.00 57.75
228.00 46.11
229.00 41.95
230.00 40.79
231.00 41.64
232.00 43.23
233.00 42.97
234.00 40.10
235.00 37.04
236.00 35.57
237.00 36.21
238.00 39.10
239.00 43.66
240.00 45.92
241.00 43.12
242.00 40.37
243.00 39.82
244.00 42.03
245.00 48.52
246.00 52.06
247.00 44.96
248.00 43.82
249.00 44.71
250.00 39.15
251.00 34.21
252.00 31.85
253.00 31.54
254.00 32.76
255.00 33.52
256.00 31.62
257.00 29.45
258.00 28.40
259.00 28.51
260.00 29.55
261.00 30.57
262.00 30.07
263.00 28.83
264.00 28.26
265.00 28.70
266.00 29.83
267.00 30.43
268.00 29.60
269.00 28.60
270.00 28.28
271.00 28.53
272.00 28.79
273.00 28.45
274.00 27.75
275.00 27.61
276.00 28.45
277.00 30.11
278.00 31.80
279.00 31.62
280.00 29.74
281.00 28.57
282.00 28.79
283.00 30.15
284.00 32.15
285.00 33.31
286.00 31.97
287.00 30.22
288.00 29.45
289.00 29.59
290.00 30.74
291.00 33.01
292.00 34.36
293.00 32.69
294.00 31.11
295.00 30.88
296.00 32.40
297.00 36.87
298.00 50.45
299.00 43.24
300.00 39.75
301.00 41.44
302.00 43.27
303.00 37.35
304.00 32.73
305.00 30.22
306.00 29.15
307.00 29.04
308.00 29.61
309.00 30.79
310.00 32.27
311.00 32.11
312.00 29.43
313.00 26.78
314.00 24.93
315.00 23.30
316.00 21.45
317.00 19.56
318.00 18.08
319.00 17.25
320.00 17.14
321.00 17.64
322.00 18.39
323.00 18.99
324.00 19.39
325.00 20.00
326.00 21.30
327.00 23.56
328.00 26.67
329.00 29.73
330.00 31.32
331.00 31.79
332.00 32.44
333.00 34.06
334.00 37.18
335.00 39.72
336.00 35.90
337.00 31.54
338.00 27.95
339.00 24.82
340.00 22.38
341.00 20.82
342.00 20.20
343.00 20.50
344.00 21.78
345.00 24.21
346.00 28.26
347.00 31.73
348.00 27.44
349.00 23.64
350.00 21.92
351.00 21.95
352.00 23.06
353.00 21.24
354.00 16.05
355.00 11.46
356.00 7.92
357.00 5.21
358.00 3.17
359.00 1.70
