NAME ATR4518R7_1950_X_CO_M45_08T_yL
FREQUENCY 1950
GAIN 14.79 dBd
TILT	ELECTRICAL
COMMENT DATE 05.08.2013 -45 degrees polarized system Lever position 08T deg
HORIZONTAL 360
0.00 0.00
1.00 0.01
2.00 0.02
3.00 0.03
4.00 0.05
5.00 0.07
6.00 0.10
7.00 0.13
8.00 0.16
9.00 0.20
10.00 0.24
11.00 0.28
12.00 0.33
13.00 0.39
14.00 0.44
15.00 0.51
16.00 0.58
17.00 0.65
18.00 0.74
19.00 0.83
20.00 0.92
21.00 1.03
22.00 1.14
23.00 1.26
24.00 1.39
25.00 1.53
26.00 1.67
27.00 1.83
28.00 1.99
29.00 2.16
30.00 2.34
31.00 2.52
32.00 2.71
33.00 2.91
34.00 3.12
35.00 3.34
36.00 3.56
37.00 3.80
38.00 4.03
39.00 4.28
40.00 4.54
41.00 4.80
42.00 5.07
43.00 5.34
44.00 5.63
45.00 5.92
46.00 6.21
47.00 6.51
48.00 6.82
49.00 7.13
50.00 7.44
51.00 7.76
52.00 8.08
53.00 8.40
54.00 8.72
55.00 9.04
56.00 9.36
57.00 9.69
58.00 10.01
59.00 10.33
60.00 10.65
61.00 10.97
62.00 11.29
63.00 11.60
64.00 11.92
65.00 12.24
66.00 12.55
67.00 12.87
68.00 13.19
69.00 13.51
70.00 13.83
71.00 14.15
72.00 14.47
73.00 14.79
74.00 15.11
75.00 15.43
76.00 15.74
77.00 16.06
78.00 16.37
79.00 16.67
80.00 16.97
81.00 17.27
82.00 17.56
83.00 17.83
84.00 18.11
85.00 18.39
86.00 18.66
87.00 18.94
88.00 19.21
89.00 19.49
90.00 19.78
91.00 20.08
92.00 20.40
93.00 20.73
94.00 21.07
95.00 21.43
96.00 21.82
97.00 22.22
98.00 22.65
99.00 23.09
100.00 23.54
101.00 24.00
102.00 24.46
103.00 24.90
104.00 25.31
105.00 25.67
106.00 25.99
107.00 26.23
108.00 26.40
109.00 26.50
110.00 26.53
111.00 26.51
112.00 26.46
113.00 26.38
114.00 26.30
115.00 26.22
116.00 26.16
117.00 26.12
118.00 26.10
119.00 26.11
120.00 26.15
121.00 26.20
122.00 26.27
123.00 26.36
124.00 26.45
125.00 26.54
126.00 26.62
127.00 26.69
128.00 26.75
129.00 26.80
130.00 26.83
131.00 26.84
132.00 26.85
133.00 26.85
134.00 26.86
135.00 26.86
136.00 26.88
137.00 26.91
138.00 26.95
139.00 27.01
140.00 27.08
141.00 27.16
142.00 27.26
143.00 27.38
144.00 27.52
145.00 27.68
146.00 27.87
147.00 28.08
148.00 28.34
149.00 28.62
150.00 28.95
151.00 29.32
152.00 29.74
153.00 30.19
154.00 30.65
155.00 31.11
156.00 31.50
157.00 31.80
158.00 31.93
159.00 31.86
160.00 31.60
161.00 31.18
162.00 30.67
163.00 30.12
164.00 29.58
165.00 29.09
166.00 28.67
167.00 28.33
168.00 28.10
169.00 27.97
170.00 27.96
171.00 28.06
172.00 28.28
173.00 28.63
174.00 29.12
175.00 29.73
176.00 30.48
177.00 31.33
178.00 32.24
179.00 33.10
180.00 33.74
181.00 33.95
182.00 33.67
183.00 33.02
184.00 32.17
185.00 31.32
186.00 30.54
187.00 29.89
188.00 29.40
189.00 29.06
190.00 28.89
191.00 28.89
192.00 29.07
193.00 29.45
194.00 30.04
195.00 30.89
196.00 32.07
197.00 33.68
198.00 35.94
199.00 39.32
200.00 45.33
201.00 55.21
202.00 43.55
203.00 38.14
204.00 34.86
205.00 32.58
206.00 30.88
207.00 29.58
208.00 28.57
209.00 27.81
210.00 27.25
211.00 26.88
212.00 26.67
213.00 26.61
214.00 26.72
215.00 26.98
216.00 27.41
217.00 28.03
218.00 28.86
219.00 29.95
220.00 31.34
221.00 33.12
222.00 35.42
223.00 38.20
224.00 40.38
225.00 39.39
226.00 36.51
227.00 33.83
228.00 31.68
229.00 29.96
230.00 28.58
231.00 27.46
232.00 26.54
233.00 25.78
234.00 25.17
235.00 24.67
236.00 24.28
237.00 23.97
238.00 23.74
239.00 23.58
240.00 23.48
241.00 23.42
242.00 23.40
243.00 23.40
244.00 23.42
245.00 23.43
246.00 23.42
247.00 23.39
248.00 23.33
249.00 23.22
250.00 23.06
251.00 22.86
252.00 22.63
253.00 22.36
254.00 22.08
255.00 21.79
256.00 21.50
257.00 21.21
258.00 20.93
259.00 20.67
260.00 20.42
261.00 20.19
262.00 19.97
263.00 19.75
264.00 19.55
265.00 19.34
266.00 19.14
267.00 18.92
268.00 18.69
269.00 18.44
270.00 18.18
271.00 17.89
272.00 17.58
273.00 17.26
274.00 16.92
275.00 16.57
276.00 16.21
277.00 15.85
278.00 15.48
279.00 15.12
280.00 14.77
281.00 14.43
282.00 14.09
283.00 13.76
284.00 13.45
285.00 13.15
286.00 12.85
287.00 12.56
288.00 12.28
289.00 12.00
290.00 11.73
291.00 11.46
292.00 11.19
293.00 10.92
294.00 10.64
295.00 10.37
296.00 10.10
297.00 9.82
298.00 9.54
299.00 9.26
300.00 8.99
301.00 8.71
302.00 8.44
303.00 8.17
304.00 7.91
305.00 7.66
306.00 7.41
307.00 7.18
308.00 6.95
309.00 6.73
310.00 6.52
311.00 6.32
312.00 6.13
313.00 5.95
314.00 5.77
315.00 5.60
316.00 5.43
317.00 5.27
318.00 5.11
319.00 4.95
320.00 4.78
321.00 4.62
322.00 4.46
323.00 4.29
324.00 4.13
325.00 3.96
326.00 3.79
327.00 3.61
328.00 3.44
329.00 3.26
330.00 3.09
331.00 2.91
332.00 2.74
333.00 2.57
334.00 2.40
335.00 2.23
336.00 2.07
337.00 1.91
338.00 1.76
339.00 1.61
340.00 1.46
341.00 1.32
342.00 1.19
343.00 1.06
344.00 0.94
345.00 0.82
346.00 0.71
347.00 0.61
348.00 0.51
349.00 0.43
350.00 0.35
351.00 0.28
352.00 0.21
353.00 0.16
354.00 0.11
355.00 0.08
356.00 0.05
357.00 0.03
358.00 0.01
359.00 0.00
VERTICAL 360
0.00 20.59
1.00 18.73
2.00 14.57
3.00 9.84
4.00 6.07
5.00 3.30
6.00 1.43
7.00 0.34
8.00 0.00
9.00 0.39
10.00 1.56
11.00 3.73
12.00 7.39
13.00 14.07
14.00 24.12
15.00 14.81
16.00 11.65
17.00 11.10
18.00 12.11
19.00 14.33
20.00 17.31
21.00 18.59
22.00 16.81
23.00 15.30
24.00 15.34
25.00 17.32
26.00 22.24
27.00 31.41
28.00 23.96
29.00 20.05
30.00 19.09
31.00 19.86
32.00 21.86
33.00 24.62
34.00 26.85
35.00 25.75
36.00 22.69
37.00 20.44
38.00 19.61
39.00 20.32
40.00 22.57
41.00 24.74
42.00 22.70
43.00 19.44
44.00 17.13
45.00 15.63
46.00 14.72
47.00 14.29
48.00 14.32
49.00 14.79
50.00 15.66
51.00 16.96
52.00 18.75
53.00 21.15
54.00 24.16
55.00 27.19
56.00 29.36
57.00 31.73
58.00 37.49
59.00 41.41
60.00 31.97
61.00 28.04
62.00 26.25
63.00 25.48
64.00 25.11
65.00 24.85
66.00 24.75
67.00 25.00
68.00 25.76
69.00 27.00
70.00 28.48
71.00 29.71
72.00 30.32
73.00 30.64
74.00 31.28
75.00 32.57
76.00 34.52
77.00 36.49
78.00 36.73
79.00 35.59
80.00 35.19
81.00 36.25
82.00 38.28
83.00 39.81
84.00 41.11
85.00 44.71
86.00 54.50
87.00 48.67
88.00 43.72
89.00 41.98
90.00 41.05
91.00 39.80
92.00 38.08
93.00 36.38
94.00 35.23
95.00 34.94
96.00 35.57
97.00 36.89
98.00 38.39
99.00 39.67
100.00 40.34
101.00 40.00
102.00 39.56
103.00 40.14
104.00 42.02
105.00 44.66
106.00 47.24
107.00 49.22
108.00 49.09
109.00 48.25
110.00 48.30
111.00 47.48
112.00 45.65
113.00 44.60
114.00 44.36
115.00 44.19
116.00 43.96
117.00 43.97
118.00 44.40
119.00 45.42
120.00 46.75
121.00 46.62
122.00 45.16
123.00 44.99
124.00 48.21
125.00 61.67
126.00 46.28
127.00 40.53
128.00 37.82
129.00 36.30
130.00 35.22
131.00 34.45
132.00 34.15
133.00 34.48
134.00 35.52
135.00 37.29
136.00 39.36
137.00 40.12
138.00 38.53
139.00 36.21
140.00 34.63
141.00 34.48
142.00 36.30
143.00 41.11
144.00 49.04
145.00 43.17
146.00 39.15
147.00 36.43
148.00 34.23
149.00 33.17
150.00 33.65
151.00 35.39
152.00 36.28
153.00 34.97
154.00 33.91
155.00 33.62
156.00 33.12
157.00 32.13
158.00 31.58
159.00 32.03
160.00 33.59
161.00 36.16
162.00 39.64
163.00 44.29
164.00 53.94
165.00 51.15
166.00 41.73
167.00 37.36
168.00 35.01
169.00 33.98
170.00 33.81
171.00 33.87
172.00 33.74
173.00 33.71
174.00 34.28
175.00 35.24
176.00 35.83
177.00 36.33
178.00 38.02
179.00 42.14
180.00 47.39
181.00 44.17
182.00 41.24
183.00 40.03
184.00 39.69
185.00 39.22
186.00 37.23
187.00 34.67
188.00 33.10
189.00 32.97
190.00 34.19
191.00 36.06
192.00 36.80
193.00 36.11
194.00 35.58
195.00 35.95
196.00 37.57
197.00 40.38
198.00 41.94
199.00 41.80
200.00 44.51
201.00 44.28
202.00 37.14
203.00 33.98
204.00 33.95
205.00 36.17
206.00 35.14
207.00 31.05
208.00 28.69
209.00 28.02
210.00 28.57
211.00 29.90
212.00 31.84
213.00 34.73
214.00 40.05
215.00 60.05
216.00 41.36
217.00 35.75
218.00 33.31
219.00 32.53
220.00 33.00
221.00 34.43
222.00 36.13
223.00 37.28
224.00 38.60
225.00 41.76
226.00 47.31
227.00 43.99
228.00 39.53
229.00 37.61
230.00 37.38
231.00 38.42
232.00 40.03
233.00 41.12
234.00 42.07
235.00 44.71
236.00 50.51
237.00 47.02
238.00 41.44
239.00 38.77
240.00 37.95
241.00 38.65
242.00 41.02
243.00 46.16
244.00 56.73
245.00 45.44
246.00 40.23
247.00 37.82
248.00 36.93
249.00 37.05
250.00 37.82
251.00 38.89
252.00 39.75
253.00 39.89
254.00 39.22
255.00 38.16
256.00 37.12
257.00 36.29
258.00 35.68
259.00 35.32
260.00 35.36
261.00 36.06
262.00 37.76
263.00 40.65
264.00 43.64
265.00 42.67
266.00 39.18
267.00 36.04
268.00 33.71
269.00 32.08
270.00 30.95
271.00 30.20
272.00 29.77
273.00 29.46
274.00 28.93
275.00 28.05
276.00 27.08
277.00 26.29
278.00 25.79
279.00 25.54
280.00 25.36
281.00 25.08
282.00 24.62
283.00 24.03
284.00 23.46
285.00 23.03
286.00 22.83
287.00 22.85
288.00 23.03
289.00 23.23
290.00 23.33
291.00 23.34
292.00 23.38
293.00 23.62
294.00 24.24
295.00 25.41
296.00 27.19
297.00 28.79
298.00 27.80
299.00 25.13
300.00 23.02
301.00 21.93
302.00 21.71
303.00 22.08
304.00 22.74
305.00 23.61
306.00 24.92
307.00 27.15
308.00 30.23
309.00 30.33
310.00 26.90
311.00 24.15
312.00 22.38
313.00 21.30
314.00 20.93
315.00 21.62
316.00 24.07
317.00 30.36
318.00 37.75
319.00 26.12
320.00 22.00
321.00 20.27
322.00 19.90
323.00 20.54
324.00 22.28
325.00 25.79
326.00 29.66
327.00 24.08
328.00 19.17
329.00 16.43
330.00 15.21
331.00 15.24
332.00 16.48
333.00 19.16
334.00 23.99
335.00 34.07
336.00 36.65
337.00 31.37
338.00 34.18
339.00 37.57
340.00 26.41
341.00 21.46
342.00 19.17
343.00 18.72
344.00 20.03
345.00 23.69
346.00 32.01
347.00 28.70
348.00 22.56
349.00 20.09
350.00 19.90
351.00 22.36
352.00 31.86
353.00 29.31
354.00 21.32
355.00 18.15
356.00 16.95
357.00 16.90
358.00 17.61
359.00 18.98
