NAME ATR4518R7_2655_X_CO_P45_01T_yL
FREQUENCY 2655
GAIN 15.69 dBd
TILT	ELECTRICAL
COMMENT DATE 05.08.2013 +45 degrees polarized system Lever position 01T deg
HORIZONTAL 360
0.00 0.05
1.00 0.10
2.00 0.15
3.00 0.21
4.00 0.26
5.00 0.32
6.00 0.37
7.00 0.42
8.00 0.47
9.00 0.51
10.00 0.54
11.00 0.58
12.00 0.61
13.00 0.65
14.00 0.70
15.00 0.76
16.00 0.83
17.00 0.90
18.00 1.00
19.00 1.12
20.00 1.26
21.00 1.42
22.00 1.60
23.00 1.79
24.00 2.00
25.00 2.22
26.00 2.43
27.00 2.67
28.00 2.91
29.00 3.14
30.00 3.38
31.00 3.61
32.00 3.82
33.00 4.04
34.00 4.25
35.00 4.45
36.00 4.65
37.00 4.84
38.00 5.03
39.00 5.21
40.00 5.40
41.00 5.60
42.00 5.80
43.00 6.00
44.00 6.22
45.00 6.43
46.00 6.65
47.00 6.88
48.00 7.11
49.00 7.35
50.00 7.59
51.00 7.83
52.00 8.06
53.00 8.30
54.00 8.54
55.00 8.78
56.00 9.01
57.00 9.24
58.00 9.47
59.00 9.70
60.00 9.93
61.00 10.16
62.00 10.39
63.00 10.63
64.00 10.87
65.00 11.12
66.00 11.38
67.00 11.65
68.00 11.93
69.00 12.21
70.00 12.51
71.00 12.82
72.00 13.14
73.00 13.48
74.00 13.82
75.00 14.17
76.00 14.54
77.00 14.93
78.00 15.32
79.00 15.73
80.00 16.17
81.00 16.61
82.00 17.07
83.00 17.55
84.00 18.06
85.00 18.59
86.00 19.14
87.00 19.72
88.00 20.34
89.00 20.99
90.00 21.66
91.00 22.37
92.00 23.10
93.00 23.86
94.00 24.64
95.00 25.45
96.00 26.27
97.00 27.09
98.00 27.92
99.00 28.75
100.00 29.59
101.00 30.43
102.00 31.30
103.00 32.19
104.00 33.12
105.00 34.11
106.00 35.16
107.00 36.29
108.00 37.46
109.00 38.54
110.00 39.34
111.00 39.62
112.00 39.25
113.00 38.35
114.00 37.23
115.00 36.05
116.00 34.95
117.00 33.95
118.00 33.06
119.00 32.29
120.00 31.62
121.00 31.06
122.00 30.60
123.00 30.23
124.00 29.95
125.00 29.75
126.00 29.64
127.00 29.61
128.00 29.67
129.00 29.80
130.00 30.02
131.00 30.31
132.00 30.66
133.00 31.06
134.00 31.49
135.00 31.90
136.00 32.26
137.00 32.52
138.00 32.66
139.00 32.67
140.00 32.57
141.00 32.42
142.00 32.25
143.00 32.11
144.00 32.05
145.00 32.10
146.00 32.27
147.00 32.60
148.00 33.09
149.00 33.76
150.00 34.61
151.00 35.62
152.00 36.69
153.00 37.61
154.00 38.02
155.00 37.70
156.00 36.77
157.00 35.59
158.00 34.43
159.00 33.42
160.00 32.59
161.00 31.96
162.00 31.53
163.00 31.29
164.00 31.24
165.00 31.37
166.00 31.70
167.00 32.24
168.00 33.00
169.00 34.02
170.00 35.31
171.00 36.92
172.00 38.82
173.00 40.73
174.00 41.80
175.00 41.21
176.00 39.56
177.00 37.81
178.00 36.31
179.00 35.13
180.00 34.25
181.00 33.62
182.00 33.23
183.00 33.05
184.00 33.08
185.00 33.31
186.00 33.74
187.00 34.40
188.00 35.30
189.00 36.46
190.00 37.92
191.00 39.68
192.00 41.66
193.00 43.39
194.00 43.99
195.00 43.15
196.00 41.72
197.00 40.38
198.00 39.38
199.00 38.74
200.00 38.48
201.00 38.60
202.00 39.13
203.00 40.16
204.00 41.84
205.00 44.52
206.00 48.72
207.00 51.65
208.00 46.63
209.00 42.07
210.00 38.87
211.00 36.52
212.00 34.72
213.00 33.33
214.00 32.24
215.00 31.41
216.00 30.79
217.00 30.37
218.00 30.13
219.00 30.05
220.00 30.13
221.00 30.37
222.00 30.77
223.00 31.33
224.00 32.05
225.00 32.92
226.00 33.96
227.00 35.12
228.00 36.35
229.00 37.50
230.00 38.33
231.00 38.59
232.00 38.24
233.00 37.46
234.00 36.49
235.00 35.49
236.00 34.53
237.00 33.63
238.00 32.80
239.00 32.02
240.00 31.27
241.00 30.58
242.00 29.93
243.00 29.32
244.00 28.75
245.00 28.23
246.00 27.77
247.00 27.34
248.00 26.98
249.00 26.67
250.00 26.41
251.00 26.20
252.00 26.04
253.00 25.92
254.00 25.83
255.00 25.78
256.00 25.75
257.00 25.74
258.00 25.74
259.00 25.72
260.00 25.70
261.00 25.64
262.00 25.56
263.00 25.44
264.00 25.28
265.00 25.08
266.00 24.85
267.00 24.58
268.00 24.29
269.00 23.99
270.00 23.68
271.00 23.35
272.00 23.03
273.00 22.70
274.00 22.37
275.00 22.03
276.00 21.70
277.00 21.36
278.00 21.02
279.00 20.67
280.00 20.33
281.00 19.98
282.00 19.64
283.00 19.29
284.00 18.95
285.00 18.61
286.00 18.28
287.00 17.95
288.00 17.62
289.00 17.30
290.00 16.99
291.00 16.69
292.00 16.40
293.00 16.12
294.00 15.84
295.00 15.56
296.00 15.29
297.00 15.02
298.00 14.75
299.00 14.48
300.00 14.20
301.00 13.93
302.00 13.63
303.00 13.33
304.00 13.01
305.00 12.66
306.00 12.31
307.00 11.93
308.00 11.54
309.00 11.14
310.00 10.71
311.00 10.27
312.00 9.83
313.00 9.38
314.00 8.94
315.00 8.50
316.00 8.06
317.00 7.64
318.00 7.23
319.00 6.83
320.00 6.46
321.00 6.09
322.00 5.75
323.00 5.43
324.00 5.12
325.00 4.83
326.00 4.56
327.00 4.31
328.00 4.09
329.00 3.86
330.00 3.66
331.00 3.46
332.00 3.27
333.00 3.10
334.00 2.93
335.00 2.77
336.00 2.61
337.00 2.45
338.00 2.30
339.00 2.14
340.00 1.99
341.00 1.83
342.00 1.67
343.00 1.51
344.00 1.36
345.00 1.20
346.00 1.04
347.00 0.89
348.00 0.74
349.00 0.60
350.00 0.47
351.00 0.35
352.00 0.25
353.00 0.16
354.00 0.09
355.00 0.04
356.00 0.01
357.00 0.00
358.00 0.00
359.00 0.02
VERTICAL 360
0.00 0.75
1.00 0.00
2.00 0.61
3.00 2.79
4.00 7.11
5.00 14.32
6.00 15.09
7.00 12.33
8.00 13.00
9.00 16.83
10.00 19.00
11.00 15.13
12.00 13.99
13.00 16.21
14.00 20.63
15.00 18.72
16.00 16.24
17.00 16.56
18.00 20.04
19.00 32.99
20.00 22.80
21.00 17.10
22.00 15.74
23.00 16.78
24.00 19.38
25.00 22.36
26.00 24.04
27.00 22.86
28.00 19.71
29.00 17.02
30.00 15.81
31.00 16.38
32.00 18.96
33.00 23.91
34.00 30.02
35.00 26.55
36.00 22.23
37.00 20.39
38.00 21.10
39.00 25.42
40.00 46.14
41.00 27.06
42.00 22.25
43.00 20.81
44.00 21.12
45.00 22.81
46.00 25.70
47.00 29.00
48.00 30.65
49.00 30.12
50.00 29.16
51.00 29.07
52.00 30.84
53.00 35.46
54.00 43.12
55.00 42.84
56.00 34.06
57.00 27.88
58.00 23.67
59.00 20.51
60.00 18.26
61.00 16.96
62.00 16.44
63.00 16.33
64.00 16.36
65.00 16.54
66.00 17.05
67.00 17.91
68.00 18.84
69.00 19.52
70.00 20.00
71.00 20.70
72.00 21.93
73.00 23.43
74.00 24.37
75.00 24.32
76.00 24.04
77.00 24.50
78.00 25.97
79.00 27.68
80.00 28.13
81.00 27.39
82.00 27.25
83.00 29.21
84.00 35.09
85.00 37.93
86.00 30.79
87.00 27.70
88.00 26.70
89.00 27.23
90.00 29.10
91.00 31.05
92.00 30.45
93.00 29.39
94.00 30.00
95.00 32.50
96.00 37.14
97.00 44.81
98.00 42.84
99.00 40.35
100.00 42.32
101.00 48.59
102.00 68.16
103.00 55.13
104.00 49.32
105.00 42.31
106.00 37.62
107.00 35.70
108.00 35.50
109.00 35.42
110.00 34.13
111.00 32.18
112.00 30.83
113.00 30.43
114.00 30.51
115.00 30.45
116.00 30.24
117.00 30.51
118.00 31.79
119.00 33.80
120.00 35.76
121.00 38.57
122.00 43.97
123.00 48.27
124.00 45.98
125.00 39.64
126.00 35.36
127.00 34.08
128.00 35.12
129.00 36.01
130.00 34.42
131.00 33.57
132.00 34.95
133.00 38.39
134.00 40.45
135.00 39.06
136.00 39.10
137.00 41.46
138.00 43.90
139.00 44.04
140.00 44.19
141.00 44.01
142.00 42.62
143.00 39.01
144.00 35.75
145.00 34.57
146.00 35.76
147.00 38.14
148.00 37.44
149.00 36.42
150.00 37.70
151.00 37.78
152.00 36.64
153.00 39.22
154.00 48.76
155.00 43.71
156.00 40.45
157.00 36.52
158.00 34.01
159.00 34.54
160.00 35.26
161.00 33.40
162.00 32.93
163.00 34.36
164.00 35.95
165.00 38.56
166.00 46.99
167.00 45.30
168.00 37.76
169.00 34.44
170.00 33.38
171.00 34.22
172.00 36.21
173.00 39.85
174.00 54.56
175.00 42.74
176.00 37.97
177.00 37.63
178.00 37.90
179.00 37.02
180.00 35.45
181.00 34.01
182.00 33.62
183.00 34.45
184.00 36.14
185.00 38.55
186.00 42.25
187.00 48.78
188.00 43.81
189.00 38.77
190.00 36.63
191.00 35.52
192.00 35.56
193.00 37.20
194.00 39.29
195.00 43.14
196.00 48.61
197.00 37.34
198.00 33.91
199.00 33.71
200.00 34.40
201.00 35.15
202.00 36.13
203.00 34.68
204.00 32.53
205.00 32.09
206.00 33.18
207.00 34.64
208.00 35.53
209.00 36.49
210.00 37.80
211.00 39.00
212.00 40.68
213.00 40.67
214.00 39.74
215.00 44.15
216.00 50.08
217.00 38.64
218.00 37.42
219.00 40.17
220.00 37.54
221.00 34.00
222.00 33.16
223.00 33.71
224.00 34.28
225.00 34.87
226.00 36.05
227.00 37.26
228.00 37.45
229.00 37.03
230.00 36.41
231.00 35.42
232.00 34.39
233.00 34.27
234.00 35.99
235.00 40.68
236.00 52.76
237.00 50.13
238.00 41.36
239.00 36.28
240.00 33.26
241.00 31.83
242.00 31.52
243.00 31.86
244.00 32.43
245.00 32.94
246.00 33.14
247.00 33.13
248.00 33.16
249.00 33.23
250.00 33.31
251.00 33.68
252.00 34.74
253.00 36.88
254.00 39.63
255.00 41.21
256.00 40.89
257.00 40.51
258.00 42.40
259.00 45.11
260.00 42.49
261.00 42.02
262.00 42.36
263.00 39.68
264.00 38.71
265.00 39.55
266.00 40.86
267.00 45.21
268.00 44.51
269.00 38.35
270.00 36.74
271.00 37.06
272.00 36.90
273.00 35.95
274.00 34.70
275.00 33.87
276.00 33.97
277.00 34.37
278.00 34.49
279.00 34.72
280.00 35.08
281.00 35.43
282.00 35.96
283.00 36.31
284.00 36.95
285.00 40.32
286.00 51.93
287.00 36.62
288.00 30.39
289.00 26.85
290.00 24.39
291.00 22.35
292.00 20.48
293.00 18.74
294.00 17.18
295.00 15.87
296.00 14.85
297.00 14.17
298.00 13.85
299.00 13.89
300.00 14.28
301.00 15.01
302.00 16.14
303.00 17.81
304.00 20.37
305.00 24.66
306.00 33.97
307.00 30.11
308.00 23.51
309.00 21.12
310.00 21.29
311.00 23.98
312.00 27.69
313.00 24.81
314.00 21.39
315.00 19.86
316.00 19.80
317.00 21.14
318.00 22.88
319.00 20.94
320.00 17.76
321.00 16.34
322.00 17.03
323.00 20.41
324.00 30.12
325.00 26.58
326.00 19.46
327.00 16.76
328.00 16.17
329.00 17.02
330.00 18.39
331.00 18.26
332.00 16.41
333.00 14.42
334.00 12.83
335.00 11.78
336.00 11.50
337.00 12.33
338.00 15.00
339.00 21.88
340.00 31.00
341.00 18.79
342.00 16.37
343.00 17.89
344.00 25.39
345.00 27.93
346.00 18.80
347.00 16.99
348.00 19.05
349.00 25.79
350.00 23.56
351.00 18.98
352.00 18.66
353.00 22.09
354.00 32.47
355.00 34.67
356.00 21.63
357.00 12.57
358.00 6.64
359.00 2.89
