NAME ATR4518R7_1950_X_CO_M45_09T_yL
FREQUENCY 1950
GAIN 14.81 dBd
TILT	ELECTRICAL
COMMENT DATE 05.08.2013 -45 degrees polarized system Lever position 09T deg
HORIZONTAL 360
0.00 0.00
1.00 0.01
2.00 0.02
3.00 0.04
4.00 0.06
5.00 0.08
6.00 0.11
7.00 0.14
8.00 0.17
9.00 0.21
10.00 0.25
11.00 0.30
12.00 0.35
13.00 0.41
14.00 0.47
15.00 0.53
16.00 0.61
17.00 0.68
18.00 0.77
19.00 0.86
20.00 0.96
21.00 1.07
22.00 1.18
23.00 1.30
24.00 1.43
25.00 1.56
26.00 1.71
27.00 1.86
28.00 2.02
29.00 2.18
30.00 2.36
31.00 2.54
32.00 2.73
33.00 2.92
34.00 3.13
35.00 3.34
36.00 3.56
37.00 3.79
38.00 4.02
39.00 4.26
40.00 4.51
41.00 4.77
42.00 5.04
43.00 5.31
44.00 5.59
45.00 5.88
46.00 6.17
47.00 6.47
48.00 6.77
49.00 7.08
50.00 7.39
51.00 7.70
52.00 8.02
53.00 8.34
54.00 8.66
55.00 8.97
56.00 9.29
57.00 9.61
58.00 9.93
59.00 10.24
60.00 10.56
61.00 10.87
62.00 11.19
63.00 11.50
64.00 11.81
65.00 12.12
66.00 12.44
67.00 12.75
68.00 13.06
69.00 13.37
70.00 13.69
71.00 14.01
72.00 14.32
73.00 14.64
74.00 14.96
75.00 15.27
76.00 15.58
77.00 15.89
78.00 16.19
79.00 16.49
80.00 16.78
81.00 17.07
82.00 17.35
83.00 17.63
84.00 17.89
85.00 18.16
86.00 18.41
87.00 18.67
88.00 18.92
89.00 19.17
90.00 19.43
91.00 19.69
92.00 19.96
93.00 20.23
94.00 20.51
95.00 20.80
96.00 21.10
97.00 21.41
98.00 21.73
99.00 22.05
100.00 22.37
101.00 22.68
102.00 23.00
103.00 23.29
104.00 23.57
105.00 23.82
106.00 24.04
107.00 24.23
108.00 24.38
109.00 24.51
110.00 24.61
111.00 24.68
112.00 24.74
113.00 24.79
114.00 24.84
115.00 24.89
116.00 24.94
117.00 25.00
118.00 25.08
119.00 25.16
120.00 25.25
121.00 25.35
122.00 25.44
123.00 25.54
124.00 25.63
125.00 25.71
126.00 25.78
127.00 25.84
128.00 25.88
129.00 25.91
130.00 25.94
131.00 25.96
132.00 25.98
133.00 26.01
134.00 26.04
135.00 26.08
136.00 26.14
137.00 26.21
138.00 26.29
139.00 26.38
140.00 26.49
141.00 26.60
142.00 26.73
143.00 26.87
144.00 27.02
145.00 27.19
146.00 27.38
147.00 27.59
148.00 27.85
149.00 28.14
150.00 28.48
151.00 28.88
152.00 29.34
153.00 29.86
154.00 30.43
155.00 31.04
156.00 31.63
157.00 32.15
158.00 32.51
159.00 32.64
160.00 32.48
161.00 32.07
162.00 31.48
163.00 30.82
164.00 30.15
165.00 29.53
166.00 29.00
167.00 28.56
168.00 28.22
169.00 28.01
170.00 27.91
171.00 27.92
172.00 28.07
173.00 28.33
174.00 28.73
175.00 29.26
176.00 29.91
177.00 30.67
178.00 31.50
179.00 32.33
180.00 33.03
181.00 33.44
182.00 33.45
183.00 33.06
184.00 32.42
185.00 31.69
186.00 30.98
187.00 30.38
188.00 29.90
189.00 29.58
190.00 29.42
191.00 29.44
192.00 29.64
193.00 30.04
194.00 30.68
195.00 31.60
196.00 32.86
197.00 34.61
198.00 37.11
199.00 40.98
200.00 48.00
201.00 49.01
202.00 41.23
203.00 36.90
204.00 34.05
205.00 31.98
206.00 30.42
207.00 29.21
208.00 28.27
209.00 27.56
210.00 27.04
211.00 26.69
212.00 26.51
213.00 26.47
214.00 26.60
215.00 26.88
216.00 27.33
217.00 27.97
218.00 28.82
219.00 29.93
220.00 31.37
221.00 33.27
222.00 35.83
223.00 39.44
224.00 43.90
225.00 43.18
226.00 38.62
227.00 35.16
228.00 32.66
229.00 30.76
230.00 29.29
231.00 28.11
232.00 27.16
233.00 26.39
234.00 25.77
235.00 25.28
236.00 24.89
237.00 24.60
238.00 24.38
239.00 24.23
240.00 24.14
241.00 24.08
242.00 24.06
243.00 24.05
244.00 24.04
245.00 24.01
246.00 23.95
247.00 23.86
248.00 23.72
249.00 23.53
250.00 23.29
251.00 23.02
252.00 22.71
253.00 22.39
254.00 22.06
255.00 21.73
256.00 21.41
257.00 21.10
258.00 20.80
259.00 20.53
260.00 20.28
261.00 20.04
262.00 19.81
263.00 19.60
264.00 19.39
265.00 19.19
266.00 18.98
267.00 18.76
268.00 18.53
269.00 18.28
270.00 18.02
271.00 17.74
272.00 17.44
273.00 17.12
274.00 16.79
275.00 16.45
276.00 16.11
277.00 15.76
278.00 15.41
279.00 15.07
280.00 14.74
281.00 14.41
282.00 14.09
283.00 13.77
284.00 13.47
285.00 13.18
286.00 12.90
287.00 12.61
288.00 12.34
289.00 12.07
290.00 11.80
291.00 11.53
292.00 11.25
293.00 10.98
294.00 10.70
295.00 10.42
296.00 10.13
297.00 9.85
298.00 9.56
299.00 9.27
300.00 8.98
301.00 8.70
302.00 8.42
303.00 8.14
304.00 7.87
305.00 7.61
306.00 7.36
307.00 7.12
308.00 6.89
309.00 6.67
310.00 6.46
311.00 6.26
312.00 6.07
313.00 5.89
314.00 5.71
315.00 5.54
316.00 5.38
317.00 5.22
318.00 5.07
319.00 4.91
320.00 4.76
321.00 4.60
322.00 4.44
323.00 4.28
324.00 4.12
325.00 3.95
326.00 3.77
327.00 3.60
328.00 3.42
329.00 3.24
330.00 3.07
331.00 2.89
332.00 2.71
333.00 2.53
334.00 2.35
335.00 2.18
336.00 2.01
337.00 1.85
338.00 1.69
339.00 1.53
340.00 1.38
341.00 1.24
342.00 1.10
343.00 0.97
344.00 0.85
345.00 0.74
346.00 0.63
347.00 0.53
348.00 0.44
349.00 0.36
350.00 0.29
351.00 0.23
352.00 0.17
353.00 0.12
354.00 0.08
355.00 0.05
356.00 0.03
357.00 0.01
358.00 0.00
359.00 0.00
VERTICAL 360
0.00 18.66
1.00 20.09
2.00 17.38
3.00 12.51
4.00 8.04
5.00 4.71
6.00 2.38
7.00 0.89
8.00 0.13
9.00 0.05
10.00 0.68
11.00 2.18
12.00 4.86
13.00 9.50
14.00 19.33
15.00 21.85
16.00 14.02
17.00 11.91
18.00 11.82
19.00 13.06
20.00 15.57
21.00 18.64
22.00 18.39
23.00 16.04
24.00 15.07
25.00 16.05
26.00 19.44
27.00 26.73
28.00 26.85
29.00 21.55
30.00 19.69
31.00 19.46
32.00 20.02
33.00 21.35
34.00 24.29
35.00 29.87
36.00 27.21
37.00 22.01
38.00 19.75
39.00 19.55
40.00 21.08
41.00 23.88
42.00 24.70
43.00 21.71
44.00 18.76
45.00 16.64
46.00 15.17
47.00 14.21
48.00 13.72
49.00 13.64
50.00 13.97
51.00 14.74
52.00 16.01
53.00 17.79
54.00 19.87
55.00 21.65
56.00 22.75
57.00 23.85
58.00 25.79
59.00 29.06
60.00 33.22
61.00 34.18
62.00 31.67
63.00 29.46
64.00 27.87
65.00 26.81
66.00 26.38
67.00 26.66
68.00 27.62
69.00 29.03
70.00 30.47
71.00 31.28
72.00 31.38
73.00 31.61
74.00 32.56
75.00 34.28
76.00 36.43
77.00 37.70
78.00 36.73
79.00 35.74
80.00 36.55
81.00 39.40
82.00 41.90
83.00 42.06
84.00 44.09
85.00 44.94
86.00 40.10
87.00 37.63
88.00 37.70
89.00 39.71
90.00 42.70
91.00 42.84
92.00 39.89
93.00 37.80
94.00 37.25
95.00 37.87
96.00 39.05
97.00 40.55
98.00 42.60
99.00 43.12
100.00 40.98
101.00 39.65
102.00 40.08
103.00 41.91
104.00 44.31
105.00 45.91
106.00 45.74
107.00 45.19
108.00 45.81
109.00 47.35
110.00 47.86
111.00 47.71
112.00 48.54
113.00 49.83
114.00 50.10
115.00 49.01
116.00 47.17
117.00 45.69
118.00 44.83
119.00 43.99
120.00 42.66
121.00 41.44
122.00 41.45
123.00 44.12
124.00 54.77
125.00 47.91
126.00 41.41
127.00 39.20
128.00 38.18
129.00 36.81
130.00 35.33
131.00 34.45
132.00 34.37
133.00 35.13
134.00 36.80
135.00 39.13
136.00 40.37
137.00 38.34
138.00 35.38
139.00 33.55
140.00 33.46
141.00 35.72
142.00 42.21
143.00 48.50
144.00 39.69
145.00 36.85
146.00 35.22
147.00 33.50
148.00 32.53
149.00 33.24
150.00 36.09
151.00 38.58
152.00 35.59
153.00 33.21
154.00 32.77
155.00 33.39
156.00 33.67
157.00 33.24
158.00 33.27
159.00 34.49
160.00 36.70
161.00 38.47
162.00 39.50
163.00 42.65
164.00 53.73
165.00 41.30
166.00 35.42
167.00 32.80
168.00 31.80
169.00 31.64
170.00 31.76
171.00 32.03
172.00 32.82
173.00 34.47
174.00 36.49
175.00 37.06
176.00 36.70
177.00 37.70
178.00 41.63
179.00 52.25
180.00 48.37
181.00 44.15
182.00 43.29
183.00 42.64
184.00 42.53
185.00 40.87
186.00 35.95
187.00 32.37
188.00 30.99
189.00 31.70
190.00 34.32
191.00 36.79
192.00 35.44
193.00 33.71
194.00 33.53
195.00 35.29
196.00 39.66
197.00 43.49
198.00 40.91
199.00 42.34
200.00 62.77
201.00 41.18
202.00 36.60
203.00 36.95
204.00 38.74
205.00 33.70
206.00 29.32
207.00 27.22
208.00 26.81
209.00 27.71
210.00 29.73
211.00 32.72
212.00 36.68
213.00 42.58
214.00 56.20
215.00 41.64
216.00 35.93
217.00 33.33
218.00 32.63
219.00 33.46
220.00 35.39
221.00 37.35
222.00 38.66
223.00 40.64
224.00 43.92
225.00 42.73
226.00 39.20
227.00 37.67
228.00 38.03
229.00 40.03
230.00 43.25
231.00 44.62
232.00 42.26
233.00 40.40
234.00 40.46
235.00 43.16
236.00 48.97
237.00 44.21
238.00 39.39
239.00 37.53
240.00 37.53
241.00 38.94
242.00 41.99
243.00 48.87
244.00 56.59
245.00 44.01
246.00 39.63
247.00 37.50
248.00 36.70
249.00 36.75
250.00 36.85
251.00 36.35
252.00 35.82
253.00 35.96
254.00 36.83
255.00 38.14
256.00 39.43
257.00 40.01
258.00 40.03
259.00 41.09
260.00 45.76
261.00 53.21
262.00 40.60
263.00 35.66
264.00 33.21
265.00 31.92
266.00 30.96
267.00 29.85
268.00 28.63
269.00 27.52
270.00 26.65
271.00 26.07
272.00 25.80
273.00 25.82
274.00 26.02
275.00 26.30
276.00 26.59
277.00 26.86
278.00 27.08
279.00 27.19
280.00 27.12
281.00 26.82
282.00 26.30
283.00 25.63
284.00 24.92
285.00 24.27
286.00 23.81
287.00 23.60
288.00 23.58
289.00 23.53
290.00 23.16
291.00 22.42
292.00 21.56
293.00 20.89
294.00 20.69
295.00 21.16
296.00 22.55
297.00 25.21
298.00 29.05
299.00 29.44
300.00 25.89
301.00 23.42
302.00 22.23
303.00 21.85
304.00 21.80
305.00 21.79
306.00 21.98
307.00 22.90
308.00 25.14
309.00 29.19
310.00 31.81
311.00 27.89
312.00 24.29
313.00 21.81
314.00 20.28
315.00 19.84
316.00 20.83
317.00 24.05
318.00 32.85
319.00 33.41
320.00 24.74
321.00 21.65
322.00 20.43
323.00 20.16
324.00 20.74
325.00 22.69
326.00 26.46
327.00 25.38
328.00 20.62
329.00 17.36
330.00 15.56
331.00 14.96
332.00 15.48
333.00 17.11
334.00 20.01
335.00 24.58
336.00 30.86
337.00 31.26
338.00 30.34
339.00 36.09
340.00 33.49
341.00 24.23
342.00 20.20
343.00 18.61
344.00 18.87
345.00 21.05
346.00 26.21
347.00 34.67
348.00 25.01
349.00 20.35
350.00 18.67
351.00 19.44
352.00 23.95
353.00 41.94
354.00 23.65
355.00 18.87
356.00 16.91
357.00 16.40
358.00 16.56
359.00 17.33
