NAME ATR4518R7_2350_X_CO_P45_09T_yL
FREQUENCY 2350
GAIN 14.97 dBd
TILT	ELECTRICAL
COMMENT DATE 05.08.2013 +45 degrees polarized system Lever position 09T deg
HORIZONTAL 360
0.00 0.03
1.00 0.01
2.00 0.00
3.00 0.00
4.00 0.01
5.00 0.02
6.00 0.04
7.00 0.07
8.00 0.10
9.00 0.14
10.00 0.19
11.00 0.23
12.00 0.29
13.00 0.35
14.00 0.42
15.00 0.49
16.00 0.57
17.00 0.66
18.00 0.75
19.00 0.85
20.00 0.96
21.00 1.07
22.00 1.19
23.00 1.32
24.00 1.44
25.00 1.58
26.00 1.72
27.00 1.86
28.00 2.01
29.00 2.16
30.00 2.31
31.00 2.46
32.00 2.62
33.00 2.79
34.00 2.96
35.00 3.13
36.00 3.30
37.00 3.48
38.00 3.67
39.00 3.86
40.00 4.06
41.00 4.27
42.00 4.49
43.00 4.71
44.00 4.94
45.00 5.18
46.00 5.43
47.00 5.69
48.00 5.96
49.00 6.23
50.00 6.52
51.00 6.82
52.00 7.12
53.00 7.44
54.00 7.77
55.00 8.10
56.00 8.45
57.00 8.81
58.00 9.17
59.00 9.55
60.00 9.93
61.00 10.33
62.00 10.73
63.00 11.15
64.00 11.57
65.00 12.00
66.00 12.44
67.00 12.89
68.00 13.34
69.00 13.80
70.00 14.26
71.00 14.71
72.00 15.17
73.00 15.63
74.00 16.07
75.00 16.51
76.00 16.94
77.00 17.35
78.00 17.75
79.00 18.12
80.00 18.47
81.00 18.80
82.00 19.11
83.00 19.38
84.00 19.63
85.00 19.86
86.00 20.06
87.00 20.23
88.00 20.39
89.00 20.53
90.00 20.66
91.00 20.77
92.00 20.88
93.00 20.99
94.00 21.10
95.00 21.21
96.00 21.33
97.00 21.45
98.00 21.59
99.00 21.75
100.00 21.91
101.00 22.09
102.00 22.28
103.00 22.49
104.00 22.71
105.00 22.94
106.00 23.17
107.00 23.41
108.00 23.65
109.00 23.88
110.00 24.11
111.00 24.32
112.00 24.52
113.00 24.70
114.00 24.86
115.00 25.00
116.00 25.12
117.00 25.24
118.00 25.34
119.00 25.44
120.00 25.55
121.00 25.66
122.00 25.77
123.00 25.90
124.00 26.04
125.00 26.18
126.00 26.33
127.00 26.47
128.00 26.62
129.00 26.74
130.00 26.85
131.00 26.94
132.00 27.01
133.00 27.07
134.00 27.11
135.00 27.13
136.00 27.17
137.00 27.21
138.00 27.27
139.00 27.35
140.00 27.47
141.00 27.63
142.00 27.83
143.00 28.07
144.00 28.35
145.00 28.67
146.00 29.02
147.00 29.40
148.00 29.81
149.00 30.23
150.00 30.66
151.00 31.11
152.00 31.56
153.00 32.04
154.00 32.54
155.00 33.08
156.00 33.67
157.00 34.33
158.00 35.07
159.00 35.87
160.00 36.68
161.00 37.40
162.00 37.85
163.00 37.86
164.00 37.37
165.00 36.52
166.00 35.49
167.00 34.46
168.00 33.51
169.00 32.68
170.00 31.99
171.00 31.45
172.00 31.06
173.00 30.82
174.00 30.72
175.00 30.78
176.00 31.00
177.00 31.39
178.00 31.97
179.00 32.75
180.00 33.76
181.00 35.07
182.00 36.70
183.00 38.70
184.00 40.95
185.00 42.68
186.00 42.52
187.00 40.70
188.00 38.64
189.00 36.87
190.00 35.48
191.00 34.40
192.00 33.60
193.00 33.03
194.00 32.66
195.00 32.47
196.00 32.45
197.00 32.58
198.00 32.86
199.00 33.26
200.00 33.78
201.00 34.40
202.00 35.08
203.00 35.78
204.00 36.44
205.00 36.98
206.00 37.36
207.00 37.58
208.00 37.67
209.00 37.70
210.00 37.75
211.00 37.89
212.00 38.17
213.00 38.65
214.00 39.34
215.00 40.26
216.00 41.32
217.00 42.24
218.00 42.42
219.00 41.42
220.00 39.62
221.00 37.62
222.00 35.76
223.00 34.09
224.00 32.64
225.00 31.38
226.00 30.29
227.00 29.34
228.00 28.52
229.00 27.81
230.00 27.20
231.00 26.69
232.00 26.25
233.00 25.89
234.00 25.59
235.00 25.36
236.00 25.18
237.00 25.06
238.00 24.98
239.00 24.94
240.00 24.93
241.00 24.96
242.00 25.00
243.00 25.06
244.00 25.14
245.00 25.21
246.00 25.27
247.00 25.32
248.00 25.34
249.00 25.33
250.00 25.29
251.00 25.21
252.00 25.09
253.00 24.93
254.00 24.74
255.00 24.52
256.00 24.27
257.00 24.01
258.00 23.73
259.00 23.44
260.00 23.14
261.00 22.84
262.00 22.53
263.00 22.22
264.00 21.90
265.00 21.58
266.00 21.25
267.00 20.91
268.00 20.57
269.00 20.22
270.00 19.86
271.00 19.50
272.00 19.14
273.00 18.77
274.00 18.41
275.00 18.05
276.00 17.70
277.00 17.36
278.00 17.02
279.00 16.71
280.00 16.40
281.00 16.12
282.00 15.84
283.00 15.59
284.00 15.35
285.00 15.12
286.00 14.91
287.00 14.71
288.00 14.51
289.00 14.32
290.00 14.14
291.00 13.96
292.00 13.77
293.00 13.58
294.00 13.38
295.00 13.17
296.00 12.95
297.00 12.71
298.00 12.45
299.00 12.18
300.00 11.89
301.00 11.59
302.00 11.26
303.00 10.93
304.00 10.59
305.00 10.25
306.00 9.89
307.00 9.53
308.00 9.18
309.00 8.82
310.00 8.46
311.00 8.11
312.00 7.76
313.00 7.42
314.00 7.08
315.00 6.74
316.00 6.41
317.00 6.09
318.00 5.78
319.00 5.47
320.00 5.17
321.00 4.88
322.00 4.60
323.00 4.33
324.00 4.08
325.00 3.83
326.00 3.60
327.00 3.38
328.00 3.18
329.00 2.99
330.00 2.81
331.00 2.65
332.00 2.50
333.00 2.36
334.00 2.24
335.00 2.12
336.00 2.01
337.00 1.91
338.00 1.82
339.00 1.72
340.00 1.63
341.00 1.54
342.00 1.45
343.00 1.36
344.00 1.26
345.00 1.16
346.00 1.06
347.00 0.96
348.00 0.86
349.00 0.76
350.00 0.66
351.00 0.56
352.00 0.47
353.00 0.39
354.00 0.31
355.00 0.24
356.00 0.18
357.00 0.13
358.00 0.08
359.00 0.05
VERTICAL 360
0.00 29.72
1.00 40.13
2.00 26.48
3.00 18.40
4.00 12.01
5.00 7.19
6.00 3.73
7.00 1.46
8.00 0.23
9.00 0.02
10.00 0.89
11.00 3.03
12.00 7.10
13.00 15.59
14.00 22.67
15.00 12.95
16.00 11.05
17.00 12.10
18.00 15.63
19.00 20.16
20.00 18.04
21.00 15.55
22.00 15.67
23.00 18.84
24.00 27.52
25.00 22.90
26.00 17.69
27.00 16.38
28.00 17.52
29.00 21.32
30.00 31.76
31.00 28.21
32.00 20.93
33.00 18.48
34.00 18.37
35.00 19.87
36.00 21.06
37.00 19.40
38.00 17.06
39.00 15.59
40.00 15.04
41.00 15.24
42.00 16.00
43.00 17.17
44.00 18.77
45.00 21.13
46.00 24.72
47.00 28.95
48.00 29.89
49.00 29.40
50.00 29.59
51.00 27.84
52.00 25.06
53.00 23.48
54.00 23.43
55.00 24.78
56.00 27.03
57.00 29.06
58.00 30.72
59.00 33.60
60.00 37.33
61.00 34.82
62.00 31.35
63.00 29.40
64.00 28.20
65.00 27.31
66.00 26.79
67.00 26.86
68.00 27.63
69.00 28.96
70.00 30.50
71.00 31.90
72.00 32.87
73.00 33.47
74.00 33.93
75.00 34.33
76.00 34.89
77.00 36.18
78.00 38.55
79.00 41.06
80.00 41.50
81.00 40.39
82.00 39.26
83.00 38.66
84.00 38.80
85.00 39.28
86.00 38.79
87.00 37.27
88.00 36.26
89.00 36.55
90.00 38.12
91.00 40.32
92.00 42.11
93.00 42.11
94.00 39.34
95.00 36.55
96.00 35.21
97.00 35.26
98.00 36.41
99.00 38.40
100.00 40.74
101.00 41.68
102.00 40.68
103.00 39.62
104.00 39.31
105.00 40.16
106.00 42.77
107.00 47.18
108.00 50.73
109.00 55.71
110.00 54.11
111.00 46.15
112.00 44.07
113.00 45.93
114.00 52.22
115.00 52.63
116.00 47.73
117.00 44.94
118.00 43.01
119.00 42.92
120.00 45.62
121.00 45.35
122.00 40.14
123.00 37.76
124.00 37.79
125.00 38.55
126.00 38.23
127.00 38.44
128.00 41.64
129.00 53.11
130.00 46.06
131.00 41.16
132.00 40.80
133.00 43.19
134.00 46.55
135.00 43.64
136.00 39.35
137.00 36.65
138.00 35.24
139.00 34.87
140.00 35.23
141.00 35.76
142.00 35.69
143.00 35.02
144.00 34.71
145.00 35.63
146.00 38.32
147.00 42.50
148.00 44.73
149.00 45.45
150.00 47.97
151.00 47.69
152.00 42.84
153.00 38.17
154.00 34.87
155.00 33.20
156.00 33.06
157.00 34.24
158.00 36.61
159.00 40.37
160.00 45.67
161.00 49.18
162.00 53.38
163.00 55.00
164.00 42.51
165.00 37.88
166.00 36.18
167.00 36.63
168.00 39.38
169.00 45.44
170.00 44.98
171.00 39.31
172.00 36.53
173.00 35.41
174.00 35.64
175.00 37.39
176.00 39.85
177.00 38.68
178.00 35.77
179.00 34.24
180.00 34.07
181.00 34.84
182.00 36.20
183.00 38.16
184.00 41.71
185.00 46.88
186.00 39.20
187.00 33.98
188.00 31.84
189.00 32.03
190.00 34.54
191.00 39.97
192.00 43.93
193.00 38.61
194.00 35.04
195.00 33.23
196.00 32.97
197.00 34.20
198.00 36.11
199.00 36.21
200.00 34.43
201.00 33.12
202.00 33.04
203.00 34.37
204.00 37.47
205.00 43.25
206.00 52.26
207.00 47.54
208.00 45.32
209.00 45.49
210.00 44.05
211.00 42.25
212.00 42.82
213.00 46.26
214.00 48.39
215.00 46.08
216.00 44.08
217.00 41.45
218.00 38.81
219.00 36.48
220.00 34.37
221.00 32.91
222.00 32.31
223.00 32.18
224.00 32.12
225.00 32.26
226.00 32.75
227.00 33.04
228.00 32.49
229.00 31.65
230.00 31.22
231.00 31.26
232.00 31.48
233.00 31.58
234.00 31.50
235.00 31.43
236.00 31.63
237.00 32.28
238.00 33.35
239.00 34.59
240.00 35.85
241.00 37.38
242.00 39.69
243.00 42.02
244.00 40.81
245.00 38.11
246.00 36.37
247.00 35.48
248.00 35.06
249.00 34.95
250.00 35.16
251.00 35.91
252.00 37.38
253.00 39.26
254.00 40.72
255.00 41.64
256.00 42.48
257.00 42.90
258.00 42.36
259.00 41.43
260.00 41.54
261.00 44.02
262.00 49.04
263.00 45.61
264.00 41.54
265.00 39.95
266.00 39.48
267.00 38.97
268.00 37.65
269.00 35.83
270.00 34.31
271.00 33.61
272.00 33.89
273.00 34.80
274.00 35.40
275.00 34.63
276.00 32.84
277.00 31.17
278.00 30.31
279.00 30.40
280.00 31.19
281.00 32.09
282.00 32.55
283.00 32.49
284.00 32.26
285.00 31.80
286.00 30.86
287.00 29.54
288.00 28.29
289.00 27.21
290.00 26.30
291.00 25.35
292.00 24.16
293.00 22.69
294.00 21.08
295.00 19.43
296.00 17.85
297.00 16.36
298.00 15.03
299.00 13.95
300.00 13.27
301.00 13.07
302.00 13.35
303.00 14.08
304.00 15.27
305.00 17.00
306.00 19.56
307.00 23.71
308.00 31.49
309.00 25.23
310.00 19.28
311.00 16.52
312.00 15.46
313.00 15.83
314.00 17.84
315.00 22.24
316.00 28.66
317.00 24.16
318.00 20.25
319.00 18.81
320.00 19.18
321.00 21.76
322.00 28.34
323.00 26.03
324.00 19.55
325.00 16.87
326.00 16.60
327.00 18.82
328.00 26.05
329.00 29.77
330.00 18.92
331.00 15.29
332.00 14.38
333.00 15.86
334.00 21.08
335.00 29.86
336.00 18.27
337.00 14.31
338.00 13.25
339.00 14.13
340.00 16.85
341.00 21.23
342.00 23.70
343.00 23.01
344.00 24.33
345.00 27.47
346.00 22.68
347.00 18.32
348.00 16.78
349.00 17.75
350.00 21.97
351.00 30.19
352.00 22.22
353.00 18.09
354.00 17.10
355.00 18.29
356.00 21.41
357.00 24.49
358.00 24.35
359.00 25.01
