NAME ATR4518R7_0832_X_CO_P45_04T
FREQUENCY 0832
GAIN 14.49 dBd
TILT	ELECTRICAL
COMMENT DATE 05.08.2013 +45 degrees polarized system Lever position 04T deg
HORIZONTAL 360
0.00 0.00
1.00 0.00
2.00 0.01
3.00 0.02
4.00 0.04
5.00 0.07
6.00 0.10
7.00 0.14
8.00 0.18
9.00 0.23
10.00 0.28
11.00 0.34
12.00 0.40
13.00 0.47
14.00 0.55
15.00 0.63
16.00 0.72
17.00 0.81
18.00 0.91
19.00 1.01
20.00 1.12
21.00 1.23
22.00 1.35
23.00 1.48
24.00 1.61
25.00 1.74
26.00 1.89
27.00 2.04
28.00 2.19
29.00 2.34
30.00 2.51
31.00 2.68
32.00 2.85
33.00 3.03
34.00 3.21
35.00 3.40
36.00 3.60
37.00 3.80
38.00 4.01
39.00 4.22
40.00 4.43
41.00 4.65
42.00 4.88
43.00 5.11
44.00 5.35
45.00 5.59
46.00 5.83
47.00 6.08
48.00 6.34
49.00 6.60
50.00 6.86
51.00 7.13
52.00 7.41
53.00 7.69
54.00 7.97
55.00 8.25
56.00 8.54
57.00 8.84
58.00 9.14
59.00 9.44
60.00 9.75
61.00 10.06
62.00 10.37
63.00 10.69
64.00 11.01
65.00 11.33
66.00 11.66
67.00 11.99
68.00 12.32
69.00 12.66
70.00 13.00
71.00 13.34
72.00 13.68
73.00 14.02
74.00 14.37
75.00 14.72
76.00 15.07
77.00 15.42
78.00 15.78
79.00 16.13
80.00 16.49
81.00 16.85
82.00 17.21
83.00 17.58
84.00 17.94
85.00 18.31
86.00 18.68
87.00 19.05
88.00 19.42
89.00 19.80
90.00 20.17
91.00 20.55
92.00 20.93
93.00 21.32
94.00 21.70
95.00 22.09
96.00 22.48
97.00 22.86
98.00 23.25
99.00 23.64
100.00 24.03
101.00 24.42
102.00 24.81
103.00 25.19
104.00 25.57
105.00 25.95
106.00 26.32
107.00 26.68
108.00 27.03
109.00 27.37
110.00 27.70
111.00 28.02
112.00 28.32
113.00 28.60
114.00 28.86
115.00 29.10
116.00 29.32
117.00 29.53
118.00 29.71
119.00 29.88
120.00 30.02
121.00 30.16
122.00 30.27
123.00 30.38
124.00 30.47
125.00 30.56
126.00 30.64
127.00 30.71
128.00 30.79
129.00 30.86
130.00 30.93
131.00 31.01
132.00 31.08
133.00 31.17
134.00 31.25
135.00 31.35
136.00 31.45
137.00 31.56
138.00 31.67
139.00 31.79
140.00 31.92
141.00 32.06
142.00 32.21
143.00 32.36
144.00 32.52
145.00 32.69
146.00 32.87
147.00 33.05
148.00 33.24
149.00 33.43
150.00 33.63
151.00 33.84
152.00 34.05
153.00 34.26
154.00 34.48
155.00 34.70
156.00 34.92
157.00 35.15
158.00 35.37
159.00 35.60
160.00 35.83
161.00 36.06
162.00 36.29
163.00 36.52
164.00 36.75
165.00 36.98
166.00 37.21
167.00 37.44
168.00 37.67
169.00 37.91
170.00 38.14
171.00 38.37
172.00 38.60
173.00 38.81
174.00 39.03
175.00 39.23
176.00 39.43
177.00 39.60
178.00 39.76
179.00 39.90
180.00 40.00
181.00 40.09
182.00 40.12
183.00 40.13
184.00 40.10
185.00 40.03
186.00 39.92
187.00 39.78
188.00 39.61
189.00 39.41
190.00 39.19
191.00 38.95
192.00 38.70
193.00 38.44
194.00 38.18
195.00 37.91
196.00 37.65
197.00 37.39
198.00 37.14
199.00 36.90
200.00 36.66
201.00 36.44
202.00 36.23
203.00 36.04
204.00 35.85
205.00 35.68
206.00 35.52
207.00 35.37
208.00 35.24
209.00 35.12
210.00 35.01
211.00 34.91
212.00 34.83
213.00 34.75
214.00 34.69
215.00 34.63
216.00 34.58
217.00 34.54
218.00 34.51
219.00 34.47
220.00 34.45
221.00 34.42
222.00 34.39
223.00 34.36
224.00 34.32
225.00 34.28
226.00 34.22
227.00 34.15
228.00 34.07
229.00 33.96
230.00 33.84
231.00 33.68
232.00 33.51
233.00 33.30
234.00 33.07
235.00 32.80
236.00 32.51
237.00 32.19
238.00 31.85
239.00 31.49
240.00 31.10
241.00 30.70
242.00 30.28
243.00 29.85
244.00 29.41
245.00 28.96
246.00 28.51
247.00 28.06
248.00 27.60
249.00 27.14
250.00 26.69
251.00 26.24
252.00 25.79
253.00 25.35
254.00 24.91
255.00 24.48
256.00 24.06
257.00 23.64
258.00 23.23
259.00 22.82
260.00 22.43
261.00 22.04
262.00 21.65
263.00 21.28
264.00 20.91
265.00 20.54
266.00 20.19
267.00 19.84
268.00 19.49
269.00 19.15
270.00 18.82
271.00 18.49
272.00 18.17
273.00 17.85
274.00 17.54
275.00 17.23
276.00 16.92
277.00 16.61
278.00 16.31
279.00 16.02
280.00 15.72
281.00 15.42
282.00 15.13
283.00 14.84
284.00 14.55
285.00 14.26
286.00 13.97
287.00 13.68
288.00 13.39
289.00 13.10
290.00 12.81
291.00 12.52
292.00 12.23
293.00 11.94
294.00 11.65
295.00 11.36
296.00 11.07
297.00 10.78
298.00 10.49
299.00 10.20
300.00 9.91
301.00 9.62
302.00 9.33
303.00 9.05
304.00 8.76
305.00 8.48
306.00 8.20
307.00 7.92
308.00 7.65
309.00 7.37
310.00 7.10
311.00 6.84
312.00 6.58
313.00 6.32
314.00 6.06
315.00 5.81
316.00 5.56
317.00 5.32
318.00 5.08
319.00 4.85
320.00 4.62
321.00 4.39
322.00 4.17
323.00 3.96
324.00 3.75
325.00 3.55
326.00 3.35
327.00 3.16
328.00 2.97
329.00 2.79
330.00 2.61
331.00 2.44
332.00 2.28
333.00 2.12
334.00 1.96
335.00 1.82
336.00 1.67
337.00 1.54
338.00 1.41
339.00 1.28
340.00 1.16
341.00 1.05
342.00 0.94
343.00 0.84
344.00 0.74
345.00 0.65
346.00 0.57
347.00 0.49
348.00 0.42
349.00 0.35
350.00 0.29
351.00 0.24
352.00 0.19
353.00 0.14
354.00 0.11
355.00 0.07
356.00 0.05
357.00 0.03
358.00 0.01
359.00 0.00
VERTICAL 360
0.00 2.68
1.00 1.44
2.00 0.61
3.00 0.13
4.00 0.00
5.00 0.21
6.00 0.76
7.00 1.66
8.00 2.96
9.00 4.71
10.00 7.04
11.00 10.14
12.00 14.49
13.00 21.38
14.00 33.63
15.00 24.81
16.00 21.46
17.00 21.06
18.00 22.75
19.00 27.14
20.00 35.54
21.00 27.65
22.00 22.27
23.00 19.47
24.00 18.02
25.00 17.51
26.00 17.78
27.00 18.82
28.00 20.68
29.00 23.52
30.00 27.30
31.00 29.98
32.00 28.65
33.00 26.70
34.00 25.81
35.00 26.07
36.00 27.64
37.00 31.31
38.00 40.57
39.00 34.12
40.00 26.81
41.00 22.83
42.00 20.32
43.00 18.74
44.00 17.85
45.00 17.51
46.00 17.61
47.00 18.03
48.00 18.66
49.00 19.38
50.00 20.14
51.00 20.99
52.00 22.05
53.00 23.49
54.00 25.51
55.00 28.31
56.00 31.97
57.00 35.74
58.00 37.14
59.00 36.70
60.00 36.57
61.00 36.76
62.00 36.49
63.00 35.37
64.00 33.91
65.00 32.77
66.00 32.35
67.00 32.85
68.00 34.35
69.00 36.35
70.00 36.87
71.00 35.35
72.00 33.69
73.00 32.56
74.00 31.87
75.00 31.59
76.00 31.77
77.00 32.21
78.00 32.19
79.00 31.13
80.00 29.65
81.00 28.51
82.00 27.94
83.00 27.91
84.00 28.28
85.00 28.88
86.00 29.46
87.00 29.69
88.00 29.45
89.00 28.99
90.00 28.65
91.00 28.53
92.00 28.51
93.00 28.47
94.00 28.46
95.00 28.64
96.00 29.13
97.00 29.87
98.00 30.63
99.00 31.15
100.00 31.27
101.00 31.08
102.00 30.81
103.00 30.74
104.00 31.03
105.00 31.75
106.00 32.84
107.00 34.09
108.00 35.20
109.00 35.74
110.00 35.54
111.00 34.88
112.00 34.22
113.00 33.89
114.00 33.96
115.00 34.39
116.00 35.14
117.00 36.16
118.00 37.35
119.00 38.44
120.00 39.17
121.00 39.78
122.00 40.91
123.00 43.33
124.00 47.81
125.00 48.89
126.00 43.09
127.00 38.98
128.00 36.23
129.00 34.29
130.00 32.82
131.00 31.69
132.00 30.77
133.00 30.02
134.00 29.47
135.00 29.18
136.00 29.25
137.00 29.79
138.00 30.90
139.00 32.72
140.00 35.31
141.00 37.92
142.00 37.86
143.00 35.48
144.00 33.29
145.00 31.80
146.00 30.89
147.00 30.44
148.00 30.36
149.00 30.57
150.00 31.04
151.00 31.72
152.00 32.54
153.00 33.49
154.00 34.57
155.00 35.89
156.00 37.65
157.00 40.14
158.00 43.84
159.00 49.94
160.00 61.79
161.00 54.02
162.00 50.02
163.00 49.33
164.00 51.12
165.00 55.80
166.00 52.94
167.00 46.46
168.00 42.40
169.00 39.73
170.00 37.97
171.00 36.92
172.00 36.48
173.00 36.61
174.00 37.25
175.00 38.38
176.00 40.00
177.00 40.93
178.00 42.55
179.00 45.11
180.00 48.07
181.00 48.19
182.00 46.62
183.00 46.66
184.00 49.94
185.00 68.06
186.00 49.27
187.00 42.49
188.00 38.98
189.00 36.90
190.00 35.64
191.00 34.85
192.00 34.34
193.00 34.02
194.00 33.92
195.00 34.10
196.00 34.62
197.00 35.52
198.00 36.82
199.00 38.44
200.00 40.16
201.00 41.53
202.00 42.08
203.00 41.67
204.00 40.76
205.00 40.02
206.00 40.05
207.00 41.24
208.00 43.93
209.00 47.01
210.00 44.98
211.00 41.35
212.00 38.97
213.00 37.52
214.00 36.57
215.00 35.83
216.00 35.16
217.00 34.53
218.00 33.92
219.00 33.32
220.00 32.71
221.00 32.16
222.00 31.80
223.00 31.79
224.00 32.27
225.00 33.32
226.00 34.87
227.00 36.45
228.00 37.25
229.00 36.98
230.00 36.29
231.00 35.68
232.00 35.19
233.00 34.55
234.00 33.52
235.00 32.18
236.00 30.90
237.00 29.99
238.00 29.56
239.00 29.60
240.00 30.03
241.00 30.71
242.00 31.48
243.00 32.13
244.00 32.36
245.00 32.10
246.00 31.62
247.00 31.27
248.00 31.28
249.00 31.66
250.00 32.29
251.00 32.95
252.00 33.44
253.00 33.66
254.00 33.73
255.00 33.86
256.00 34.22
257.00 34.87
258.00 35.72
259.00 36.58
260.00 37.28
261.00 37.75
262.00 37.96
263.00 37.99
264.00 38.12
265.00 38.71
266.00 40.10
267.00 42.56
268.00 46.27
269.00 50.03
270.00 49.54
271.00 47.27
272.00 45.72
273.00 44.64
274.00 43.42
275.00 41.67
276.00 39.53
277.00 37.40
278.00 35.58
279.00 34.16
280.00 33.19
281.00 32.66
282.00 32.59
283.00 32.99
284.00 33.86
285.00 35.20
286.00 36.98
287.00 39.11
288.00 41.49
289.00 44.21
290.00 47.94
291.00 52.26
292.00 47.28
293.00 41.66
294.00 38.07
295.00 35.81
296.00 34.54
297.00 34.09
298.00 34.37
299.00 35.31
300.00 36.95
301.00 39.50
302.00 44.19
303.00 57.73
304.00 41.66
305.00 34.17
306.00 29.32
307.00 25.75
308.00 23.02
309.00 20.94
310.00 19.39
311.00 18.29
312.00 17.57
313.00 17.17
314.00 17.04
315.00 17.13
316.00 17.40
317.00 17.84
318.00 18.48
319.00 19.37
320.00 20.62
321.00 22.37
322.00 24.80
323.00 28.23
324.00 33.00
325.00 37.11
326.00 35.62
327.00 33.93
328.00 34.13
329.00 36.46
330.00 42.05
331.00 46.78
332.00 39.02
333.00 34.97
334.00 32.60
335.00 30.79
336.00 29.06
337.00 27.33
338.00 25.71
339.00 24.27
340.00 23.10
341.00 22.24
342.00 21.80
343.00 21.91
344.00 22.78
345.00 24.80
346.00 29.00
347.00 40.45
348.00 33.20
349.00 26.45
350.00 23.66
351.00 22.99
352.00 24.60
353.00 31.11
354.00 28.84
355.00 18.83
356.00 13.29
357.00 9.44
358.00 6.56
359.00 4.36
