NAME ATR4518R7_2350_X_CO_P45_08T_yyR
FREQUENCY 2350
GAIN 14.98 dBd
TILT	ELECTRICAL
COMMENT DATE 05.08.2013 +45 degrees polarized system Lever position 08T deg
HORIZONTAL 360
0.00 0.05
1.00 0.07
2.00 0.10
3.00 0.13
4.00 0.17
5.00 0.20
6.00 0.24
7.00 0.28
8.00 0.33
9.00 0.38
10.00 0.43
11.00 0.48
12.00 0.54
13.00 0.60
14.00 0.67
15.00 0.74
16.00 0.81
17.00 0.89
18.00 0.98
19.00 1.08
20.00 1.18
21.00 1.28
22.00 1.40
23.00 1.52
24.00 1.65
25.00 1.78
26.00 1.93
27.00 2.08
28.00 2.24
29.00 2.40
30.00 2.58
31.00 2.76
32.00 2.94
33.00 3.13
34.00 3.33
35.00 3.54
36.00 3.75
37.00 3.96
38.00 4.18
39.00 4.41
40.00 4.65
41.00 4.88
42.00 5.13
43.00 5.38
44.00 5.64
45.00 5.90
46.00 6.18
47.00 6.46
48.00 6.75
49.00 7.05
50.00 7.36
51.00 7.68
52.00 8.01
53.00 8.35
54.00 8.71
55.00 9.08
56.00 9.46
57.00 9.85
58.00 10.26
59.00 10.68
60.00 11.12
61.00 11.57
62.00 12.03
63.00 12.50
64.00 12.98
65.00 13.47
66.00 13.97
67.00 14.48
68.00 14.99
69.00 15.51
70.00 16.04
71.00 16.57
72.00 17.10
73.00 17.64
74.00 18.18
75.00 18.73
76.00 19.29
77.00 19.86
78.00 20.45
79.00 21.06
80.00 21.68
81.00 22.34
82.00 23.02
83.00 23.74
84.00 24.51
85.00 25.31
86.00 26.16
87.00 27.06
88.00 28.00
89.00 28.97
90.00 29.96
91.00 30.93
92.00 31.83
93.00 32.60
94.00 33.17
95.00 33.52
96.00 33.64
97.00 33.60
98.00 33.45
99.00 33.27
100.00 33.09
101.00 32.97
102.00 32.92
103.00 32.95
104.00 33.09
105.00 33.34
106.00 33.71
107.00 34.21
108.00 34.84
109.00 35.64
110.00 36.61
111.00 37.76
112.00 39.11
113.00 40.63
114.00 42.15
115.00 43.30
116.00 43.51
117.00 42.71
118.00 41.36
119.00 39.94
120.00 38.66
121.00 37.56
122.00 36.64
123.00 35.89
124.00 35.29
125.00 34.82
126.00 34.47
127.00 34.22
128.00 34.07
129.00 34.02
130.00 34.05
131.00 34.17
132.00 34.38
133.00 34.67
134.00 35.05
135.00 35.52
136.00 36.09
137.00 36.76
138.00 37.51
139.00 38.34
140.00 39.19
141.00 39.96
142.00 40.49
143.00 40.60
144.00 40.23
145.00 39.47
146.00 38.50
147.00 37.48
148.00 36.52
149.00 35.65
150.00 34.90
151.00 34.27
152.00 33.77
153.00 33.40
154.00 33.14
155.00 33.01
156.00 32.99
157.00 33.11
158.00 33.34
159.00 33.72
160.00 34.23
161.00 34.88
162.00 35.69
163.00 36.65
164.00 37.76
165.00 38.98
166.00 40.21
167.00 41.26
168.00 41.84
169.00 41.80
170.00 41.25
171.00 40.47
172.00 39.68
173.00 38.99
174.00 38.47
175.00 38.12
176.00 37.94
177.00 37.93
178.00 38.09
179.00 38.41
180.00 38.87
181.00 39.48
182.00 40.20
183.00 40.99
184.00 41.78
185.00 42.48
186.00 42.98
187.00 43.21
188.00 43.16
189.00 42.92
190.00 42.56
191.00 42.16
192.00 41.75
193.00 41.32
194.00 40.86
195.00 40.33
196.00 39.71
197.00 39.00
198.00 38.22
199.00 37.40
200.00 36.59
201.00 35.81
202.00 35.10
203.00 34.47
204.00 33.94
205.00 33.52
206.00 33.21
207.00 33.03
208.00 32.97
209.00 33.03
210.00 33.24
211.00 33.58
212.00 34.07
213.00 34.71
214.00 35.49
215.00 36.37
216.00 37.30
217.00 38.09
218.00 38.55
219.00 38.47
220.00 37.89
221.00 37.00
222.00 36.02
223.00 35.09
224.00 34.29
225.00 33.63
226.00 33.13
227.00 32.79
228.00 32.61
229.00 32.58
230.00 32.72
231.00 33.01
232.00 33.49
233.00 34.16
234.00 35.05
235.00 36.20
236.00 37.66
237.00 39.50
238.00 41.78
239.00 44.17
240.00 45.27
241.00 43.80
242.00 41.30
243.00 39.00
244.00 37.10
245.00 35.54
246.00 34.25
247.00 33.17
248.00 32.24
249.00 31.45
250.00 30.77
251.00 30.17
252.00 29.64
253.00 29.18
254.00 28.77
255.00 28.41
256.00 28.10
257.00 27.83
258.00 27.60
259.00 27.41
260.00 27.26
261.00 27.14
262.00 27.05
263.00 26.98
264.00 26.94
265.00 26.90
266.00 26.86
267.00 26.80
268.00 26.71
269.00 26.57
270.00 26.38
271.00 26.13
272.00 25.80
273.00 25.41
274.00 24.97
275.00 24.48
276.00 23.95
277.00 23.40
278.00 22.83
279.00 22.27
280.00 21.70
281.00 21.15
282.00 20.60
283.00 20.06
284.00 19.54
285.00 19.03
286.00 18.53
287.00 18.05
288.00 17.57
289.00 17.11
290.00 16.66
291.00 16.21
292.00 15.78
293.00 15.34
294.00 14.92
295.00 14.50
296.00 14.09
297.00 13.68
298.00 13.28
299.00 12.89
300.00 12.49
301.00 12.11
302.00 11.73
303.00 11.36
304.00 10.99
305.00 10.64
306.00 10.29
307.00 9.95
308.00 9.61
309.00 9.28
310.00 8.96
311.00 8.65
312.00 8.35
313.00 8.05
314.00 7.76
315.00 7.47
316.00 7.19
317.00 6.91
318.00 6.64
319.00 6.37
320.00 6.10
321.00 5.83
322.00 5.57
323.00 5.31
324.00 5.05
325.00 4.78
326.00 4.53
327.00 4.27
328.00 4.01
329.00 3.75
330.00 3.50
331.00 3.25
332.00 3.01
333.00 2.77
334.00 2.54
335.00 2.31
336.00 2.09
337.00 1.88
338.00 1.68
339.00 1.49
340.00 1.31
341.00 1.14
342.00 0.98
343.00 0.84
344.00 0.70
345.00 0.58
346.00 0.47
347.00 0.38
348.00 0.29
349.00 0.22
350.00 0.16
351.00 0.11
352.00 0.07
353.00 0.04
354.00 0.02
355.00 0.01
356.00 0.00
357.00 0.01
358.00 0.02
359.00 0.03
VERTICAL 360
0.00 29.91
1.00 25.71
2.00 19.64
3.00 12.64
4.00 7.52
5.00 4.00
6.00 1.68
7.00 0.37
8.00 0.00
9.00 0.62
10.00 2.44
11.00 6.01
12.00 13.26
13.00 26.32
14.00 13.65
15.00 10.96
16.00 11.60
17.00 14.81
18.00 19.05
19.00 17.87
20.00 15.66
21.00 15.70
22.00 17.82
23.00 21.46
24.00 22.13
25.00 18.87
26.00 17.02
27.00 17.51
28.00 21.23
29.00 31.38
30.00 25.41
31.00 20.02
32.00 18.53
33.00 18.76
34.00 20.33
35.00 23.93
36.00 32.76
37.00 36.70
38.00 28.32
39.00 26.88
40.00 28.57
41.00 34.18
42.00 47.16
43.00 32.81
44.00 28.63
45.00 28.06
46.00 30.68
47.00 38.04
48.00 34.08
49.00 27.81
50.00 25.24
51.00 24.25
52.00 23.96
53.00 24.40
54.00 26.22
55.00 30.10
56.00 33.13
57.00 29.73
58.00 27.03
59.00 25.97
60.00 25.84
61.00 26.28
62.00 27.18
63.00 28.50
64.00 30.07
65.00 31.56
66.00 32.72
67.00 33.57
68.00 34.30
69.00 34.97
70.00 35.43
71.00 35.31
72.00 34.33
73.00 32.68
74.00 30.99
75.00 29.78
76.00 29.11
77.00 28.59
78.00 27.81
79.00 27.01
80.00 26.69
81.00 27.12
82.00 28.20
83.00 29.27
84.00 28.84
85.00 27.01
86.00 25.50
87.00 25.29
88.00 26.29
89.00 27.70
90.00 28.40
91.00 27.96
92.00 27.24
93.00 27.40
94.00 28.61
95.00 29.78
96.00 29.48
97.00 28.19
98.00 27.36
99.00 28.04
100.00 30.67
101.00 34.79
102.00 36.48
103.00 34.48
104.00 33.57
105.00 35.47
106.00 41.30
107.00 48.28
108.00 48.21
109.00 50.71
110.00 49.45
111.00 47.56
112.00 42.83
113.00 39.75
114.00 39.14
115.00 39.82
116.00 40.27
117.00 39.32
118.00 38.55
119.00 38.95
120.00 39.17
121.00 39.52
122.00 40.72
123.00 39.20
124.00 37.39
125.00 37.96
126.00 38.76
127.00 38.37
128.00 39.84
129.00 44.31
130.00 46.36
131.00 45.43
132.00 45.73
133.00 44.65
134.00 42.31
135.00 39.05
136.00 36.33
137.00 34.94
138.00 34.50
139.00 34.56
140.00 35.32
141.00 37.66
142.00 43.65
143.00 60.23
144.00 44.79
145.00 41.82
146.00 42.82
147.00 46.64
148.00 49.94
149.00 47.38
150.00 42.13
151.00 37.55
152.00 35.08
153.00 34.85
154.00 37.07
155.00 43.18
156.00 57.52
157.00 44.93
158.00 41.21
159.00 40.80
160.00 43.37
161.00 42.49
162.00 35.88
163.00 32.65
164.00 32.38
165.00 34.86
166.00 40.60
167.00 44.75
168.00 39.05
169.00 36.04
170.00 35.59
171.00 36.79
172.00 37.94
173.00 38.34
174.00 39.47
175.00 42.02
176.00 45.26
177.00 48.19
178.00 51.41
179.00 49.10
180.00 44.34
181.00 42.26
182.00 41.77
183.00 41.63
184.00 42.10
185.00 43.28
186.00 41.24
187.00 38.43
188.00 38.03
189.00 38.16
190.00 36.78
191.00 36.90
192.00 38.63
193.00 36.54
194.00 34.40
195.00 35.19
196.00 38.25
197.00 42.16
198.00 46.08
199.00 46.63
200.00 47.95
201.00 43.37
202.00 37.90
203.00 37.42
204.00 41.35
205.00 43.36
206.00 40.58
207.00 40.81
208.00 42.74
209.00 48.35
210.00 46.02
211.00 38.77
212.00 37.40
213.00 40.13
214.00 48.49
215.00 51.97
216.00 42.89
217.00 38.83
218.00 36.62
219.00 35.23
220.00 34.10
221.00 33.22
222.00 32.95
223.00 33.49
224.00 34.29
225.00 34.52
226.00 34.62
227.00 35.24
228.00 36.20
229.00 36.85
230.00 36.84
231.00 36.51
232.00 36.21
233.00 36.27
234.00 36.88
235.00 37.22
236.00 35.86
237.00 33.40
238.00 31.25
239.00 29.97
240.00 29.58
241.00 29.78
242.00 30.26
243.00 30.95
244.00 32.15
245.00 34.33
246.00 37.08
247.00 38.11
248.00 37.47
249.00 37.02
250.00 37.12
251.00 37.53
252.00 37.19
253.00 36.56
254.00 36.93
255.00 37.50
256.00 37.20
257.00 37.23
258.00 38.01
259.00 38.24
260.00 37.05
261.00 35.77
262.00 35.95
263.00 38.19
264.00 41.57
265.00 41.76
266.00 37.29
267.00 33.15
268.00 31.24
269.00 31.69
270.00 34.59
271.00 41.07
272.00 48.23
273.00 38.82
274.00 34.55
275.00 32.66
276.00 32.03
277.00 32.56
278.00 34.95
279.00 40.48
280.00 46.30
281.00 44.92
282.00 46.18
283.00 41.03
284.00 36.47
285.00 35.06
286.00 35.30
287.00 34.78
288.00 32.57
289.00 29.85
290.00 27.19
291.00 24.71
292.00 22.47
293.00 20.49
294.00 18.75
295.00 17.23
296.00 15.92
297.00 14.85
298.00 14.09
299.00 13.65
300.00 13.55
301.00 13.79
302.00 14.41
303.00 15.51
304.00 17.25
305.00 19.89
306.00 23.67
307.00 27.55
308.00 25.33
309.00 21.66
310.00 19.82
311.00 19.37
312.00 20.27
313.00 22.75
314.00 26.60
315.00 27.29
316.00 24.42
317.00 23.13
318.00 24.25
319.00 29.41
320.00 43.12
321.00 25.97
322.00 21.09
323.00 19.27
324.00 19.43
325.00 21.70
326.00 28.34
327.00 35.02
328.00 22.82
329.00 18.83
330.00 17.68
331.00 18.59
332.00 21.49
333.00 24.31
334.00 20.90
335.00 16.76
336.00 14.28
337.00 13.16
338.00 13.25
339.00 14.41
340.00 16.40
341.00 18.75
342.00 21.10
343.00 23.73
344.00 25.58
345.00 23.68
346.00 21.08
347.00 20.08
348.00 20.94
349.00 24.02
350.00 28.20
351.00 25.19
352.00 21.27
353.00 19.84
354.00 20.46
355.00 22.46
356.00 24.10
357.00 25.05
358.00 28.84
359.00 39.77
