NAME ATR4518R7_1880_X_CO_P45_02T_yyR
FREQUENCY 1880
GAIN 14.95 dBd
TILT	ELECTRICAL
COMMENT DATE 05.08.2013 +45 degrees polarized system Lever position 02T deg
HORIZONTAL 360
0.00 0.10
1.00 0.07
2.00 0.05
3.00 0.03
4.00 0.02
5.00 0.01
6.00 0.00
7.00 0.01
8.00 0.01
9.00 0.03
10.00 0.05
11.00 0.07
12.00 0.10
13.00 0.14
14.00 0.19
15.00 0.25
16.00 0.31
17.00 0.38
18.00 0.46
19.00 0.55
20.00 0.65
21.00 0.75
22.00 0.87
23.00 1.00
24.00 1.13
25.00 1.28
26.00 1.44
27.00 1.61
28.00 1.78
29.00 1.97
30.00 2.17
31.00 2.38
32.00 2.59
33.00 2.82
34.00 3.05
35.00 3.30
36.00 3.55
37.00 3.81
38.00 4.07
39.00 4.34
40.00 4.62
41.00 4.90
42.00 5.18
43.00 5.47
44.00 5.77
45.00 6.06
46.00 6.36
47.00 6.65
48.00 6.95
49.00 7.25
50.00 7.55
51.00 7.86
52.00 8.15
53.00 8.46
54.00 8.76
55.00 9.06
56.00 9.37
57.00 9.68
58.00 9.99
59.00 10.30
60.00 10.61
61.00 10.93
62.00 11.24
63.00 11.56
64.00 11.89
65.00 12.21
66.00 12.54
67.00 12.88
68.00 13.21
69.00 13.55
70.00 13.89
71.00 14.24
72.00 14.58
73.00 14.93
74.00 15.28
75.00 15.63
76.00 15.98
77.00 16.34
78.00 16.70
79.00 17.06
80.00 17.42
81.00 17.78
82.00 18.15
83.00 18.53
84.00 18.91
85.00 19.30
86.00 19.69
87.00 20.09
88.00 20.50
89.00 20.92
90.00 21.35
91.00 21.78
92.00 22.23
93.00 22.68
94.00 23.14
95.00 23.60
96.00 24.08
97.00 24.55
98.00 25.02
99.00 25.49
100.00 25.95
101.00 26.40
102.00 26.84
103.00 27.25
104.00 27.65
105.00 28.01
106.00 28.35
107.00 28.66
108.00 28.95
109.00 29.20
110.00 29.43
111.00 29.65
112.00 29.84
113.00 30.03
114.00 30.22
115.00 30.40
116.00 30.59
117.00 30.79
118.00 31.01
119.00 31.26
120.00 31.52
121.00 31.83
122.00 32.17
123.00 32.55
124.00 32.99
125.00 33.48
126.00 34.04
127.00 34.67
128.00 35.39
129.00 36.21
130.00 37.13
131.00 38.20
132.00 39.41
133.00 40.80
134.00 42.38
135.00 44.14
136.00 45.93
137.00 47.34
138.00 47.78
139.00 47.10
140.00 45.86
141.00 44.56
142.00 43.43
143.00 42.52
144.00 41.82
145.00 41.34
146.00 41.04
147.00 40.94
148.00 41.02
149.00 41.30
150.00 41.79
151.00 42.50
152.00 43.47
153.00 44.74
154.00 46.31
155.00 48.03
156.00 49.30
157.00 49.02
158.00 47.24
159.00 45.06
160.00 43.05
161.00 41.33
162.00 39.89
163.00 38.69
164.00 37.69
165.00 36.86
166.00 36.19
167.00 35.66
168.00 35.25
169.00 34.97
170.00 34.79
171.00 34.73
172.00 34.78
173.00 34.94
174.00 35.20
175.00 35.56
176.00 36.03
177.00 36.58
178.00 37.21
179.00 37.87
180.00 38.47
181.00 38.93
182.00 39.11
183.00 38.95
184.00 38.45
185.00 37.74
186.00 36.91
187.00 36.06
188.00 35.26
189.00 34.53
190.00 33.89
191.00 33.34
192.00 32.89
193.00 32.52
194.00 32.24
195.00 32.05
196.00 31.94
197.00 31.91
198.00 31.96
199.00 32.07
200.00 32.25
201.00 32.48
202.00 32.76
203.00 33.06
204.00 33.37
205.00 33.66
206.00 33.89
207.00 34.03
208.00 34.05
209.00 33.94
210.00 33.71
211.00 33.38
212.00 32.97
213.00 32.52
214.00 32.07
215.00 31.63
216.00 31.21
217.00 30.83
218.00 30.49
219.00 30.21
220.00 29.98
221.00 29.79
222.00 29.66
223.00 29.58
224.00 29.55
225.00 29.56
226.00 29.62
227.00 29.72
228.00 29.86
229.00 30.04
230.00 30.24
231.00 30.48
232.00 30.74
233.00 31.02
234.00 31.31
235.00 31.61
236.00 31.90
237.00 32.19
238.00 32.46
239.00 32.71
240.00 32.93
241.00 33.13
242.00 33.30
243.00 33.43
244.00 33.54
245.00 33.62
246.00 33.67
247.00 33.70
248.00 33.71
249.00 33.70
250.00 33.67
251.00 33.61
252.00 33.54
253.00 33.44
254.00 33.31
255.00 33.16
256.00 32.97
257.00 32.76
258.00 32.50
259.00 32.22
260.00 31.91
261.00 31.56
262.00 31.18
263.00 30.78
264.00 30.35
265.00 29.90
266.00 29.42
267.00 28.93
268.00 28.42
269.00 27.90
270.00 27.37
271.00 26.82
272.00 26.28
273.00 25.72
274.00 25.17
275.00 24.61
276.00 24.06
277.00 23.51
278.00 22.96
279.00 22.42
280.00 21.88
281.00 21.35
282.00 20.83
283.00 20.32
284.00 19.81
285.00 19.31
286.00 18.82
287.00 18.34
288.00 17.87
289.00 17.40
290.00 16.94
291.00 16.49
292.00 16.05
293.00 15.61
294.00 15.18
295.00 14.76
296.00 14.34
297.00 13.93
298.00 13.53
299.00 13.13
300.00 12.73
301.00 12.34
302.00 11.96
303.00 11.58
304.00 11.21
305.00 10.85
306.00 10.48
307.00 10.13
308.00 9.78
309.00 9.43
310.00 9.09
311.00 8.76
312.00 8.43
313.00 8.10
314.00 7.79
315.00 7.47
316.00 7.17
317.00 6.87
318.00 6.57
319.00 6.28
320.00 6.00
321.00 5.72
322.00 5.45
323.00 5.19
324.00 4.93
325.00 4.68
326.00 4.44
327.00 4.20
328.00 3.97
329.00 3.75
330.00 3.54
331.00 3.33
332.00 3.13
333.00 2.93
334.00 2.74
335.00 2.56
336.00 2.39
337.00 2.22
338.00 2.06
339.00 1.91
340.00 1.76
341.00 1.63
342.00 1.49
343.00 1.37
344.00 1.25
345.00 1.13
346.00 1.02
347.00 0.92
348.00 0.83
349.00 0.74
350.00 0.66
351.00 0.58
352.00 0.50
353.00 0.44
354.00 0.37
355.00 0.32
356.00 0.26
357.00 0.22
358.00 0.17
359.00 0.14
VERTICAL 360
0.00 1.60
1.00 0.45
2.00 0.00
3.00 0.23
4.00 1.21
5.00 3.09
6.00 6.16
7.00 11.12
8.00 19.86
9.00 22.17
10.00 16.84
11.00 15.74
12.00 17.25
13.00 21.60
14.00 26.88
15.00 22.15
16.00 18.28
17.00 17.09
18.00 17.91
19.00 20.86
20.00 26.33
21.00 27.32
22.00 22.65
23.00 20.34
24.00 19.92
25.00 21.03
26.00 24.06
27.00 31.88
28.00 38.08
29.00 25.11
30.00 20.90
31.00 19.09
32.00 18.77
33.00 19.65
34.00 21.52
35.00 24.05
36.00 26.58
37.00 28.59
38.00 30.25
39.00 31.70
40.00 32.19
41.00 31.04
42.00 28.92
43.00 26.82
44.00 25.27
45.00 24.51
46.00 24.71
47.00 26.02
48.00 28.73
49.00 32.88
50.00 34.67
51.00 31.24
52.00 28.16
53.00 26.14
54.00 24.74
55.00 23.71
56.00 23.00
57.00 22.68
58.00 22.85
59.00 23.62
60.00 25.06
61.00 27.19
62.00 30.01
63.00 33.37
64.00 36.68
65.00 38.47
66.00 38.20
67.00 37.33
68.00 37.03
69.00 37.65
70.00 38.95
71.00 39.64
72.00 38.61
73.00 36.99
74.00 35.89
75.00 35.19
76.00 34.10
77.00 32.31
78.00 30.25
79.00 28.32
80.00 26.82
81.00 25.86
82.00 25.46
83.00 25.45
84.00 25.64
85.00 25.88
86.00 26.16
87.00 26.71
88.00 27.92
89.00 30.35
90.00 34.42
91.00 37.95
92.00 35.12
93.00 31.77
94.00 30.29
95.00 30.54
96.00 32.52
97.00 36.16
98.00 40.62
99.00 43.39
100.00 42.32
101.00 39.83
102.00 38.90
103.00 39.97
104.00 41.92
105.00 42.45
106.00 41.86
107.00 41.32
108.00 40.82
109.00 40.67
110.00 40.90
111.00 41.02
112.00 41.01
113.00 41.26
114.00 41.66
115.00 41.94
116.00 42.31
117.00 43.06
118.00 44.30
119.00 45.94
120.00 47.34
121.00 47.92
122.00 48.54
123.00 50.17
124.00 51.98
125.00 51.59
126.00 49.88
127.00 48.85
128.00 49.19
129.00 51.14
130.00 53.87
131.00 54.20
132.00 52.96
133.00 53.55
134.00 58.72
135.00 57.41
136.00 47.70
137.00 43.06
138.00 41.01
139.00 40.69
140.00 40.94
141.00 39.91
142.00 38.02
143.00 36.96
144.00 37.21
145.00 38.23
146.00 38.58
147.00 37.80
148.00 37.05
149.00 36.64
150.00 36.17
151.00 35.82
152.00 36.30
153.00 38.15
154.00 41.43
155.00 44.95
156.00 46.28
157.00 45.69
158.00 44.78
159.00 43.09
160.00 39.28
161.00 35.48
162.00 33.34
163.00 33.12
164.00 34.99
165.00 39.45
166.00 47.54
167.00 51.10
168.00 45.38
169.00 41.13
170.00 38.63
171.00 37.60
172.00 37.12
173.00 36.53
174.00 35.94
175.00 35.46
176.00 35.07
177.00 35.28
178.00 36.49
179.00 38.47
180.00 40.10
181.00 43.05
182.00 55.37
183.00 47.39
184.00 40.30
185.00 38.56
186.00 39.48
187.00 42.32
188.00 44.04
189.00 40.33
190.00 36.66
191.00 35.18
192.00 35.96
193.00 39.15
194.00 44.01
195.00 45.81
196.00 46.09
197.00 48.43
198.00 52.00
199.00 47.06
200.00 39.37
201.00 35.26
202.00 33.81
203.00 34.55
204.00 36.85
205.00 38.71
206.00 39.22
207.00 40.70
208.00 42.63
209.00 41.01
210.00 38.83
211.00 38.64
212.00 40.77
213.00 46.06
214.00 46.59
215.00 39.72
216.00 35.92
217.00 34.06
218.00 33.50
219.00 33.98
220.00 35.47
221.00 38.15
222.00 42.08
223.00 45.65
224.00 46.16
225.00 46.22
226.00 47.49
227.00 49.28
228.00 49.45
229.00 46.82
230.00 44.83
231.00 45.64
232.00 50.11
233.00 48.42
234.00 42.46
235.00 39.78
236.00 39.02
237.00 39.31
238.00 40.21
239.00 42.14
240.00 47.63
241.00 61.55
242.00 43.15
243.00 38.46
244.00 37.03
245.00 37.65
246.00 39.88
247.00 43.18
248.00 45.90
249.00 46.62
250.00 47.81
251.00 51.60
252.00 51.99
253.00 47.95
254.00 46.51
255.00 46.36
256.00 46.44
257.00 47.81
258.00 51.26
259.00 55.60
260.00 60.30
261.00 50.64
262.00 44.06
263.00 41.47
264.00 40.94
265.00 40.87
266.00 39.98
267.00 37.98
268.00 35.44
269.00 33.47
270.00 32.50
271.00 32.23
272.00 32.12
273.00 32.00
274.00 31.59
275.00 30.39
276.00 28.74
277.00 27.38
278.00 26.44
279.00 25.81
280.00 25.47
281.00 25.44
282.00 25.65
283.00 25.88
284.00 25.86
285.00 25.45
286.00 24.80
287.00 24.25
288.00 23.98
289.00 24.02
290.00 24.29
291.00 24.77
292.00 25.55
293.00 26.76
294.00 28.31
295.00 29.40
296.00 28.97
297.00 27.46
298.00 25.98
299.00 24.97
300.00 24.56
301.00 24.86
302.00 26.02
303.00 28.20
304.00 31.54
305.00 35.70
306.00 36.81
307.00 32.94
308.00 29.04
309.00 26.14
310.00 24.00
311.00 22.41
312.00 21.29
313.00 20.66
314.00 20.51
315.00 20.80
316.00 21.39
317.00 21.95
318.00 22.10
319.00 21.69
320.00 21.00
321.00 20.34
322.00 19.88
323.00 19.56
324.00 19.26
325.00 18.87
326.00 18.47
327.00 18.31
328.00 18.76
329.00 20.25
330.00 23.46
331.00 29.47
332.00 30.23
333.00 24.51
334.00 21.81
335.00 21.26
336.00 22.61
337.00 26.66
338.00 36.55
339.00 29.88
340.00 23.24
341.00 20.55
342.00 20.04
343.00 21.74
344.00 26.60
345.00 27.62
346.00 21.16
347.00 17.83
348.00 16.85
349.00 17.84
350.00 21.32
351.00 27.77
352.00 25.05
353.00 20.58
354.00 20.38
355.00 23.34
356.00 18.36
357.00 11.09
358.00 6.52
359.00 3.54
