NAME ATR4518R7_0880_X_CO_P45_07T
FREQUENCY 0880
GAIN 14.68 dBd
TILT	ELECTRICAL
COMMENT DATE 05.08.2013 +45 degrees polarized system Lever position 07T deg
HORIZONTAL 360
0.00 0.02
1.00 0.01
2.00 0.00
3.00 0.00
4.00 0.01
5.00 0.03
6.00 0.05
7.00 0.08
8.00 0.11
9.00 0.15
10.00 0.19
11.00 0.25
12.00 0.31
13.00 0.37
14.00 0.44
15.00 0.52
16.00 0.60
17.00 0.69
18.00 0.79
19.00 0.89
20.00 1.00
21.00 1.11
22.00 1.23
23.00 1.36
24.00 1.49
25.00 1.63
26.00 1.77
27.00 1.93
28.00 2.08
29.00 2.25
30.00 2.42
31.00 2.59
32.00 2.77
33.00 2.96
34.00 3.15
35.00 3.35
36.00 3.55
37.00 3.76
38.00 3.98
39.00 4.20
40.00 4.42
41.00 4.66
42.00 4.89
43.00 5.14
44.00 5.38
45.00 5.64
46.00 5.90
47.00 6.16
48.00 6.42
49.00 6.70
50.00 6.98
51.00 7.26
52.00 7.55
53.00 7.84
54.00 8.13
55.00 8.43
56.00 8.74
57.00 9.05
58.00 9.36
59.00 9.68
60.00 10.01
61.00 10.33
62.00 10.66
63.00 11.00
64.00 11.34
65.00 11.69
66.00 12.04
67.00 12.39
68.00 12.75
69.00 13.12
70.00 13.49
71.00 13.86
72.00 14.24
73.00 14.63
74.00 15.02
75.00 15.42
76.00 15.82
77.00 16.23
78.00 16.64
79.00 17.06
80.00 17.48
81.00 17.91
82.00 18.35
83.00 18.79
84.00 19.24
85.00 19.69
86.00 20.15
87.00 20.60
88.00 21.06
89.00 21.52
90.00 21.98
91.00 22.44
92.00 22.89
93.00 23.33
94.00 23.77
95.00 24.19
96.00 24.59
97.00 24.98
98.00 25.34
99.00 25.68
100.00 26.00
101.00 26.28
102.00 26.53
103.00 26.76
104.00 26.94
105.00 27.11
106.00 27.24
107.00 27.35
108.00 27.44
109.00 27.51
110.00 27.56
111.00 27.60
112.00 27.63
113.00 27.66
114.00 27.68
115.00 27.71
116.00 27.73
117.00 27.76
118.00 27.79
119.00 27.82
120.00 27.87
121.00 27.92
122.00 27.98
123.00 28.05
124.00 28.13
125.00 28.22
126.00 28.32
127.00 28.43
128.00 28.56
129.00 28.69
130.00 28.84
131.00 29.00
132.00 29.18
133.00 29.37
134.00 29.57
135.00 29.79
136.00 30.03
137.00 30.28
138.00 30.55
139.00 30.84
140.00 31.14
141.00 31.47
142.00 31.82
143.00 32.20
144.00 32.60
145.00 33.03
146.00 33.49
147.00 33.99
148.00 34.53
149.00 35.11
150.00 35.74
151.00 36.42
152.00 37.16
153.00 37.97
154.00 38.87
155.00 39.84
156.00 40.93
157.00 42.10
158.00 43.36
159.00 44.65
160.00 45.81
161.00 46.60
162.00 46.73
163.00 46.14
164.00 45.10
165.00 43.87
166.00 42.64
167.00 41.49
168.00 40.44
169.00 39.48
170.00 38.62
171.00 37.85
172.00 37.15
173.00 36.52
174.00 35.96
175.00 35.44
176.00 34.97
177.00 34.55
178.00 34.17
179.00 33.83
180.00 33.53
181.00 33.25
182.00 33.01
183.00 32.80
184.00 32.62
185.00 32.47
186.00 32.33
187.00 32.23
188.00 32.15
189.00 32.09
190.00 32.05
191.00 32.04
192.00 32.04
193.00 32.07
194.00 32.11
195.00 32.17
196.00 32.25
197.00 32.35
198.00 32.46
199.00 32.58
200.00 32.71
201.00 32.86
202.00 33.01
203.00 33.16
204.00 33.32
205.00 33.48
206.00 33.63
207.00 33.78
208.00 33.91
209.00 34.03
210.00 34.13
211.00 34.21
212.00 34.27
213.00 34.30
214.00 34.30
215.00 34.27
216.00 34.22
217.00 34.15
218.00 34.05
219.00 33.94
220.00 33.80
221.00 33.66
222.00 33.49
223.00 33.33
224.00 33.16
225.00 32.98
226.00 32.80
227.00 32.62
228.00 32.45
229.00 32.27
230.00 32.09
231.00 31.92
232.00 31.75
233.00 31.59
234.00 31.42
235.00 31.26
236.00 31.10
237.00 30.94
238.00 30.78
239.00 30.62
240.00 30.46
241.00 30.30
242.00 30.13
243.00 29.96
244.00 29.79
245.00 29.61
246.00 29.43
247.00 29.24
248.00 29.04
249.00 28.84
250.00 28.62
251.00 28.40
252.00 28.16
253.00 27.92
254.00 27.66
255.00 27.40
256.00 27.12
257.00 26.82
258.00 26.52
259.00 26.20
260.00 25.88
261.00 25.54
262.00 25.19
263.00 24.83
264.00 24.46
265.00 24.08
266.00 23.69
267.00 23.30
268.00 22.90
269.00 22.50
270.00 22.09
271.00 21.68
272.00 21.27
273.00 20.85
274.00 20.44
275.00 20.03
276.00 19.61
277.00 19.20
278.00 18.79
279.00 18.39
280.00 17.98
281.00 17.58
282.00 17.18
283.00 16.79
284.00 16.40
285.00 16.02
286.00 15.64
287.00 15.26
288.00 14.89
289.00 14.52
290.00 14.16
291.00 13.80
292.00 13.45
293.00 13.10
294.00 12.75
295.00 12.41
296.00 12.07
297.00 11.74
298.00 11.41
299.00 11.09
300.00 10.77
301.00 10.46
302.00 10.14
303.00 9.83
304.00 9.53
305.00 9.23
306.00 8.93
307.00 8.64
308.00 8.35
309.00 8.07
310.00 7.79
311.00 7.51
312.00 7.24
313.00 6.97
314.00 6.71
315.00 6.45
316.00 6.19
317.00 5.94
318.00 5.69
319.00 5.45
320.00 5.21
321.00 4.98
322.00 4.75
323.00 4.52
324.00 4.31
325.00 4.09
326.00 3.88
327.00 3.68
328.00 3.48
329.00 3.28
330.00 3.09
331.00 2.91
332.00 2.73
333.00 2.55
334.00 2.38
335.00 2.22
336.00 2.06
337.00 1.91
338.00 1.76
339.00 1.62
340.00 1.49
341.00 1.36
342.00 1.23
343.00 1.12
344.00 1.00
345.00 0.90
346.00 0.80
347.00 0.70
348.00 0.61
349.00 0.53
350.00 0.45
351.00 0.38
352.00 0.32
353.00 0.26
354.00 0.20
355.00 0.16
356.00 0.12
357.00 0.08
358.00 0.05
359.00 0.03
VERTICAL 360
0.00 8.75
1.00 6.12
2.00 4.07
3.00 2.49
4.00 1.32
5.00 0.53
6.00 0.09
7.00 0.00
8.00 0.25
9.00 0.85
10.00 1.82
11.00 3.19
12.00 5.01
13.00 7.38
14.00 10.46
15.00 14.59
16.00 20.45
17.00 28.03
18.00 26.32
19.00 23.55
20.00 23.22
21.00 24.87
22.00 29.04
23.00 39.08
24.00 33.37
25.00 27.14
26.00 24.32
27.00 23.07
28.00 22.87
29.00 23.55
30.00 25.10
31.00 27.59
32.00 31.04
33.00 34.48
34.00 35.58
35.00 35.89
36.00 38.47
37.00 46.84
38.00 38.40
39.00 31.37
40.00 27.41
41.00 24.90
42.00 23.25
43.00 22.14
44.00 21.38
45.00 20.86
46.00 20.55
47.00 20.51
48.00 20.79
49.00 21.45
50.00 22.49
51.00 23.94
52.00 25.81
53.00 28.19
54.00 31.38
55.00 36.14
56.00 44.01
57.00 40.90
58.00 35.41
59.00 32.74
60.00 31.63
61.00 31.55
62.00 32.18
63.00 33.15
64.00 34.09
65.00 34.64
66.00 34.69
67.00 34.41
68.00 34.10
69.00 34.06
70.00 34.52
71.00 35.69
72.00 37.60
73.00 39.99
74.00 41.79
75.00 40.26
76.00 36.40
77.00 33.21
78.00 31.29
79.00 30.52
80.00 30.61
81.00 31.07
82.00 31.16
83.00 30.40
84.00 29.20
85.00 28.21
86.00 27.71
87.00 27.65
88.00 27.77
89.00 27.72
90.00 27.39
91.00 26.92
92.00 26.58
93.00 26.59
94.00 27.06
95.00 27.97
96.00 29.12
97.00 30.13
98.00 30.60
99.00 30.46
100.00 30.12
101.00 30.10
102.00 30.61
103.00 31.63
104.00 33.08
105.00 34.85
106.00 36.19
107.00 35.90
108.00 34.73
109.00 33.96
110.00 33.93
111.00 34.58
112.00 35.94
113.00 38.13
114.00 40.86
115.00 42.55
116.00 42.54
117.00 42.24
118.00 41.88
119.00 41.52
120.00 41.79
121.00 43.09
122.00 45.08
123.00 46.80
124.00 47.44
125.00 46.69
126.00 45.32
127.00 44.64
128.00 45.25
129.00 47.14
130.00 49.81
131.00 51.86
132.00 51.60
133.00 49.42
134.00 46.48
135.00 43.49
136.00 41.05
137.00 39.53
138.00 39.02
139.00 39.46
140.00 40.78
141.00 42.98
142.00 46.46
143.00 52.89
144.00 69.24
145.00 53.99
146.00 50.36
147.00 49.72
148.00 50.50
149.00 51.40
150.00 50.59
151.00 47.65
152.00 44.10
153.00 41.09
154.00 38.99
155.00 37.84
156.00 37.57
157.00 38.02
158.00 39.08
159.00 40.68
160.00 42.58
161.00 43.61
162.00 42.48
163.00 40.46
164.00 38.80
165.00 37.57
166.00 36.51
167.00 35.46
168.00 34.45
169.00 33.60
170.00 33.02
171.00 32.71
172.00 32.69
173.00 32.90
174.00 33.18
175.00 33.53
176.00 33.86
177.00 34.18
178.00 34.56
179.00 35.16
180.00 36.14
181.00 37.61
182.00 39.60
183.00 42.02
184.00 44.85
185.00 47.51
186.00 46.47
187.00 42.43
188.00 39.07
189.00 36.88
190.00 35.73
191.00 35.46
192.00 35.93
193.00 36.91
194.00 38.02
195.00 39.02
196.00 40.09
197.00 41.82
198.00 44.64
199.00 47.68
200.00 47.36
201.00 45.45
202.00 44.47
203.00 44.32
204.00 44.39
205.00 44.22
206.00 43.91
207.00 44.07
208.00 45.22
209.00 47.11
210.00 47.65
211.00 46.66
212.00 46.75
213.00 49.19
214.00 53.57
215.00 51.20
216.00 46.93
217.00 44.23
218.00 42.12
219.00 39.99
220.00 37.85
221.00 36.01
222.00 34.75
223.00 34.19
224.00 34.27
225.00 34.71
226.00 35.09
227.00 35.03
228.00 34.56
229.00 34.08
230.00 34.10
231.00 35.07
232.00 37.49
233.00 42.29
234.00 53.52
235.00 51.89
236.00 46.35
237.00 45.63
238.00 46.88
239.00 48.63
240.00 49.10
241.00 47.61
242.00 45.38
243.00 43.65
244.00 42.97
245.00 43.57
246.00 45.58
247.00 47.55
248.00 45.17
249.00 41.42
250.00 38.68
251.00 36.85
252.00 35.59
253.00 34.64
254.00 33.82
255.00 33.06
256.00 32.42
257.00 32.02
258.00 32.00
259.00 32.36
260.00 32.96
261.00 33.47
262.00 33.47
263.00 32.80
264.00 31.80
265.00 30.96
266.00 30.62
267.00 30.91
268.00 31.80
269.00 33.13
270.00 34.43
271.00 34.92
272.00 34.33
273.00 33.46
274.00 33.03
275.00 33.27
276.00 34.06
277.00 34.90
278.00 35.13
279.00 34.57
280.00 33.77
281.00 33.40
282.00 33.84
283.00 35.14
284.00 36.63
285.00 36.56
286.00 34.87
287.00 33.17
288.00 32.12
289.00 31.90
290.00 32.60
291.00 34.26
292.00 36.42
293.00 37.28
294.00 36.00
295.00 34.40
296.00 33.41
297.00 33.19
298.00 33.76
299.00 35.02
300.00 36.75
301.00 38.70
302.00 41.03
303.00 44.63
304.00 51.31
305.00 51.62
306.00 45.71
307.00 43.38
308.00 42.73
309.00 41.07
310.00 37.54
311.00 34.24
312.00 31.77
313.00 29.80
314.00 27.93
315.00 26.01
316.00 24.19
317.00 22.70
318.00 21.66
319.00 21.11
320.00 21.03
321.00 21.31
322.00 21.86
323.00 22.62
324.00 23.67
325.00 25.32
326.00 28.18
327.00 33.82
328.00 49.59
329.00 34.10
330.00 29.28
331.00 27.38
332.00 27.03
333.00 27.74
334.00 29.20
335.00 31.20
336.00 33.80
337.00 37.62
338.00 43.07
339.00 41.23
340.00 36.41
341.00 33.06
342.00 29.99
343.00 26.98
344.00 24.46
345.00 22.70
346.00 21.79
347.00 21.77
348.00 22.70
349.00 24.68
350.00 27.62
351.00 29.42
352.00 27.50
353.00 25.19
354.00 24.17
355.00 24.53
356.00 24.99
357.00 21.57
358.00 16.41
359.00 12.11
