NAME ATR4518R7_2140_X_CO_P45_03T_yyR
FREQUENCY 2140
GAIN 15.70 dBd
TILT	ELECTRICAL
COMMENT DATE 05.08.2013 +45 degrees polarized system Lever position 03T deg
HORIZONTAL 360
0.00 0.13
1.00 0.10
2.00 0.07
3.00 0.05
4.00 0.03
5.00 0.01
6.00 0.00
7.00 0.00
8.00 0.00
9.00 0.01
10.00 0.02
11.00 0.04
12.00 0.06
13.00 0.10
14.00 0.14
15.00 0.19
16.00 0.25
17.00 0.32
18.00 0.40
19.00 0.49
20.00 0.59
21.00 0.70
22.00 0.82
23.00 0.96
24.00 1.11
25.00 1.27
26.00 1.45
27.00 1.63
28.00 1.83
29.00 2.05
30.00 2.27
31.00 2.51
32.00 2.76
33.00 3.02
34.00 3.30
35.00 3.58
36.00 3.88
37.00 4.19
38.00 4.50
39.00 4.83
40.00 5.16
41.00 5.50
42.00 5.86
43.00 6.21
44.00 6.58
45.00 6.94
46.00 7.32
47.00 7.70
48.00 8.09
49.00 8.48
50.00 8.87
51.00 9.28
52.00 9.68
53.00 10.10
54.00 10.52
55.00 10.94
56.00 11.38
57.00 11.81
58.00 12.26
59.00 12.71
60.00 13.18
61.00 13.64
62.00 14.11
63.00 14.59
64.00 15.07
65.00 15.55
66.00 16.03
67.00 16.51
68.00 16.98
69.00 17.45
70.00 17.91
71.00 18.36
72.00 18.80
73.00 19.23
74.00 19.64
75.00 20.04
76.00 20.42
77.00 20.80
78.00 21.17
79.00 21.53
80.00 21.89
81.00 22.26
82.00 22.63
83.00 23.01
84.00 23.40
85.00 23.82
86.00 24.25
87.00 24.71
88.00 25.19
89.00 25.71
90.00 26.25
91.00 26.83
92.00 27.44
93.00 28.09
94.00 28.77
95.00 29.49
96.00 30.24
97.00 31.02
98.00 31.82
99.00 32.64
100.00 33.49
101.00 34.34
102.00 35.20
103.00 36.07
104.00 36.94
105.00 37.83
106.00 38.74
107.00 39.69
108.00 40.69
109.00 41.77
110.00 42.95
111.00 44.26
112.00 45.67
113.00 47.14
114.00 48.46
115.00 49.26
116.00 49.23
117.00 48.45
118.00 47.32
119.00 46.17
120.00 45.15
121.00 44.29
122.00 43.61
123.00 43.09
124.00 42.73
125.00 42.52
126.00 42.43
127.00 42.46
128.00 42.59
129.00 42.80
130.00 43.07
131.00 43.35
132.00 43.59
133.00 43.76
134.00 43.81
135.00 43.72
136.00 43.50
137.00 43.18
138.00 42.81
139.00 42.43
140.00 42.07
141.00 41.77
142.00 41.53
143.00 41.35
144.00 41.27
145.00 41.23
146.00 41.26
147.00 41.33
148.00 41.40
149.00 41.45
150.00 41.43
151.00 41.33
152.00 41.12
153.00 40.80
154.00 40.39
155.00 39.92
156.00 39.43
157.00 38.95
158.00 38.50
159.00 38.11
160.00 37.78
161.00 37.52
162.00 37.35
163.00 37.27
164.00 37.28
165.00 37.38
166.00 37.58
167.00 37.88
168.00 38.28
169.00 38.78
170.00 39.37
171.00 40.04
172.00 40.74
173.00 41.42
174.00 41.97
175.00 42.28
176.00 42.25
177.00 41.88
178.00 41.25
179.00 40.48
180.00 39.66
181.00 38.87
182.00 38.14
183.00 37.49
184.00 36.91
185.00 36.42
186.00 36.00
187.00 35.65
188.00 35.36
189.00 35.14
190.00 34.97
191.00 34.84
192.00 34.76
193.00 34.70
194.00 34.68
195.00 34.69
196.00 34.72
197.00 34.76
198.00 34.83
199.00 34.91
200.00 35.00
201.00 35.11
202.00 35.24
203.00 35.39
204.00 35.57
205.00 35.77
206.00 35.99
207.00 36.26
208.00 36.56
209.00 36.90
210.00 37.29
211.00 37.73
212.00 38.22
213.00 38.76
214.00 39.35
215.00 40.00
216.00 40.70
217.00 41.45
218.00 42.24
219.00 43.04
220.00 43.86
221.00 44.66
222.00 45.40
223.00 46.07
224.00 46.63
225.00 47.08
226.00 47.44
227.00 47.73
228.00 48.00
229.00 48.28
230.00 48.61
231.00 49.03
232.00 49.60
233.00 50.31
234.00 51.22
235.00 52.43
236.00 53.92
237.00 55.72
238.00 57.14
239.00 56.98
240.00 54.90
241.00 52.22
242.00 49.70
243.00 47.49
244.00 45.54
245.00 43.82
246.00 42.27
247.00 40.87
248.00 39.59
249.00 38.42
250.00 37.34
251.00 36.33
252.00 35.40
253.00 34.54
254.00 33.73
255.00 32.98
256.00 32.28
257.00 31.62
258.00 31.01
259.00 30.44
260.00 29.91
261.00 29.41
262.00 28.94
263.00 28.49
264.00 28.07
265.00 27.66
266.00 27.27
267.00 26.88
268.00 26.50
269.00 26.13
270.00 25.75
271.00 25.36
272.00 24.97
273.00 24.56
274.00 24.15
275.00 23.73
276.00 23.29
277.00 22.85
278.00 22.40
279.00 21.95
280.00 21.49
281.00 21.04
282.00 20.58
283.00 20.12
284.00 19.67
285.00 19.22
286.00 18.78
287.00 18.34
288.00 17.91
289.00 17.49
290.00 17.07
291.00 16.66
292.00 16.25
293.00 15.85
294.00 15.46
295.00 15.07
296.00 14.69
297.00 14.31
298.00 13.94
299.00 13.57
300.00 13.20
301.00 12.84
302.00 12.49
303.00 12.13
304.00 11.79
305.00 11.44
306.00 11.10
307.00 10.77
308.00 10.43
309.00 10.11
310.00 9.78
311.00 9.47
312.00 9.15
313.00 8.84
314.00 8.53
315.00 8.23
316.00 7.93
317.00 7.63
318.00 7.34
319.00 7.06
320.00 6.77
321.00 6.49
322.00 6.22
323.00 5.94
324.00 5.67
325.00 5.41
326.00 5.15
327.00 4.89
328.00 4.64
329.00 4.39
330.00 4.15
331.00 3.92
332.00 3.68
333.00 3.46
334.00 3.24
335.00 3.03
336.00 2.82
337.00 2.63
338.00 2.44
339.00 2.25
340.00 2.08
341.00 1.91
342.00 1.75
343.00 1.60
344.00 1.45
345.00 1.32
346.00 1.19
347.00 1.07
348.00 0.95
349.00 0.85
350.00 0.75
351.00 0.66
352.00 0.58
353.00 0.50
354.00 0.44
355.00 0.37
356.00 0.31
357.00 0.26
358.00 0.21
359.00 0.17
VERTICAL 360
0.00 3.74
1.00 1.62
2.00 0.39
3.00 0.00
4.00 0.47
5.00 1.89
6.00 4.51
7.00 8.98
8.00 17.69
9.00 25.01
10.00 16.25
11.00 14.69
12.00 16.55
13.00 21.71
14.00 22.19
15.00 17.11
16.00 15.12
17.00 15.68
18.00 18.93
19.00 26.57
20.00 26.07
21.00 19.52
22.00 17.00
23.00 16.53
24.00 17.56
25.00 19.96
26.00 23.38
27.00 25.37
28.00 23.69
29.00 21.58
30.00 20.56
31.00 20.70
32.00 21.83
33.00 23.41
34.00 24.52
35.00 24.91
36.00 25.11
37.00 24.76
38.00 23.27
39.00 21.42
40.00 20.15
41.00 19.80
42.00 20.54
43.00 22.52
44.00 25.92
45.00 29.74
46.00 30.20
47.00 28.44
48.00 27.24
49.00 26.52
50.00 25.97
51.00 25.77
52.00 26.29
53.00 27.88
54.00 30.58
55.00 33.92
56.00 36.93
57.00 38.41
58.00 37.30
59.00 35.50
60.00 34.63
61.00 34.56
62.00 34.64
63.00 34.29
64.00 33.67
65.00 33.24
66.00 33.13
67.00 33.12
68.00 32.95
69.00 32.50
70.00 31.91
71.00 31.35
72.00 30.80
73.00 30.16
74.00 29.45
75.00 28.73
76.00 28.04
77.00 27.35
78.00 26.68
79.00 26.14
80.00 25.82
81.00 25.69
82.00 25.60
83.00 25.47
84.00 25.51
85.00 26.16
86.00 27.85
87.00 30.71
88.00 33.80
89.00 34.54
90.00 32.17
91.00 29.42
92.00 28.08
93.00 28.53
94.00 30.59
95.00 33.25
96.00 34.46
97.00 33.44
98.00 32.01
99.00 31.98
100.00 34.05
101.00 38.00
102.00 40.69
103.00 39.50
104.00 37.70
105.00 37.40
106.00 39.68
107.00 45.36
108.00 51.33
109.00 49.23
110.00 44.32
111.00 41.33
112.00 41.08
113.00 42.84
114.00 45.10
115.00 46.19
116.00 45.99
117.00 46.15
118.00 44.35
119.00 40.04
120.00 37.29
121.00 36.45
122.00 36.66
123.00 36.91
124.00 36.74
125.00 36.62
126.00 37.18
127.00 38.50
128.00 39.78
129.00 39.92
130.00 39.04
131.00 38.36
132.00 38.80
133.00 40.49
134.00 42.75
135.00 44.20
136.00 44.13
137.00 43.53
138.00 43.06
139.00 42.19
140.00 41.84
141.00 43.22
142.00 43.94
143.00 41.78
144.00 40.94
145.00 43.10
146.00 49.84
147.00 53.51
148.00 47.27
149.00 46.49
150.00 46.91
151.00 45.08
152.00 44.76
153.00 47.44
154.00 49.05
155.00 43.91
156.00 37.32
157.00 33.41
158.00 32.43
159.00 34.55
160.00 40.56
161.00 45.44
162.00 43.01
163.00 41.35
164.00 39.17
165.00 37.88
166.00 36.83
167.00 36.09
168.00 37.21
169.00 39.39
170.00 39.25
171.00 39.72
172.00 40.71
173.00 37.04
174.00 34.36
175.00 33.99
176.00 34.59
177.00 35.50
178.00 37.34
179.00 39.40
180.00 41.11
181.00 46.06
182.00 52.04
183.00 43.20
184.00 40.96
185.00 42.04
186.00 44.41
187.00 46.07
188.00 46.32
189.00 45.16
190.00 43.11
191.00 41.49
192.00 40.69
193.00 39.88
194.00 38.94
195.00 38.99
196.00 40.64
197.00 43.89
198.00 47.76
199.00 47.45
200.00 46.10
201.00 51.07
202.00 50.46
203.00 40.59
204.00 37.33
205.00 37.29
206.00 39.77
207.00 42.17
208.00 40.38
209.00 39.87
210.00 45.35
211.00 53.01
212.00 38.99
213.00 35.83
214.00 35.80
215.00 37.37
216.00 38.42
217.00 37.04
218.00 35.04
219.00 34.30
220.00 35.34
221.00 38.21
222.00 41.94
223.00 43.48
224.00 42.79
225.00 42.07
226.00 41.20
227.00 39.48
228.00 37.15
229.00 34.97
230.00 33.44
231.00 32.86
232.00 33.63
233.00 36.32
234.00 40.64
235.00 40.30
236.00 37.59
237.00 37.62
238.00 40.73
239.00 46.98
240.00 45.61
241.00 40.66
242.00 38.32
243.00 37.27
244.00 36.87
245.00 37.25
246.00 38.60
247.00 39.93
248.00 40.11
249.00 40.08
250.00 39.70
251.00 38.23
252.00 36.85
253.00 36.29
254.00 36.24
255.00 36.27
256.00 36.22
257.00 35.89
258.00 34.97
259.00 33.59
260.00 32.42
261.00 31.92
262.00 32.03
263.00 32.24
264.00 31.91
265.00 31.01
266.00 30.12
267.00 29.60
268.00 29.36
269.00 29.10
270.00 28.70
271.00 28.36
272.00 28.37
273.00 28.81
274.00 29.42
275.00 29.69
276.00 29.49
277.00 29.28
278.00 29.47
279.00 30.00
280.00 30.43
281.00 30.43
282.00 30.25
283.00 30.31
284.00 30.70
285.00 31.23
286.00 31.76
287.00 32.51
288.00 33.98
289.00 36.74
290.00 41.10
291.00 45.21
292.00 46.85
293.00 53.11
294.00 48.59
295.00 39.18
296.00 34.62
297.00 31.81
298.00 29.82
299.00 28.27
300.00 27.02
301.00 26.03
302.00 25.33
303.00 25.09
304.00 25.56
305.00 26.97
306.00 29.63
307.00 34.26
308.00 39.43
309.00 34.14
310.00 28.96
311.00 26.33
312.00 25.64
313.00 27.00
314.00 31.28
315.00 34.10
316.00 27.26
317.00 22.49
318.00 19.56
319.00 17.70
320.00 16.68
321.00 16.47
322.00 17.14
323.00 18.83
324.00 21.68
325.00 25.18
326.00 26.09
327.00 23.94
328.00 22.27
329.00 21.72
330.00 21.79
331.00 21.76
332.00 21.51
333.00 21.68
334.00 23.05
335.00 26.78
336.00 38.86
337.00 32.28
338.00 24.70
339.00 22.16
340.00 22.29
341.00 25.71
342.00 38.18
343.00 28.20
344.00 21.84
345.00 20.17
346.00 21.50
347.00 26.26
348.00 27.47
349.00 21.61
350.00 18.81
351.00 18.36
352.00 19.78
353.00 23.03
354.00 28.13
355.00 36.82
356.00 28.88
357.00 17.94
358.00 11.39
359.00 6.89
