NAME ATR4518R7_1750_X_CO_M45_05T_yyR
FREQUENCY 1750
GAIN 14.74 dBd
TILT	ELECTRICAL
COMMENT DATE 05.08.2013 -45 degrees polarized system Lever position 05T deg
HORIZONTAL 360
0.00 0.01
1.00 0.00
2.00 0.00
3.00 0.00
4.00 0.01
5.00 0.02
6.00 0.03
7.00 0.06
8.00 0.09
9.00 0.12
10.00 0.16
11.00 0.21
12.00 0.27
13.00 0.33
14.00 0.41
15.00 0.49
16.00 0.58
17.00 0.68
18.00 0.79
19.00 0.91
20.00 1.04
21.00 1.18
22.00 1.33
23.00 1.49
24.00 1.66
25.00 1.84
26.00 2.03
27.00 2.23
28.00 2.45
29.00 2.67
30.00 2.90
31.00 3.15
32.00 3.40
33.00 3.66
34.00 3.94
35.00 4.22
36.00 4.51
37.00 4.80
38.00 5.11
39.00 5.42
40.00 5.74
41.00 6.06
42.00 6.39
43.00 6.73
44.00 7.07
45.00 7.40
46.00 7.75
47.00 8.10
48.00 8.44
49.00 8.79
50.00 9.14
51.00 9.50
52.00 9.85
53.00 10.20
54.00 10.55
55.00 10.89
56.00 11.24
57.00 11.59
58.00 11.93
59.00 12.27
60.00 12.60
61.00 12.93
62.00 13.25
63.00 13.57
64.00 13.89
65.00 14.19
66.00 14.49
67.00 14.78
68.00 15.06
69.00 15.34
70.00 15.60
71.00 15.86
72.00 16.12
73.00 16.37
74.00 16.61
75.00 16.85
76.00 17.09
77.00 17.33
78.00 17.57
79.00 17.82
80.00 18.07
81.00 18.33
82.00 18.59
83.00 18.87
84.00 19.16
85.00 19.46
86.00 19.78
87.00 20.10
88.00 20.44
89.00 20.80
90.00 21.16
91.00 21.54
92.00 21.92
93.00 22.30
94.00 22.69
95.00 23.07
96.00 23.44
97.00 23.79
98.00 24.13
99.00 24.43
100.00 24.71
101.00 24.94
102.00 25.14
103.00 25.31
104.00 25.44
105.00 25.55
106.00 25.64
107.00 25.71
108.00 25.77
109.00 25.83
110.00 25.90
111.00 25.98
112.00 26.07
113.00 26.19
114.00 26.33
115.00 26.49
116.00 26.68
117.00 26.90
118.00 27.13
119.00 27.40
120.00 27.68
121.00 27.97
122.00 28.27
123.00 28.58
124.00 28.87
125.00 29.15
126.00 29.41
127.00 29.63
128.00 29.82
129.00 29.96
130.00 30.07
131.00 30.16
132.00 30.22
133.00 30.27
134.00 30.32
135.00 30.38
136.00 30.48
137.00 30.61
138.00 30.79
139.00 31.03
140.00 31.34
141.00 31.73
142.00 32.22
143.00 32.82
144.00 33.54
145.00 34.42
146.00 35.49
147.00 36.78
148.00 38.34
149.00 40.20
150.00 42.29
151.00 44.01
152.00 44.12
153.00 42.46
154.00 40.28
155.00 38.28
156.00 36.59
157.00 35.17
158.00 33.99
159.00 33.00
160.00 32.17
161.00 31.49
162.00 30.92
163.00 30.47
164.00 30.11
165.00 29.85
166.00 29.67
167.00 29.58
168.00 29.57
169.00 29.63
170.00 29.78
171.00 30.01
172.00 30.32
173.00 30.71
174.00 31.19
175.00 31.76
176.00 32.44
177.00 33.21
178.00 34.10
179.00 35.08
180.00 36.13
181.00 37.21
182.00 38.20
183.00 38.92
184.00 39.17
185.00 38.90
186.00 38.23
187.00 37.36
188.00 36.43
189.00 35.56
190.00 34.77
191.00 34.08
192.00 33.50
193.00 33.02
194.00 32.63
195.00 32.33
196.00 32.12
197.00 31.99
198.00 31.94
199.00 31.96
200.00 32.06
201.00 32.23
202.00 32.47
203.00 32.78
204.00 33.15
205.00 33.58
206.00 34.07
207.00 34.58
208.00 35.11
209.00 35.61
210.00 36.03
211.00 36.33
212.00 36.45
213.00 36.36
214.00 36.09
215.00 35.66
216.00 35.14
217.00 34.57
218.00 34.00
219.00 33.45
220.00 32.95
221.00 32.50
222.00 32.11
223.00 31.79
224.00 31.53
225.00 31.34
226.00 31.22
227.00 31.17
228.00 31.19
229.00 31.28
230.00 31.45
231.00 31.70
232.00 32.04
233.00 32.47
234.00 33.00
235.00 33.64
236.00 34.41
237.00 35.32
238.00 36.40
239.00 37.64
240.00 39.05
241.00 40.55
242.00 41.86
243.00 42.49
244.00 42.01
245.00 40.74
246.00 39.19
247.00 37.67
248.00 36.31
249.00 35.12
250.00 34.09
251.00 33.20
252.00 32.42
253.00 31.75
254.00 31.16
255.00 30.65
256.00 30.21
257.00 29.82
258.00 29.48
259.00 29.17
260.00 28.88
261.00 28.61
262.00 28.35
263.00 28.09
264.00 27.81
265.00 27.51
266.00 27.18
267.00 26.83
268.00 26.43
269.00 26.01
270.00 25.55
271.00 25.06
272.00 24.55
273.00 24.02
274.00 23.48
275.00 22.93
276.00 22.38
277.00 21.83
278.00 21.28
279.00 20.73
280.00 20.20
281.00 19.67
282.00 19.15
283.00 18.65
284.00 18.15
285.00 17.66
286.00 17.18
287.00 16.71
288.00 16.25
289.00 15.80
290.00 15.35
291.00 14.91
292.00 14.48
293.00 14.05
294.00 13.63
295.00 13.22
296.00 12.81
297.00 12.41
298.00 12.01
299.00 11.61
300.00 11.22
301.00 10.84
302.00 10.46
303.00 10.08
304.00 9.71
305.00 9.34
306.00 8.98
307.00 8.63
308.00 8.28
309.00 7.93
310.00 7.60
311.00 7.27
312.00 6.94
313.00 6.63
314.00 6.32
315.00 6.01
316.00 5.72
317.00 5.43
318.00 5.15
319.00 4.88
320.00 4.61
321.00 4.36
322.00 4.11
323.00 3.87
324.00 3.64
325.00 3.42
326.00 3.20
327.00 3.00
328.00 2.80
329.00 2.61
330.00 2.43
331.00 2.26
332.00 2.10
333.00 1.94
334.00 1.79
335.00 1.65
336.00 1.52
337.00 1.39
338.00 1.27
339.00 1.16
340.00 1.06
341.00 0.96
342.00 0.86
343.00 0.78
344.00 0.70
345.00 0.62
346.00 0.55
347.00 0.48
348.00 0.42
349.00 0.37
350.00 0.32
351.00 0.27
352.00 0.22
353.00 0.18
354.00 0.15
355.00 0.12
356.00 0.09
357.00 0.06
358.00 0.04
359.00 0.02
VERTICAL 360
0.00 9.96
1.00 5.81
2.00 3.05
3.00 1.27
4.00 0.28
5.00 0.00
6.00 0.36
7.00 1.40
8.00 3.16
9.00 5.85
10.00 9.95
11.00 16.76
12.00 23.38
13.00 17.87
14.00 15.32
15.00 15.68
16.00 18.73
17.00 26.83
18.00 28.04
19.00 20.09
20.00 17.25
21.00 16.56
22.00 17.30
23.00 19.42
24.00 23.60
25.00 33.85
26.00 32.00
27.00 23.71
28.00 20.60
29.00 19.61
30.00 20.29
31.00 22.89
32.00 29.02
33.00 35.07
34.00 26.20
35.00 21.95
36.00 20.00
37.00 19.32
38.00 19.58
39.00 20.76
40.00 23.06
41.00 27.15
42.00 35.95
43.00 40.77
44.00 30.79
45.00 27.50
46.00 26.14
47.00 25.65
48.00 25.55
49.00 25.56
50.00 25.54
51.00 25.32
52.00 24.85
53.00 24.32
54.00 24.06
55.00 24.29
56.00 25.12
57.00 26.63
58.00 28.88
59.00 32.04
60.00 36.33
61.00 41.12
62.00 41.38
63.00 38.76
64.00 37.56
65.00 37.63
66.00 37.86
67.00 37.02
68.00 34.94
69.00 32.59
70.00 30.75
71.00 29.61
72.00 28.96
73.00 28.44
74.00 27.77
75.00 26.92
76.00 26.08
77.00 25.50
78.00 25.31
79.00 26.57
80.00 26.73
81.00 26.71
82.00 26.57
83.00 26.12
84.00 25.27
85.00 25.32
86.00 25.72
87.00 26.25
88.00 26.91
89.00 27.64
90.00 28.02
91.00 27.42
92.00 26.41
93.00 26.12
94.00 26.68
95.00 27.93
96.00 29.65
97.00 31.56
98.00 33.22
99.00 34.52
100.00 35.84
101.00 37.48
102.00 39.51
103.00 42.26
104.00 45.46
105.00 45.80
106.00 42.83
107.00 40.14
108.00 38.77
109.00 38.96
110.00 40.51
111.00 41.77
112.00 40.33
113.00 37.83
114.00 35.98
115.00 35.02
116.00 34.85
117.00 35.22
118.00 35.81
119.00 36.42
120.00 37.11
121.00 38.01
122.00 39.03
123.00 39.62
124.00 39.04
125.00 37.19
126.00 35.06
127.00 33.58
128.00 33.09
129.00 33.46
130.00 34.25
131.00 35.16
132.00 36.39
133.00 38.14
134.00 39.81
135.00 40.70
136.00 41.16
137.00 41.16
138.00 40.18
139.00 38.79
140.00 37.95
141.00 38.30
142.00 40.05
143.00 40.70
144.00 37.78
145.00 35.09
146.00 33.94
147.00 33.97
148.00 34.45
149.00 34.55
150.00 34.20
151.00 34.13
152.00 34.87
153.00 35.89
154.00 35.61
155.00 34.30
156.00 33.65
157.00 34.26
158.00 36.02
159.00 38.18
160.00 38.98
161.00 37.71
162.00 35.98
163.00 34.91
164.00 34.73
165.00 35.22
166.00 35.64
167.00 35.13
168.00 34.05
169.00 33.47
170.00 34.11
171.00 36.17
172.00 39.41
173.00 40.99
174.00 39.57
175.00 38.61
176.00 38.80
177.00 39.42
178.00 39.55
179.00 39.76
180.00 41.48
181.00 45.40
182.00 43.94
183.00 38.25
184.00 35.00
185.00 33.50
186.00 33.13
187.00 33.37
188.00 33.67
189.00 33.59
190.00 33.18
191.00 32.81
192.00 32.78
193.00 33.18
194.00 33.91
195.00 34.75
196.00 35.34
197.00 35.44
198.00 35.27
199.00 35.46
200.00 36.86
201.00 40.69
202.00 46.61
203.00 42.83
204.00 39.82
205.00 41.52
206.00 44.50
207.00 37.36
208.00 32.17
209.00 29.60
210.00 28.61
211.00 28.72
212.00 29.55
213.00 30.60
214.00 31.44
215.00 32.18
216.00 33.51
217.00 36.13
218.00 40.85
219.00 49.45
220.00 51.54
221.00 45.25
222.00 41.72
223.00 39.04
224.00 36.82
225.00 35.13
226.00 34.11
227.00 33.92
228.00 34.73
229.00 36.49
230.00 38.08
231.00 37.39
232.00 35.54
233.00 34.45
234.00 34.51
235.00 35.74
236.00 38.12
237.00 41.64
238.00 45.94
239.00 49.44
240.00 49.93
241.00 47.53
242.00 44.55
243.00 42.43
244.00 41.44
245.00 41.47
246.00 42.29
247.00 43.56
248.00 44.97
249.00 45.85
250.00 44.37
251.00 40.93
252.00 37.89
253.00 36.01
254.00 35.31
255.00 35.57
256.00 36.31
257.00 36.66
258.00 36.01
259.00 34.76
260.00 33.52
261.00 32.47
262.00 31.62
263.00 30.97
264.00 30.59
265.00 30.52
266.00 30.75
267.00 31.16
268.00 31.52
269.00 31.62
270.00 31.58
271.00 31.71
272.00 32.09
273.00 32.41
274.00 32.27
275.00 31.51
276.00 30.43
277.00 29.48
278.00 28.98
279.00 28.94
280.00 29.13
281.00 29.24
282.00 29.13
283.00 28.95
284.00 29.05
285.00 29.74
286.00 31.18
287.00 33.50
288.00 37.19
289.00 45.51
290.00 50.48
291.00 36.81
292.00 31.48
293.00 27.92
294.00 25.15
295.00 22.91
296.00 21.14
297.00 19.90
298.00 19.23
299.00 19.12
300.00 19.52
301.00 20.32
302.00 21.43
303.00 22.80
304.00 24.60
305.00 27.25
306.00 31.06
307.00 32.01
308.00 27.51
309.00 23.70
310.00 21.25
311.00 19.75
312.00 18.99
313.00 18.87
314.00 19.38
315.00 20.57
316.00 22.59
317.00 25.80
318.00 31.26
319.00 45.25
320.00 38.67
321.00 32.56
322.00 30.74
323.00 29.96
324.00 28.61
325.00 26.68
326.00 25.09
327.00 24.21
328.00 24.12
329.00 24.92
330.00 26.86
331.00 28.74
332.00 26.14
333.00 21.84
334.00 18.89
335.00 17.28
336.00 16.81
337.00 17.33
338.00 18.76
339.00 20.81
340.00 22.35
341.00 22.07
342.00 21.04
343.00 20.84
344.00 22.21
345.00 26.07
346.00 30.59
347.00 24.99
348.00 20.09
349.00 17.59
350.00 16.72
351.00 17.37
352.00 20.00
353.00 26.39
354.00 29.97
355.00 22.43
356.00 20.00
357.00 21.37
358.00 23.66
359.00 16.39
