NAME ATR4518R7_1750_X_CO_P45_05T_yyR
FREQUENCY 1750
GAIN 14.97 dBd
TILT	ELECTRICAL
COMMENT DATE 05.08.2013 +45 degrees polarized system Lever position 05T deg
HORIZONTAL 360
0.00 0.00
1.00 0.00
2.00 0.00
3.00 0.01
4.00 0.02
5.00 0.04
6.00 0.06
7.00 0.09
8.00 0.13
9.00 0.17
10.00 0.22
11.00 0.28
12.00 0.35
13.00 0.42
14.00 0.50
15.00 0.59
16.00 0.69
17.00 0.80
18.00 0.92
19.00 1.05
20.00 1.19
21.00 1.33
22.00 1.49
23.00 1.65
24.00 1.83
25.00 2.01
26.00 2.20
27.00 2.40
28.00 2.61
29.00 2.82
30.00 3.04
31.00 3.27
32.00 3.50
33.00 3.74
34.00 3.98
35.00 4.22
36.00 4.46
37.00 4.71
38.00 4.95
39.00 5.20
40.00 5.44
41.00 5.68
42.00 5.92
43.00 6.16
44.00 6.39
45.00 6.62
46.00 6.84
47.00 7.06
48.00 7.28
49.00 7.49
50.00 7.70
51.00 7.91
52.00 8.11
53.00 8.31
54.00 8.52
55.00 8.72
56.00 8.92
57.00 9.11
58.00 9.31
59.00 9.52
60.00 9.72
61.00 9.92
62.00 10.13
63.00 10.33
64.00 10.54
65.00 10.75
66.00 10.97
67.00 11.19
68.00 11.41
69.00 11.63
70.00 11.86
71.00 12.10
72.00 12.33
73.00 12.58
74.00 12.83
75.00 13.08
76.00 13.34
77.00 13.61
78.00 13.88
79.00 14.16
80.00 14.44
81.00 14.73
82.00 15.03
83.00 15.33
84.00 15.64
85.00 15.95
86.00 16.26
87.00 16.58
88.00 16.89
89.00 17.20
90.00 17.52
91.00 17.82
92.00 18.12
93.00 18.42
94.00 18.71
95.00 18.98
96.00 19.25
97.00 19.50
98.00 19.75
99.00 19.98
100.00 20.21
101.00 20.42
102.00 20.63
103.00 20.83
104.00 21.03
105.00 21.22
106.00 21.41
107.00 21.60
108.00 21.79
109.00 21.98
110.00 22.17
111.00 22.36
112.00 22.55
113.00 22.74
114.00 22.93
115.00 23.12
116.00 23.31
117.00 23.49
118.00 23.66
119.00 23.83
120.00 24.00
121.00 24.15
122.00 24.31
123.00 24.46
124.00 24.61
125.00 24.76
126.00 24.92
127.00 25.08
128.00 25.26
129.00 25.46
130.00 25.67
131.00 25.91
132.00 26.18
133.00 26.48
134.00 26.82
135.00 27.21
136.00 27.64
137.00 28.12
138.00 28.66
139.00 29.27
140.00 29.95
141.00 30.71
142.00 31.57
143.00 32.53
144.00 33.61
145.00 34.85
146.00 36.25
147.00 37.88
148.00 39.78
149.00 42.04
150.00 44.74
151.00 47.84
152.00 50.36
153.00 50.16
154.00 48.05
155.00 45.98
156.00 44.37
157.00 43.18
158.00 42.30
159.00 41.68
160.00 41.24
161.00 40.94
162.00 40.73
163.00 40.59
164.00 40.45
165.00 40.28
166.00 40.06
167.00 39.76
168.00 39.37
169.00 38.92
170.00 38.42
171.00 37.91
172.00 37.41
173.00 36.95
174.00 36.54
175.00 36.20
176.00 35.92
177.00 35.74
178.00 35.65
179.00 35.65
180.00 35.75
181.00 35.97
182.00 36.31
183.00 36.79
184.00 37.43
185.00 38.26
186.00 39.33
187.00 40.69
188.00 42.48
189.00 44.92
190.00 48.47
191.00 54.28
192.00 57.75
193.00 50.71
194.00 46.17
195.00 43.18
196.00 41.01
197.00 39.34
198.00 38.03
199.00 36.98
200.00 36.14
201.00 35.46
202.00 34.94
203.00 34.55
204.00 34.27
205.00 34.10
206.00 34.04
207.00 34.07
208.00 34.20
209.00 34.41
210.00 34.71
211.00 35.09
212.00 35.54
213.00 36.04
214.00 36.56
215.00 37.07
216.00 37.51
217.00 37.80
218.00 37.90
219.00 37.77
220.00 37.44
221.00 36.97
222.00 36.40
223.00 35.80
224.00 35.21
225.00 34.66
226.00 34.16
227.00 33.73
228.00 33.36
229.00 33.06
230.00 32.83
231.00 32.67
232.00 32.58
233.00 32.55
234.00 32.58
235.00 32.68
236.00 32.84
237.00 33.07
238.00 33.36
239.00 33.71
240.00 34.13
241.00 34.60
242.00 35.15
243.00 35.76
244.00 36.45
245.00 37.19
246.00 38.03
247.00 38.95
248.00 39.95
249.00 41.07
250.00 42.29
251.00 43.66
252.00 45.16
253.00 46.84
254.00 48.67
255.00 50.40
256.00 51.33
257.00 50.78
258.00 49.03
259.00 46.93
260.00 44.88
261.00 43.00
262.00 41.29
263.00 39.73
264.00 38.29
265.00 36.96
266.00 35.71
267.00 34.55
268.00 33.45
269.00 32.42
270.00 31.43
271.00 30.50
272.00 29.60
273.00 28.75
274.00 27.93
275.00 27.14
276.00 26.38
277.00 25.64
278.00 24.93
279.00 24.23
280.00 23.56
281.00 22.90
282.00 22.26
283.00 21.64
284.00 21.02
285.00 20.42
286.00 19.83
287.00 19.25
288.00 18.68
289.00 18.12
290.00 17.58
291.00 17.04
292.00 16.50
293.00 15.98
294.00 15.47
295.00 14.96
296.00 14.47
297.00 13.98
298.00 13.50
299.00 13.03
300.00 12.57
301.00 12.11
302.00 11.67
303.00 11.23
304.00 10.80
305.00 10.38
306.00 9.96
307.00 9.56
308.00 9.17
309.00 8.78
310.00 8.40
311.00 8.03
312.00 7.67
313.00 7.31
314.00 6.97
315.00 6.64
316.00 6.31
317.00 5.99
318.00 5.68
319.00 5.38
320.00 5.09
321.00 4.81
322.00 4.54
323.00 4.27
324.00 4.02
325.00 3.77
326.00 3.54
327.00 3.31
328.00 3.09
329.00 2.88
330.00 2.68
331.00 2.49
332.00 2.30
333.00 2.13
334.00 1.96
335.00 1.80
336.00 1.65
337.00 1.51
338.00 1.38
339.00 1.25
340.00 1.13
341.00 1.02
342.00 0.92
343.00 0.82
344.00 0.73
345.00 0.64
346.00 0.56
347.00 0.49
348.00 0.42
349.00 0.36
350.00 0.31
351.00 0.25
352.00 0.21
353.00 0.17
354.00 0.13
355.00 0.10
356.00 0.07
357.00 0.05
358.00 0.03
359.00 0.01
VERTICAL 360
0.00 8.52
1.00 5.06
2.00 2.64
3.00 1.05
4.00 0.19
5.00 0.00
6.00 0.48
7.00 1.65
8.00 3.63
9.00 6.68
10.00 11.52
11.00 21.36
12.00 25.85
13.00 17.04
14.00 15.22
15.00 16.34
16.00 20.93
17.00 32.90
18.00 22.71
19.00 16.74
20.00 14.31
21.00 13.57
22.00 14.11
23.00 15.96
24.00 19.62
25.00 27.64
26.00 41.62
27.00 24.31
28.00 20.71
29.00 19.81
30.00 20.86
31.00 24.20
32.00 29.79
33.00 27.49
34.00 22.48
35.00 19.91
36.00 18.73
37.00 18.42
38.00 18.87
39.00 20.27
40.00 23.13
41.00 27.89
42.00 29.91
43.00 26.12
44.00 23.53
45.00 22.38
46.00 22.04
47.00 22.23
48.00 22.90
49.00 24.15
50.00 25.72
51.00 26.70
52.00 26.59
53.00 26.34
54.00 26.73
55.00 27.98
56.00 30.32
57.00 34.79
58.00 51.98
59.00 40.36
60.00 32.79
61.00 29.73
62.00 28.25
63.00 27.43
64.00 26.85
65.00 26.38
66.00 26.06
67.00 26.02
68.00 26.30
69.00 26.68
70.00 26.82
71.00 26.50
72.00 25.91
73.00 25.41
74.00 25.25
75.00 25.40
76.00 25.64
77.00 25.78
78.00 25.85
79.00 26.00
80.00 26.32
81.00 26.63
82.00 26.68
83.00 26.55
84.00 26.55
85.00 27.10
86.00 28.46
87.00 30.35
88.00 31.51
89.00 31.44
90.00 30.61
91.00 29.21
92.00 28.06
93.00 27.93
94.00 28.95
95.00 30.68
96.00 32.34
97.00 33.12
98.00 32.94
99.00 32.62
100.00 32.84
101.00 33.73
102.00 35.13
103.00 36.80
104.00 38.70
105.00 41.17
106.00 44.79
107.00 49.72
108.00 54.32
109.00 54.67
110.00 51.43
111.00 49.19
112.00 47.43
113.00 44.33
114.00 40.93
115.00 38.41
116.00 36.97
117.00 36.69
118.00 37.65
119.00 39.60
120.00 41.20
121.00 40.89
122.00 39.34
123.00 37.26
124.00 35.26
125.00 34.09
126.00 33.96
127.00 34.54
128.00 35.11
129.00 35.49
130.00 36.48
131.00 38.94
132.00 43.26
133.00 48.06
134.00 50.93
135.00 52.07
136.00 44.87
137.00 39.21
138.00 36.27
139.00 35.24
140.00 35.40
141.00 35.73
142.00 35.90
143.00 37.11
144.00 40.46
145.00 42.53
146.00 39.99
147.00 39.19
148.00 40.90
149.00 43.49
150.00 43.46
151.00 39.86
152.00 36.28
153.00 34.57
154.00 34.99
155.00 37.72
156.00 43.40
157.00 53.28
158.00 49.83
159.00 42.70
160.00 38.57
161.00 36.40
162.00 35.70
163.00 35.87
164.00 36.33
165.00 36.90
166.00 38.09
167.00 40.69
168.00 43.55
169.00 40.28
170.00 35.92
171.00 33.77
172.00 33.37
173.00 34.04
174.00 34.95
175.00 36.12
176.00 38.32
177.00 39.93
178.00 38.76
179.00 38.56
180.00 42.38
181.00 48.92
182.00 41.17
183.00 37.16
184.00 35.58
185.00 34.35
186.00 33.26
187.00 33.02
188.00 33.72
189.00 34.31
190.00 33.43
191.00 31.72
192.00 30.24
193.00 29.40
194.00 29.39
195.00 30.33
196.00 31.87
197.00 32.69
198.00 32.51
199.00 33.18
200.00 36.35
201.00 42.90
202.00 41.55
203.00 37.14
204.00 35.59
205.00 35.22
206.00 35.83
207.00 37.91
208.00 39.05
209.00 35.99
210.00 33.29
211.00 32.26
212.00 32.31
213.00 32.56
214.00 32.47
215.00 32.13
216.00 31.66
217.00 31.05
218.00 30.54
219.00 30.66
220.00 31.89
221.00 34.46
222.00 37.88
223.00 39.42
224.00 38.67
225.00 38.31
226.00 37.97
227.00 36.62
228.00 35.15
229.00 34.28
230.00 33.79
231.00 33.40
232.00 33.12
233.00 33.18
234.00 33.89
235.00 35.58
236.00 38.11
237.00 38.62
238.00 35.44
239.00 32.57
240.00 31.24
241.00 31.34
242.00 32.65
243.00 34.87
244.00 37.48
245.00 39.39
246.00 38.99
247.00 36.76
248.00 34.51
249.00 33.13
250.00 32.76
251.00 33.15
252.00 33.73
253.00 33.78
254.00 33.60
255.00 34.54
256.00 38.26
257.00 46.47
258.00 43.55
259.00 39.59
260.00 38.48
261.00 37.08
262.00 35.39
263.00 33.95
264.00 32.79
265.00 32.38
266.00 32.90
267.00 33.50
268.00 32.59
269.00 30.22
270.00 27.91
271.00 26.61
272.00 26.48
273.00 27.23
274.00 28.19
275.00 28.56
276.00 27.89
277.00 26.79
278.00 26.17
279.00 26.43
280.00 27.34
281.00 28.30
282.00 28.68
283.00 28.43
284.00 28.28
285.00 29.04
286.00 31.28
287.00 35.61
288.00 42.86
289.00 42.45
290.00 36.97
291.00 34.12
292.00 31.57
293.00 28.31
294.00 25.19
295.00 22.85
296.00 21.34
297.00 20.51
298.00 20.23
299.00 20.37
300.00 20.89
301.00 21.83
302.00 23.35
303.00 25.69
304.00 29.14
305.00 32.93
306.00 31.93
307.00 27.78
308.00 24.56
309.00 22.35
310.00 20.83
311.00 19.83
312.00 19.27
313.00 19.17
314.00 19.61
315.00 20.66
316.00 22.29
317.00 24.21
318.00 25.67
319.00 26.32
320.00 27.08
321.00 29.36
322.00 35.63
323.00 38.92
324.00 29.70
325.00 25.68
326.00 23.88
327.00 23.26
328.00 23.43
329.00 24.29
330.00 26.10
331.00 28.04
332.00 25.22
333.00 20.16
334.00 16.60
335.00 14.59
336.00 13.94
337.00 14.62
338.00 16.80
339.00 20.98
340.00 26.80
341.00 25.94
342.00 22.32
343.00 20.83
344.00 20.67
345.00 21.11
346.00 21.42
347.00 20.99
348.00 19.93
349.00 19.10
350.00 19.35
351.00 21.53
352.00 27.62
353.00 30.12
354.00 21.80
355.00 18.25
356.00 17.33
357.00 18.19
358.00 17.80
359.00 13.23
