NAME ATR4518R7_0894_X_CO_M45_01T
FREQUENCY 0894
GAIN 14.60 dBd
TILT	ELECTRICAL
COMMENT DATE 05.08.2013 -45 degrees polarized system Lever position 01T deg
HORIZONTAL 360
0.00 0.01
1.00 0.00
2.00 0.00
3.00 0.01
4.00 0.02
5.00 0.04
6.00 0.06
7.00 0.09
8.00 0.13
9.00 0.18
10.00 0.23
11.00 0.29
12.00 0.35
13.00 0.43
14.00 0.50
15.00 0.59
16.00 0.68
17.00 0.78
18.00 0.89
19.00 1.00
20.00 1.12
21.00 1.24
22.00 1.38
23.00 1.52
24.00 1.67
25.00 1.82
26.00 1.98
27.00 2.15
28.00 2.32
29.00 2.50
30.00 2.69
31.00 2.89
32.00 3.09
33.00 3.30
34.00 3.51
35.00 3.74
36.00 3.97
37.00 4.20
38.00 4.45
39.00 4.70
40.00 4.95
41.00 5.22
42.00 5.49
43.00 5.77
44.00 6.05
45.00 6.34
46.00 6.64
47.00 6.94
48.00 7.26
49.00 7.58
50.00 7.90
51.00 8.23
52.00 8.57
53.00 8.92
54.00 9.27
55.00 9.63
56.00 10.00
57.00 10.37
58.00 10.75
59.00 11.13
60.00 11.52
61.00 11.92
62.00 12.32
63.00 12.73
64.00 13.15
65.00 13.57
66.00 13.99
67.00 14.42
68.00 14.86
69.00 15.30
70.00 15.74
71.00 16.18
72.00 16.63
73.00 17.08
74.00 17.53
75.00 17.98
76.00 18.43
77.00 18.87
78.00 19.32
79.00 19.75
80.00 20.19
81.00 20.61
82.00 21.03
83.00 21.44
84.00 21.84
85.00 22.23
86.00 22.60
87.00 22.97
88.00 23.32
89.00 23.66
90.00 23.99
91.00 24.30
92.00 24.61
93.00 24.90
94.00 25.19
95.00 25.47
96.00 25.74
97.00 26.01
98.00 26.27
99.00 26.53
100.00 26.80
101.00 27.06
102.00 27.33
103.00 27.60
104.00 27.87
105.00 28.15
106.00 28.43
107.00 28.73
108.00 29.03
109.00 29.34
110.00 29.66
111.00 29.99
112.00 30.33
113.00 30.67
114.00 31.04
115.00 31.40
116.00 31.78
117.00 32.17
118.00 32.57
119.00 32.97
120.00 33.38
121.00 33.81
122.00 34.23
123.00 34.66
124.00 35.09
125.00 35.53
126.00 35.96
127.00 36.39
128.00 36.81
129.00 37.23
130.00 37.63
131.00 38.02
132.00 38.39
133.00 38.73
134.00 39.05
135.00 39.33
136.00 39.58
137.00 39.79
138.00 39.96
139.00 40.09
140.00 40.17
141.00 40.21
142.00 40.20
143.00 40.15
144.00 40.06
145.00 39.94
146.00 39.78
147.00 39.60
148.00 39.39
149.00 39.17
150.00 38.93
151.00 38.68
152.00 38.42
153.00 38.16
154.00 37.89
155.00 37.64
156.00 37.37
157.00 37.13
158.00 36.88
159.00 36.64
160.00 36.41
161.00 36.20
162.00 35.99
163.00 35.80
164.00 35.62
165.00 35.45
166.00 35.30
167.00 35.17
168.00 35.04
169.00 34.94
170.00 34.85
171.00 34.77
172.00 34.71
173.00 34.68
174.00 34.66
175.00 34.65
176.00 34.66
177.00 34.69
178.00 34.75
179.00 34.82
180.00 34.91
181.00 35.02
182.00 35.15
183.00 35.31
184.00 35.48
185.00 35.68
186.00 35.90
187.00 36.14
188.00 36.41
189.00 36.70
190.00 37.01
191.00 37.35
192.00 37.71
193.00 38.09
194.00 38.49
195.00 38.90
196.00 39.34
197.00 39.77
198.00 40.21
199.00 40.64
200.00 41.04
201.00 41.42
202.00 41.73
203.00 41.99
204.00 42.15
205.00 42.24
206.00 42.24
207.00 42.14
208.00 41.97
209.00 41.75
210.00 41.47
211.00 41.16
212.00 40.84
213.00 40.51
214.00 40.17
215.00 39.84
216.00 39.52
217.00 39.21
218.00 38.91
219.00 38.62
220.00 38.34
221.00 38.08
222.00 37.82
223.00 37.56
224.00 37.32
225.00 37.08
226.00 36.84
227.00 36.60
228.00 36.35
229.00 36.11
230.00 35.86
231.00 35.60
232.00 35.35
233.00 35.07
234.00 34.80
235.00 34.51
236.00 34.22
237.00 33.92
238.00 33.61
239.00 33.30
240.00 32.98
241.00 32.65
242.00 32.32
243.00 31.98
244.00 31.63
245.00 31.28
246.00 30.93
247.00 30.57
248.00 30.21
249.00 29.84
250.00 29.46
251.00 29.09
252.00 28.70
253.00 28.32
254.00 27.92
255.00 27.53
256.00 27.13
257.00 26.72
258.00 26.32
259.00 25.90
260.00 25.49
261.00 25.08
262.00 24.66
263.00 24.24
264.00 23.82
265.00 23.40
266.00 22.98
267.00 22.57
268.00 22.15
269.00 21.74
270.00 21.32
271.00 20.91
272.00 20.51
273.00 20.10
274.00 19.70
275.00 19.31
276.00 18.91
277.00 18.53
278.00 18.14
279.00 17.76
280.00 17.38
281.00 17.01
282.00 16.64
283.00 16.28
284.00 15.92
285.00 15.57
286.00 15.21
287.00 14.87
288.00 14.52
289.00 14.18
290.00 13.85
291.00 13.51
292.00 13.18
293.00 12.86
294.00 12.53
295.00 12.21
296.00 11.90
297.00 11.58
298.00 11.27
299.00 10.97
300.00 10.66
301.00 10.36
302.00 10.06
303.00 9.77
304.00 9.47
305.00 9.19
306.00 8.90
307.00 8.62
308.00 8.33
309.00 8.06
310.00 7.78
311.00 7.51
312.00 7.25
313.00 6.98
314.00 6.72
315.00 6.46
316.00 6.21
317.00 5.96
318.00 5.72
319.00 5.47
320.00 5.24
321.00 5.00
322.00 4.78
323.00 4.55
324.00 4.33
325.00 4.12
326.00 3.91
327.00 3.70
328.00 3.50
329.00 3.30
330.00 3.11
331.00 2.93
332.00 2.74
333.00 2.57
334.00 2.40
335.00 2.23
336.00 2.07
337.00 1.92
338.00 1.77
339.00 1.63
340.00 1.49
341.00 1.36
342.00 1.23
343.00 1.11
344.00 1.00
345.00 0.89
346.00 0.79
347.00 0.69
348.00 0.60
349.00 0.52
350.00 0.44
351.00 0.37
352.00 0.30
353.00 0.24
354.00 0.19
355.00 0.15
356.00 0.11
357.00 0.07
358.00 0.04
359.00 0.02
VERTICAL 360
0.00 0.16
1.00 0.00
2.00 0.20
3.00 0.78
4.00 1.75
5.00 3.16
6.00 5.07
7.00 7.56
8.00 10.80
9.00 15.03
10.00 20.57
11.00 26.12
12.00 26.77
13.00 26.98
14.00 30.55
15.00 37.77
16.00 28.03
17.00 22.72
18.00 19.98
19.00 18.69
20.00 18.44
21.00 19.11
22.00 20.74
23.00 23.66
24.00 28.93
25.00 38.08
26.00 31.00
27.00 26.65
28.00 25.33
29.00 26.24
30.00 29.96
31.00 36.03
32.00 28.19
33.00 22.60
34.00 19.18
35.00 16.84
36.00 15.13
37.00 13.89
38.00 13.06
39.00 12.63
40.00 12.62
41.00 13.03
42.00 13.83
43.00 14.95
44.00 16.35
45.00 18.00
46.00 20.00
47.00 22.59
48.00 26.21
49.00 31.81
50.00 41.71
51.00 41.01
52.00 37.50
53.00 37.92
54.00 40.14
55.00 40.81
56.00 38.60
57.00 36.46
58.00 35.43
59.00 35.78
60.00 37.66
61.00 40.91
62.00 43.59
63.00 43.40
64.00 42.15
65.00 40.70
66.00 39.25
67.00 37.84
68.00 36.47
69.00 35.55
70.00 35.45
71.00 36.35
72.00 38.28
73.00 41.18
74.00 41.41
75.00 36.98
76.00 33.50
77.00 31.65
78.00 31.02
79.00 31.31
80.00 32.37
81.00 33.63
82.00 32.67
83.00 29.65
84.00 27.24
85.00 26.06
86.00 26.00
87.00 26.91
88.00 28.76
89.00 31.57
90.00 34.49
91.00 34.53
92.00 33.15
93.00 32.81
94.00 33.21
95.00 33.13
96.00 32.66
97.00 32.77
98.00 33.60
99.00 34.61
100.00 35.85
101.00 38.53
102.00 43.97
103.00 44.32
104.00 40.12
105.00 38.84
106.00 39.31
107.00 40.35
108.00 41.22
109.00 41.23
110.00 40.18
111.00 39.52
112.00 40.48
113.00 43.61
114.00 48.53
115.00 48.78
116.00 44.56
117.00 41.15
118.00 39.33
119.00 39.27
120.00 40.82
121.00 42.87
122.00 43.13
123.00 41.37
124.00 38.76
125.00 36.48
126.00 35.28
127.00 35.27
128.00 36.16
129.00 37.19
130.00 37.24
131.00 36.03
132.00 34.42
133.00 33.31
134.00 33.06
135.00 33.65
136.00 34.77
137.00 35.85
138.00 36.44
139.00 36.65
140.00 37.17
141.00 38.74
142.00 41.65
143.00 43.06
144.00 40.32
145.00 38.18
146.00 37.65
147.00 38.50
148.00 40.75
149.00 44.94
150.00 50.76
151.00 46.91
152.00 42.17
153.00 39.19
154.00 37.07
155.00 35.38
156.00 33.89
157.00 32.51
158.00 31.40
159.00 30.83
160.00 30.97
161.00 31.89
162.00 33.56
163.00 35.78
164.00 38.07
165.00 40.01
166.00 42.60
167.00 47.46
168.00 43.69
169.00 37.65
170.00 34.43
171.00 32.97
172.00 32.65
173.00 33.03
174.00 33.64
175.00 34.10
176.00 34.30
177.00 34.44
178.00 34.71
179.00 35.15
180.00 35.49
181.00 35.64
182.00 35.54
183.00 35.28
184.00 35.00
185.00 34.98
186.00 35.41
187.00 36.42
188.00 37.88
189.00 39.45
190.00 40.54
191.00 40.72
192.00 40.07
193.00 39.14
194.00 38.45
195.00 38.27
196.00 38.66
197.00 39.49
198.00 40.52
199.00 41.48
200.00 42.04
201.00 41.79
202.00 40.79
203.00 39.61
204.00 38.72
205.00 38.13
206.00 37.48
207.00 36.47
208.00 35.39
209.00 34.74
210.00 34.68
211.00 34.96
212.00 35.04
213.00 34.54
214.00 33.59
215.00 32.52
216.00 31.57
217.00 30.83
218.00 30.28
219.00 29.94
220.00 29.95
221.00 30.42
222.00 31.30
223.00 32.30
224.00 33.24
225.00 34.22
226.00 35.30
227.00 36.25
228.00 36.98
229.00 37.89
230.00 39.19
231.00 40.61
232.00 41.98
233.00 43.25
234.00 43.10
235.00 41.68
236.00 41.13
237.00 42.33
238.00 45.06
239.00 46.13
240.00 43.97
241.00 42.11
242.00 40.98
243.00 40.05
244.00 39.07
245.00 38.21
246.00 37.72
247.00 37.70
248.00 37.89
249.00 37.81
250.00 37.27
251.00 36.49
252.00 35.80
253.00 35.56
254.00 36.14
255.00 37.72
256.00 40.06
257.00 41.50
258.00 40.01
259.00 37.39
260.00 35.39
261.00 34.49
262.00 34.83
263.00 36.49
264.00 39.28
265.00 40.86
266.00 38.39
267.00 35.50
268.00 33.76
269.00 33.18
270.00 33.52
271.00 34.34
272.00 34.70
273.00 33.73
274.00 31.98
275.00 30.48
276.00 29.72
277.00 29.82
278.00 30.60
279.00 31.61
280.00 32.07
281.00 31.59
282.00 30.60
283.00 29.72
284.00 29.34
285.00 29.57
286.00 30.36
287.00 31.49
288.00 32.70
289.00 33.83
290.00 34.98
291.00 36.37
292.00 37.76
293.00 37.80
294.00 36.08
295.00 34.10
296.00 32.52
297.00 31.27
298.00 30.21
299.00 29.33
300.00 28.76
301.00 28.69
302.00 29.40
303.00 31.26
304.00 35.11
305.00 44.19
306.00 40.37
307.00 32.41
308.00 27.82
309.00 24.39
310.00 21.60
311.00 19.31
312.00 17.51
313.00 16.17
314.00 15.24
315.00 14.67
316.00 14.37
317.00 14.27
318.00 14.32
319.00 14.57
320.00 15.07
321.00 15.93
322.00 17.28
323.00 19.23
324.00 21.91
325.00 25.47
326.00 30.11
327.00 35.93
328.00 41.10
329.00 39.45
330.00 35.72
331.00 32.94
332.00 31.10
333.00 29.76
334.00 28.40
335.00 26.70
336.00 24.86
337.00 23.17
338.00 21.80
339.00 20.82
340.00 20.28
341.00 20.27
342.00 20.93
343.00 22.55
344.00 25.74
345.00 32.79
346.00 41.93
347.00 28.92
348.00 25.23
349.00 24.58
350.00 26.58
351.00 27.19
352.00 19.94
353.00 14.15
354.00 10.02
355.00 6.96
356.00 4.63
357.00 2.87
358.00 1.57
359.00 0.68
