NAME ATR4518R7_2655_X_CO_P45_06T_yL
FREQUENCY 2655
GAIN 15.98 dBd
TILT	ELECTRICAL
COMMENT DATE 05.08.2013 +45 degrees polarized system Lever position 06T deg
HORIZONTAL 360
0.00 0.01
1.00 0.03
2.00 0.06
3.00 0.10
4.00 0.15
5.00 0.22
6.00 0.28
7.00 0.35
8.00 0.43
9.00 0.51
10.00 0.60
11.00 0.68
12.00 0.78
13.00 0.87
14.00 0.97
15.00 1.08
16.00 1.19
17.00 1.30
18.00 1.42
19.00 1.54
20.00 1.67
21.00 1.80
22.00 1.94
23.00 2.08
24.00 2.23
25.00 2.38
26.00 2.53
27.00 2.70
28.00 2.86
29.00 3.02
30.00 3.20
31.00 3.37
32.00 3.54
33.00 3.72
34.00 3.90
35.00 4.09
36.00 4.27
37.00 4.47
38.00 4.66
39.00 4.85
40.00 5.06
41.00 5.26
42.00 5.47
43.00 5.68
44.00 5.90
45.00 6.12
46.00 6.33
47.00 6.55
48.00 6.77
49.00 6.99
50.00 7.21
51.00 7.43
52.00 7.65
53.00 7.86
54.00 8.07
55.00 8.27
56.00 8.48
57.00 8.67
58.00 8.87
59.00 9.06
60.00 9.26
61.00 9.47
62.00 9.67
63.00 9.87
64.00 10.06
65.00 10.26
66.00 10.47
67.00 10.69
68.00 10.90
69.00 11.13
70.00 11.36
71.00 11.61
72.00 11.87
73.00 12.14
74.00 12.44
75.00 12.74
76.00 13.07
77.00 13.41
78.00 13.78
79.00 14.17
80.00 14.59
81.00 15.03
82.00 15.50
83.00 16.00
84.00 16.54
85.00 17.10
86.00 17.71
87.00 18.35
88.00 19.01
89.00 19.72
90.00 20.45
91.00 21.21
92.00 21.99
93.00 22.78
94.00 23.58
95.00 24.36
96.00 25.12
97.00 25.86
98.00 26.56
99.00 27.21
100.00 27.83
101.00 28.43
102.00 29.02
103.00 29.63
104.00 30.27
105.00 30.96
106.00 31.72
107.00 32.57
108.00 33.53
109.00 34.59
110.00 35.78
111.00 37.11
112.00 38.56
113.00 40.15
114.00 41.86
115.00 43.66
116.00 45.53
117.00 47.34
118.00 48.83
119.00 49.36
120.00 48.45
121.00 46.58
122.00 44.45
123.00 42.45
124.00 40.67
125.00 39.14
126.00 37.84
127.00 36.76
128.00 35.87
129.00 35.17
130.00 34.65
131.00 34.27
132.00 34.03
133.00 33.91
134.00 33.88
135.00 33.91
136.00 33.95
137.00 33.95
138.00 33.85
139.00 33.61
140.00 33.24
141.00 32.76
142.00 32.22
143.00 31.67
144.00 31.15
145.00 30.69
146.00 30.31
147.00 30.03
148.00 29.84
149.00 29.75
150.00 29.76
151.00 29.87
152.00 30.05
153.00 30.30
154.00 30.59
155.00 30.91
156.00 31.23
157.00 31.51
158.00 31.74
159.00 31.91
160.00 32.01
161.00 32.07
162.00 32.11
163.00 32.14
164.00 32.21
165.00 32.32
166.00 32.49
167.00 32.73
168.00 33.03
169.00 33.38
170.00 33.75
171.00 34.13
172.00 34.45
173.00 34.69
174.00 34.80
175.00 34.77
176.00 34.63
177.00 34.40
178.00 34.13
179.00 33.86
180.00 33.63
181.00 33.47
182.00 33.39
183.00 33.41
184.00 33.52
185.00 33.73
186.00 34.03
187.00 34.42
188.00 34.84
189.00 35.25
190.00 35.56
191.00 35.68
192.00 35.54
193.00 35.12
194.00 34.50
195.00 33.76
196.00 33.01
197.00 32.28
198.00 31.64
199.00 31.10
200.00 30.68
201.00 30.38
202.00 30.21
203.00 30.18
204.00 30.29
205.00 30.55
206.00 30.96
207.00 31.56
208.00 32.37
209.00 33.42
210.00 34.77
211.00 36.52
212.00 38.85
213.00 42.06
214.00 46.65
215.00 50.06
216.00 45.94
217.00 41.86
218.00 39.08
219.00 37.12
220.00 35.69
221.00 34.64
222.00 33.88
223.00 33.37
224.00 33.06
225.00 32.94
226.00 32.99
227.00 33.21
228.00 33.58
229.00 34.10
230.00 34.77
231.00 35.57
232.00 36.46
233.00 37.34
234.00 38.07
235.00 38.48
236.00 38.43
237.00 37.96
238.00 37.22
239.00 36.41
240.00 35.63
241.00 34.94
242.00 34.38
243.00 33.93
244.00 33.59
245.00 33.35
246.00 33.19
247.00 33.05
248.00 32.93
249.00 32.76
250.00 32.52
251.00 32.19
252.00 31.74
253.00 31.19
254.00 30.58
255.00 29.92
256.00 29.26
257.00 28.61
258.00 28.00
259.00 27.46
260.00 26.97
261.00 26.55
262.00 26.20
263.00 25.92
264.00 25.70
265.00 25.56
266.00 25.45
267.00 25.39
268.00 25.36
269.00 25.32
270.00 25.28
271.00 25.21
272.00 25.07
273.00 24.86
274.00 24.57
275.00 24.21
276.00 23.80
277.00 23.34
278.00 22.87
279.00 22.41
280.00 21.96
281.00 21.55
282.00 21.17
283.00 20.85
284.00 20.56
285.00 20.31
286.00 20.09
287.00 19.89
288.00 19.72
289.00 19.54
290.00 19.36
291.00 19.15
292.00 18.92
293.00 18.66
294.00 18.36
295.00 18.03
296.00 17.67
297.00 17.29
298.00 16.91
299.00 16.54
300.00 16.18
301.00 15.80
302.00 15.44
303.00 15.08
304.00 14.71
305.00 14.33
306.00 13.95
307.00 13.54
308.00 13.11
309.00 12.66
310.00 12.18
311.00 11.69
312.00 11.18
313.00 10.66
314.00 10.14
315.00 9.62
316.00 9.11
317.00 8.62
318.00 8.15
319.00 7.71
320.00 7.29
321.00 6.90
322.00 6.53
323.00 6.19
324.00 5.87
325.00 5.58
326.00 5.31
327.00 5.05
328.00 4.81
329.00 4.58
330.00 4.35
331.00 4.14
332.00 3.92
333.00 3.70
334.00 3.49
335.00 3.28
336.00 3.07
337.00 2.86
338.00 2.66
339.00 2.45
340.00 2.24
341.00 2.05
342.00 1.85
343.00 1.67
344.00 1.48
345.00 1.31
346.00 1.15
347.00 0.98
348.00 0.84
349.00 0.70
350.00 0.57
351.00 0.45
352.00 0.35
353.00 0.25
354.00 0.17
355.00 0.12
356.00 0.07
357.00 0.03
358.00 0.01
359.00 0.00
VERTICAL 360
0.00 30.32
1.00 18.23
2.00 10.84
3.00 5.83
4.00 2.54
5.00 0.64
6.00 0.00
7.00 0.67
8.00 2.93
9.00 7.65
10.00 19.78
11.00 16.79
12.00 11.14
13.00 10.94
14.00 14.37
15.00 24.27
16.00 19.47
17.00 14.82
18.00 14.75
19.00 18.21
20.00 23.69
21.00 20.01
22.00 17.58
23.00 18.52
24.00 23.81
25.00 39.51
26.00 21.83
27.00 18.25
28.00 18.40
29.00 22.08
30.00 33.01
31.00 25.69
32.00 20.54
33.00 18.94
34.00 19.40
35.00 22.16
36.00 29.68
37.00 33.86
38.00 25.33
39.00 23.51
40.00 24.46
41.00 26.50
42.00 28.03
43.00 29.65
44.00 31.57
45.00 31.06
46.00 30.17
47.00 31.59
48.00 36.47
49.00 49.06
50.00 53.08
51.00 61.41
52.00 45.63
53.00 39.90
54.00 38.39
55.00 38.10
56.00 37.94
57.00 38.08
58.00 38.08
59.00 38.00
60.00 38.58
61.00 39.54
62.00 39.99
63.00 39.60
64.00 38.88
65.00 38.54
66.00 38.43
67.00 37.80
68.00 36.67
69.00 35.61
70.00 34.93
71.00 34.48
72.00 33.93
73.00 33.48
74.00 33.75
75.00 35.03
76.00 37.00
77.00 38.78
78.00 40.32
79.00 42.34
80.00 45.48
81.00 48.81
82.00 48.18
83.00 45.55
84.00 38.28
85.00 33.51
86.00 31.99
87.00 33.14
88.00 34.87
89.00 35.09
90.00 38.05
91.00 46.59
92.00 36.96
93.00 35.04
94.00 39.20
95.00 50.68
96.00 41.71
97.00 42.36
98.00 50.85
99.00 65.46
100.00 54.38
101.00 46.72
102.00 45.37
103.00 49.02
104.00 49.88
105.00 49.97
106.00 55.48
107.00 49.73
108.00 48.24
109.00 51.71
110.00 55.11
111.00 50.66
112.00 45.36
113.00 42.97
114.00 43.20
115.00 44.29
116.00 43.13
117.00 40.38
118.00 38.71
119.00 39.27
120.00 42.15
121.00 42.76
122.00 39.80
123.00 38.59
124.00 39.48
125.00 41.49
126.00 41.31
127.00 40.29
128.00 41.91
129.00 45.96
130.00 44.20
131.00 42.70
132.00 46.14
133.00 52.54
134.00 42.58
135.00 38.44
136.00 36.77
137.00 35.91
138.00 35.10
139.00 34.39
140.00 33.95
141.00 33.80
142.00 33.85
143.00 34.06
144.00 34.48
145.00 34.91
146.00 34.71
147.00 33.53
148.00 32.08
149.00 31.24
150.00 31.24
151.00 31.96
152.00 33.40
153.00 35.37
154.00 36.27
155.00 35.80
156.00 35.28
157.00 34.98
158.00 35.91
159.00 37.90
160.00 35.51
161.00 32.49
162.00 32.01
163.00 33.60
164.00 35.84
165.00 38.09
166.00 43.26
167.00 51.88
168.00 43.33
169.00 40.70
170.00 38.83
171.00 36.93
172.00 35.80
173.00 34.99
174.00 33.86
175.00 32.76
176.00 32.53
177.00 33.62
178.00 35.73
179.00 37.43
180.00 37.69
181.00 37.46
182.00 37.34
183.00 36.13
184.00 34.61
185.00 34.98
186.00 38.24
187.00 45.34
188.00 55.91
189.00 53.82
190.00 44.84
191.00 37.86
192.00 33.67
193.00 32.22
194.00 33.65
195.00 38.98
196.00 49.20
197.00 40.80
198.00 37.18
199.00 35.19
200.00 33.32
201.00 31.88
202.00 31.54
203.00 32.50
204.00 34.63
205.00 37.34
206.00 37.89
207.00 36.29
208.00 36.34
209.00 38.83
210.00 39.96
211.00 37.91
212.00 38.08
213.00 41.30
214.00 45.13
215.00 46.53
216.00 46.68
217.00 42.30
218.00 40.48
219.00 42.01
220.00 43.94
221.00 42.32
222.00 41.42
223.00 41.30
224.00 39.02
225.00 36.19
226.00 35.06
227.00 36.22
228.00 40.20
229.00 47.32
230.00 48.20
231.00 46.87
232.00 48.11
233.00 47.88
234.00 43.79
235.00 40.25
236.00 38.46
237.00 38.27
238.00 39.17
239.00 40.32
240.00 41.24
241.00 41.98
242.00 42.13
243.00 42.21
244.00 42.86
245.00 42.51
246.00 41.06
247.00 40.44
248.00 40.78
249.00 42.06
250.00 45.81
251.00 51.10
252.00 46.62
253.00 46.58
254.00 55.55
255.00 53.03
256.00 47.08
257.00 43.85
258.00 41.06
259.00 40.64
260.00 41.74
261.00 42.51
262.00 47.42
263.00 49.52
264.00 38.49
265.00 35.43
266.00 34.93
267.00 34.88
268.00 35.30
269.00 36.90
270.00 37.19
271.00 35.07
272.00 33.08
273.00 31.59
274.00 31.17
275.00 32.60
276.00 36.79
277.00 43.40
278.00 38.17
279.00 33.86
280.00 32.14
281.00 32.18
282.00 33.38
283.00 34.74
284.00 35.13
285.00 34.70
286.00 34.49
287.00 34.94
288.00 35.60
289.00 35.66
290.00 34.73
291.00 33.97
292.00 34.82
293.00 38.09
294.00 43.04
295.00 44.03
296.00 41.77
297.00 36.82
298.00 31.50
299.00 27.17
300.00 23.78
301.00 21.01
302.00 18.51
303.00 16.14
304.00 14.01
305.00 12.35
306.00 11.23
307.00 10.67
308.00 10.61
309.00 11.07
310.00 12.22
311.00 14.52
312.00 18.88
313.00 28.64
314.00 22.18
315.00 16.43
316.00 14.32
317.00 14.42
318.00 16.81
319.00 23.31
320.00 33.14
321.00 20.25
322.00 16.67
323.00 16.04
324.00 17.89
325.00 23.18
326.00 25.66
327.00 19.45
328.00 16.97
329.00 17.28
330.00 20.87
331.00 36.92
332.00 23.14
333.00 17.58
334.00 16.33
335.00 17.78
336.00 22.08
337.00 31.48
338.00 42.54
339.00 34.85
340.00 30.71
341.00 23.98
342.00 20.07
343.00 18.68
344.00 19.68
345.00 23.77
346.00 30.79
347.00 25.06
348.00 21.80
349.00 21.92
350.00 24.48
351.00 26.04
352.00 23.99
353.00 23.37
354.00 24.91
355.00 25.76
356.00 24.14
357.00 23.85
358.00 26.62
359.00 35.89
