NAME ATR4518R7_1880_X_CO_M45_09T_yyR
FREQUENCY 1880
GAIN 14.54 dBd
TILT	ELECTRICAL
COMMENT DATE 05.08.2013 -45 degrees polarized system Lever position 09T deg
HORIZONTAL 360
0.00 0.11
1.00 0.08
2.00 0.05
3.00 0.03
4.00 0.02
5.00 0.01
6.00 0.00
7.00 0.00
8.00 0.01
9.00 0.02
10.00 0.03
11.00 0.05
12.00 0.08
13.00 0.11
14.00 0.15
15.00 0.20
16.00 0.25
17.00 0.31
18.00 0.38
19.00 0.45
20.00 0.54
21.00 0.63
22.00 0.74
23.00 0.85
24.00 0.97
25.00 1.10
26.00 1.25
27.00 1.40
28.00 1.56
29.00 1.74
30.00 1.93
31.00 2.12
32.00 2.33
33.00 2.55
34.00 2.78
35.00 3.02
36.00 3.27
37.00 3.54
38.00 3.81
39.00 4.09
40.00 4.39
41.00 4.69
42.00 5.00
43.00 5.32
44.00 5.65
45.00 5.99
46.00 6.33
47.00 6.68
48.00 7.04
49.00 7.40
50.00 7.77
51.00 8.14
52.00 8.52
53.00 8.89
54.00 9.28
55.00 9.66
56.00 10.05
57.00 10.44
58.00 10.82
59.00 11.21
60.00 11.60
61.00 11.99
62.00 12.39
63.00 12.78
64.00 13.17
65.00 13.56
66.00 13.95
67.00 14.34
68.00 14.72
69.00 15.11
70.00 15.49
71.00 15.87
72.00 16.25
73.00 16.63
74.00 17.01
75.00 17.38
76.00 17.76
77.00 18.13
78.00 18.50
79.00 18.86
80.00 19.23
81.00 19.60
82.00 19.96
83.00 20.33
84.00 20.70
85.00 21.07
86.00 21.44
87.00 21.82
88.00 22.21
89.00 22.60
90.00 23.00
91.00 23.41
92.00 23.82
93.00 24.25
94.00 24.69
95.00 25.14
96.00 25.60
97.00 26.08
98.00 26.57
99.00 27.07
100.00 27.59
101.00 28.11
102.00 28.65
103.00 29.19
104.00 29.73
105.00 30.27
106.00 30.78
107.00 31.27
108.00 31.71
109.00 32.09
110.00 32.39
111.00 32.60
112.00 32.72
113.00 32.74
114.00 32.67
115.00 32.52
116.00 32.32
117.00 32.09
118.00 31.84
119.00 31.58
120.00 31.33
121.00 31.10
122.00 30.90
123.00 30.73
124.00 30.60
125.00 30.51
126.00 30.47
127.00 30.47
128.00 30.52
129.00 30.63
130.00 30.80
131.00 31.02
132.00 31.31
133.00 31.67
134.00 32.10
135.00 32.60
136.00 33.20
137.00 33.89
138.00 34.68
139.00 35.58
140.00 36.60
141.00 37.75
142.00 38.98
143.00 40.27
144.00 41.44
145.00 42.25
146.00 42.46
147.00 42.03
148.00 41.19
149.00 40.19
150.00 39.22
151.00 38.35
152.00 37.60
153.00 36.99
154.00 36.51
155.00 36.15
156.00 35.91
157.00 35.79
158.00 35.78
159.00 35.88
160.00 36.10
161.00 36.44
162.00 36.91
163.00 37.53
164.00 38.31
165.00 39.28
166.00 40.50
167.00 42.01
168.00 43.91
169.00 46.34
170.00 49.27
171.00 51.59
172.00 50.72
173.00 47.81
174.00 45.11
175.00 42.95
176.00 41.25
177.00 39.89
178.00 38.79
179.00 37.90
180.00 37.18
181.00 36.60
182.00 36.15
183.00 35.80
184.00 35.56
185.00 35.40
186.00 35.33
187.00 35.34
188.00 35.41
189.00 35.55
190.00 35.74
191.00 35.98
192.00 36.24
193.00 36.52
194.00 36.79
195.00 37.01
196.00 37.17
197.00 37.23
198.00 37.18
199.00 37.01
200.00 36.72
201.00 36.35
202.00 35.91
203.00 35.43
204.00 34.94
205.00 34.45
206.00 33.98
207.00 33.52
208.00 33.10
209.00 32.71
210.00 32.35
211.00 32.02
212.00 31.73
213.00 31.46
214.00 31.22
215.00 31.00
216.00 30.81
217.00 30.63
218.00 30.48
219.00 30.34
220.00 30.22
221.00 30.11
222.00 30.01
223.00 29.92
224.00 29.85
225.00 29.79
226.00 29.73
227.00 29.69
228.00 29.66
229.00 29.64
230.00 29.62
231.00 29.62
232.00 29.62
233.00 29.63
234.00 29.65
235.00 29.67
236.00 29.69
237.00 29.71
238.00 29.72
239.00 29.72
240.00 29.71
241.00 29.67
242.00 29.61
243.00 29.51
244.00 29.38
245.00 29.22
246.00 29.01
247.00 28.77
248.00 28.49
249.00 28.18
250.00 27.85
251.00 27.49
252.00 27.12
253.00 26.73
254.00 26.33
255.00 25.93
256.00 25.53
257.00 25.13
258.00 24.73
259.00 24.33
260.00 23.94
261.00 23.56
262.00 23.18
263.00 22.80
264.00 22.43
265.00 22.07
266.00 21.71
267.00 21.36
268.00 21.01
269.00 20.66
270.00 20.32
271.00 19.98
272.00 19.64
273.00 19.30
274.00 18.97
275.00 18.63
276.00 18.30
277.00 17.97
278.00 17.64
279.00 17.31
280.00 16.98
281.00 16.65
282.00 16.33
283.00 16.00
284.00 15.68
285.00 15.36
286.00 15.04
287.00 14.73
288.00 14.42
289.00 14.11
290.00 13.80
291.00 13.50
292.00 13.20
293.00 12.90
294.00 12.61
295.00 12.33
296.00 12.04
297.00 11.76
298.00 11.48
299.00 11.21
300.00 10.94
301.00 10.68
302.00 10.42
303.00 10.16
304.00 9.90
305.00 9.65
306.00 9.39
307.00 9.14
308.00 8.90
309.00 8.65
310.00 8.40
311.00 8.16
312.00 7.92
313.00 7.68
314.00 7.43
315.00 7.19
316.00 6.95
317.00 6.72
318.00 6.48
319.00 6.24
320.00 6.00
321.00 5.77
322.00 5.53
323.00 5.30
324.00 5.07
325.00 4.84
326.00 4.62
327.00 4.40
328.00 4.18
329.00 3.96
330.00 3.75
331.00 3.55
332.00 3.34
333.00 3.14
334.00 2.95
335.00 2.76
336.00 2.58
337.00 2.41
338.00 2.24
339.00 2.07
340.00 1.91
341.00 1.76
342.00 1.62
343.00 1.48
344.00 1.35
345.00 1.22
346.00 1.11
347.00 1.00
348.00 0.89
349.00 0.79
350.00 0.70
351.00 0.61
352.00 0.54
353.00 0.46
354.00 0.40
355.00 0.33
356.00 0.28
357.00 0.23
358.00 0.18
359.00 0.14
VERTICAL 360
0.00 45.20
1.00 31.81
2.00 21.20
3.00 13.96
4.00 8.97
5.00 5.41
6.00 2.88
7.00 1.19
8.00 0.25
9.00 0.00
10.00 0.46
11.00 1.69
12.00 3.83
13.00 7.31
14.00 13.43
15.00 25.87
16.00 17.16
17.00 12.66
18.00 11.71
19.00 13.01
20.00 16.95
21.00 25.54
22.00 22.80
23.00 17.00
24.00 15.14
25.00 15.44
26.00 17.67
27.00 22.85
28.00 33.46
29.00 24.78
30.00 19.46
31.00 17.26
32.00 16.77
33.00 17.80
34.00 20.86
35.00 28.50
36.00 34.44
37.00 23.71
38.00 20.36
39.00 19.42
40.00 19.93
41.00 21.56
42.00 24.37
43.00 29.36
44.00 39.84
45.00 31.66
46.00 25.52
47.00 22.88
48.00 21.94
49.00 22.09
50.00 23.06
51.00 24.77
52.00 27.50
53.00 31.87
54.00 35.66
55.00 31.31
56.00 27.49
57.00 25.74
58.00 25.42
59.00 26.16
60.00 27.68
61.00 29.89
62.00 33.03
63.00 38.33
64.00 50.59
65.00 43.48
66.00 37.40
67.00 34.96
68.00 33.53
69.00 32.29
70.00 31.32
71.00 30.84
72.00 30.90
73.00 31.22
74.00 31.37
75.00 31.10
76.00 30.55
77.00 30.07
78.00 29.96
79.00 30.29
80.00 30.77
81.00 30.89
82.00 30.39
83.00 29.48
84.00 28.71
85.00 28.60
86.00 29.38
87.00 30.84
88.00 32.04
89.00 31.73
90.00 30.16
91.00 28.57
92.00 27.67
93.00 27.62
94.00 28.25
95.00 29.15
96.00 29.88
97.00 30.37
98.00 30.90
99.00 31.88
100.00 33.56
101.00 35.83
102.00 38.12
103.00 39.48
104.00 39.65
105.00 39.53
106.00 40.33
107.00 43.14
108.00 50.34
109.00 64.92
110.00 49.82
111.00 46.53
112.00 44.60
113.00 42.95
114.00 41.68
115.00 40.40
116.00 38.81
117.00 37.15
118.00 35.64
119.00 34.25
120.00 33.07
121.00 32.35
122.00 32.44
123.00 33.70
124.00 36.43
125.00 40.56
126.00 44.75
127.00 48.48
128.00 50.52
129.00 44.68
130.00 40.71
131.00 38.92
132.00 38.22
133.00 38.01
134.00 38.29
135.00 39.60
136.00 42.08
137.00 41.48
138.00 37.39
139.00 35.05
140.00 35.04
141.00 37.64
142.00 44.24
143.00 47.57
144.00 41.13
145.00 38.52
146.00 37.25
147.00 36.48
148.00 36.43
149.00 37.42
150.00 39.27
151.00 40.56
152.00 39.58
153.00 37.43
154.00 35.54
155.00 34.34
156.00 34.00
157.00 34.51
158.00 35.74
159.00 37.49
160.00 39.40
161.00 40.34
162.00 40.11
163.00 41.18
164.00 45.19
165.00 42.00
166.00 36.05
167.00 33.40
168.00 32.84
169.00 33.47
170.00 34.50
171.00 35.32
172.00 35.63
173.00 35.37
174.00 35.63
175.00 37.95
176.00 44.93
177.00 46.59
178.00 38.90
179.00 36.52
180.00 36.58
181.00 37.95
182.00 39.32
183.00 39.64
184.00 39.79
185.00 41.16
186.00 44.83
187.00 51.49
188.00 50.71
189.00 45.29
190.00 41.79
191.00 40.02
192.00 40.73
193.00 46.08
194.00 62.53
195.00 43.77
196.00 40.52
197.00 40.12
198.00 40.14
199.00 39.78
200.00 39.33
201.00 38.89
202.00 39.73
203.00 46.05
204.00 48.05
205.00 36.81
206.00 33.38
207.00 33.28
208.00 36.33
209.00 45.32
210.00 49.54
211.00 41.91
212.00 40.38
213.00 38.39
214.00 35.50
215.00 33.66
216.00 33.34
217.00 34.51
218.00 37.26
219.00 41.51
220.00 45.61
221.00 46.35
222.00 44.88
223.00 42.66
224.00 41.41
225.00 42.31
226.00 44.23
227.00 40.93
228.00 36.63
229.00 34.50
230.00 34.22
231.00 35.59
232.00 38.66
233.00 43.73
234.00 49.86
235.00 49.28
236.00 46.94
237.00 47.17
238.00 51.12
239.00 65.43
240.00 50.93
241.00 45.67
242.00 44.48
243.00 46.51
244.00 54.07
245.00 50.07
246.00 42.01
247.00 38.14
248.00 36.08
249.00 35.13
250.00 34.93
251.00 35.17
252.00 35.53
253.00 35.78
254.00 35.89
255.00 36.00
256.00 36.19
257.00 36.33
258.00 36.13
259.00 35.46
260.00 34.62
261.00 34.13
262.00 34.48
263.00 36.04
264.00 39.12
265.00 43.61
266.00 46.37
267.00 42.99
268.00 38.74
269.00 36.06
270.00 35.11
271.00 35.68
272.00 37.17
273.00 38.57
274.00 39.75
275.00 41.60
276.00 43.89
277.00 45.69
278.00 46.83
279.00 42.54
280.00 36.55
281.00 32.24
282.00 29.15
283.00 26.84
284.00 25.10
285.00 23.90
286.00 23.25
287.00 23.15
288.00 23.53
289.00 24.25
290.00 25.09
291.00 25.95
292.00 26.85
293.00 27.94
294.00 29.30
295.00 30.64
296.00 31.13
297.00 30.08
298.00 28.15
299.00 26.32
300.00 25.00
301.00 24.27
302.00 24.02
303.00 24.01
304.00 23.95
305.00 23.76
306.00 23.64
307.00 23.85
308.00 24.39
309.00 24.97
310.00 25.30
311.00 25.51
312.00 25.89
313.00 26.44
314.00 26.74
315.00 26.25
316.00 24.89
317.00 23.19
318.00 21.75
319.00 20.89
320.00 20.62
321.00 20.81
322.00 21.26
323.00 21.82
324.00 22.47
325.00 23.12
326.00 23.35
327.00 22.56
328.00 21.04
329.00 19.54
330.00 18.44
331.00 17.82
332.00 17.64
333.00 17.79
334.00 18.06
335.00 18.35
336.00 19.01
337.00 20.77
338.00 24.97
339.00 31.17
340.00 24.12
341.00 19.01
342.00 16.63
343.00 15.98
344.00 16.90
345.00 19.73
346.00 25.33
347.00 27.87
348.00 22.82
349.00 20.76
350.00 21.46
351.00 25.62
352.00 37.09
353.00 25.62
354.00 19.79
355.00 17.43
356.00 17.11
357.00 18.70
358.00 22.71
359.00 31.23
