NAME ATR4518R7_2350_X_CO_P45_06T_yL
FREQUENCY 2350
GAIN 15.37 dBd
TILT	ELECTRICAL
COMMENT DATE 05.08.2013 +45 degrees polarized system Lever position 06T deg
HORIZONTAL 360
0.00 0.01
1.00 0.00
2.00 0.01
3.00 0.02
4.00 0.05
5.00 0.09
6.00 0.14
7.00 0.20
8.00 0.27
9.00 0.34
10.00 0.42
11.00 0.51
12.00 0.59
13.00 0.68
14.00 0.77
15.00 0.86
16.00 0.95
17.00 1.04
18.00 1.13
19.00 1.22
20.00 1.32
21.00 1.41
22.00 1.51
23.00 1.60
24.00 1.71
25.00 1.81
26.00 1.92
27.00 2.04
28.00 2.16
29.00 2.30
30.00 2.44
31.00 2.59
32.00 2.74
33.00 2.91
34.00 3.08
35.00 3.27
36.00 3.46
37.00 3.66
38.00 3.87
39.00 4.08
40.00 4.31
41.00 4.53
42.00 4.77
43.00 5.01
44.00 5.25
45.00 5.50
46.00 5.75
47.00 6.01
48.00 6.27
49.00 6.53
50.00 6.79
51.00 7.06
52.00 7.33
53.00 7.60
54.00 7.88
55.00 8.17
56.00 8.45
57.00 8.75
58.00 9.05
59.00 9.36
60.00 9.68
61.00 10.01
62.00 10.34
63.00 10.70
64.00 11.06
65.00 11.43
66.00 11.82
67.00 12.21
68.00 12.63
69.00 13.05
70.00 13.48
71.00 13.93
72.00 14.38
73.00 14.84
74.00 15.31
75.00 15.77
76.00 16.24
77.00 16.70
78.00 17.15
79.00 17.60
80.00 18.03
81.00 18.44
82.00 18.83
83.00 19.20
84.00 19.55
85.00 19.87
86.00 20.17
87.00 20.44
88.00 20.69
89.00 20.92
90.00 21.13
91.00 21.33
92.00 21.52
93.00 21.70
94.00 21.88
95.00 22.06
96.00 22.24
97.00 22.43
98.00 22.64
99.00 22.85
100.00 23.07
101.00 23.31
102.00 23.56
103.00 23.81
104.00 24.07
105.00 24.34
106.00 24.60
107.00 24.86
108.00 25.10
109.00 25.31
110.00 25.50
111.00 25.66
112.00 25.77
113.00 25.86
114.00 25.91
115.00 25.93
116.00 25.95
117.00 25.95
118.00 25.96
119.00 25.98
120.00 26.03
121.00 26.11
122.00 26.23
123.00 26.40
124.00 26.62
125.00 26.91
126.00 27.25
127.00 27.66
128.00 28.14
129.00 28.69
130.00 29.30
131.00 29.96
132.00 30.65
133.00 31.33
134.00 31.98
135.00 32.52
136.00 32.90
137.00 33.07
138.00 33.04
139.00 32.84
140.00 32.52
141.00 32.13
142.00 31.72
143.00 31.33
144.00 30.97
145.00 30.66
146.00 30.40
147.00 30.19
148.00 30.04
149.00 29.95
150.00 29.92
151.00 29.95
152.00 30.05
153.00 30.22
154.00 30.46
155.00 30.79
156.00 31.19
157.00 31.66
158.00 32.20
159.00 32.76
160.00 33.29
161.00 33.70
162.00 33.88
163.00 33.76
164.00 33.33
165.00 32.68
166.00 31.92
167.00 31.13
168.00 30.39
169.00 29.73
170.00 29.18
171.00 28.75
172.00 28.44
173.00 28.26
174.00 28.22
175.00 28.31
176.00 28.54
177.00 28.93
178.00 29.48
179.00 30.20
180.00 31.11
181.00 32.22
182.00 33.50
183.00 34.88
184.00 36.12
185.00 36.78
186.00 36.56
187.00 35.63
188.00 34.43
189.00 33.28
190.00 32.31
191.00 31.54
192.00 30.98
193.00 30.63
194.00 30.47
195.00 30.51
196.00 30.75
197.00 31.20
198.00 31.88
199.00 32.82
200.00 34.06
201.00 35.70
202.00 37.86
203.00 40.72
204.00 44.27
205.00 46.34
206.00 43.94
207.00 40.78
208.00 38.37
209.00 36.65
210.00 35.42
211.00 34.58
212.00 34.05
213.00 33.80
214.00 33.80
215.00 34.02
216.00 34.47
217.00 35.10
218.00 35.88
219.00 36.67
220.00 37.23
221.00 37.28
222.00 36.67
223.00 35.58
224.00 34.29
225.00 33.02
226.00 31.86
227.00 30.84
228.00 29.98
229.00 29.26
230.00 28.67
231.00 28.20
232.00 27.84
233.00 27.58
234.00 27.42
235.00 27.33
236.00 27.32
237.00 27.37
238.00 27.46
239.00 27.59
240.00 27.74
241.00 27.88
242.00 28.01
243.00 28.09
244.00 28.12
245.00 28.08
246.00 27.96
247.00 27.79
248.00 27.56
249.00 27.29
250.00 27.00
251.00 26.69
252.00 26.39
253.00 26.09
254.00 25.81
255.00 25.54
256.00 25.29
257.00 25.04
258.00 24.79
259.00 24.54
260.00 24.28
261.00 23.99
262.00 23.68
263.00 23.34
264.00 22.97
265.00 22.57
266.00 22.14
267.00 21.70
268.00 21.25
269.00 20.79
270.00 20.34
271.00 19.90
272.00 19.47
273.00 19.06
274.00 18.67
275.00 18.31
276.00 17.96
277.00 17.64
278.00 17.34
279.00 17.06
280.00 16.80
281.00 16.56
282.00 16.33
283.00 16.11
284.00 15.90
285.00 15.69
286.00 15.48
287.00 15.28
288.00 15.06
289.00 14.84
290.00 14.62
291.00 14.38
292.00 14.13
293.00 13.87
294.00 13.60
295.00 13.32
296.00 13.03
297.00 12.73
298.00 12.42
299.00 12.11
300.00 11.79
301.00 11.46
302.00 11.13
303.00 10.80
304.00 10.47
305.00 10.13
306.00 9.80
307.00 9.46
308.00 9.13
309.00 8.79
310.00 8.46
311.00 8.13
312.00 7.79
313.00 7.47
314.00 7.14
315.00 6.82
316.00 6.50
317.00 6.20
318.00 5.89
319.00 5.59
320.00 5.30
321.00 5.02
322.00 4.75
323.00 4.50
324.00 4.25
325.00 4.01
326.00 3.79
327.00 3.58
328.00 3.38
329.00 3.19
330.00 3.02
331.00 2.86
332.00 2.71
333.00 2.57
334.00 2.44
335.00 2.32
336.00 2.20
337.00 2.09
338.00 1.99
339.00 1.88
340.00 1.78
341.00 1.68
342.00 1.58
343.00 1.47
344.00 1.37
345.00 1.26
346.00 1.15
347.00 1.04
348.00 0.92
349.00 0.81
350.00 0.70
351.00 0.60
352.00 0.49
353.00 0.40
354.00 0.31
355.00 0.23
356.00 0.16
357.00 0.11
358.00 0.06
359.00 0.03
VERTICAL 360
0.00 28.56
1.00 16.65
2.00 9.58
3.00 5.07
4.00 2.18
5.00 0.54
6.00 0.00
7.00 0.57
8.00 2.41
9.00 5.97
10.00 12.91
11.00 32.66
12.00 14.71
13.00 11.87
14.00 12.50
15.00 15.93
16.00 21.20
17.00 18.84
18.00 16.05
19.00 16.04
20.00 18.54
21.00 22.98
22.00 21.76
23.00 17.75
24.00 15.93
25.00 16.24
26.00 19.08
27.00 27.15
28.00 31.47
29.00 22.27
30.00 20.09
31.00 20.37
32.00 21.94
33.00 23.18
34.00 21.81
35.00 19.26
36.00 17.43
37.00 16.57
38.00 16.41
39.00 16.72
40.00 17.47
41.00 18.77
42.00 20.70
43.00 23.23
44.00 26.82
45.00 33.22
46.00 31.84
47.00 25.56
48.00 22.82
49.00 22.17
50.00 22.87
51.00 24.24
52.00 25.91
53.00 28.44
54.00 33.64
55.00 38.51
56.00 30.56
57.00 26.72
58.00 25.26
59.00 25.25
60.00 26.24
61.00 27.93
62.00 30.12
63.00 32.55
64.00 34.85
65.00 36.71
66.00 38.24
67.00 39.46
68.00 39.00
69.00 37.30
70.00 36.32
71.00 36.36
72.00 36.62
73.00 36.33
74.00 35.73
75.00 35.60
76.00 36.53
77.00 38.79
78.00 42.16
79.00 45.90
80.00 47.99
81.00 45.26
82.00 41.76
83.00 39.36
84.00 37.70
85.00 36.38
86.00 35.39
87.00 35.23
88.00 36.46
89.00 39.43
90.00 43.79
91.00 46.97
92.00 45.56
93.00 41.86
94.00 39.46
95.00 38.70
96.00 38.88
97.00 39.10
98.00 39.13
99.00 39.43
100.00 40.43
101.00 42.16
102.00 43.57
103.00 43.20
104.00 42.39
105.00 42.75
106.00 45.05
107.00 50.08
108.00 58.40
109.00 60.19
110.00 52.03
111.00 47.25
112.00 46.31
113.00 49.61
114.00 58.30
115.00 51.24
116.00 47.68
117.00 45.51
118.00 43.02
119.00 41.45
120.00 41.59
121.00 44.03
122.00 51.30
123.00 56.41
124.00 45.83
125.00 42.63
126.00 41.59
127.00 41.57
128.00 42.56
129.00 45.27
130.00 48.90
131.00 46.37
132.00 43.60
133.00 43.63
134.00 46.22
135.00 48.09
136.00 44.75
137.00 41.57
138.00 39.40
139.00 37.93
140.00 37.01
141.00 36.44
142.00 35.97
143.00 35.53
144.00 35.36
145.00 35.81
146.00 37.18
147.00 39.63
148.00 43.06
149.00 47.15
150.00 51.77
151.00 52.86
152.00 45.34
153.00 39.64
154.00 36.15
155.00 34.40
156.00 34.09
157.00 35.06
158.00 37.23
159.00 40.61
160.00 43.61
161.00 43.11
162.00 42.78
163.00 44.10
164.00 42.57
165.00 38.76
166.00 36.38
167.00 35.56
168.00 36.31
169.00 39.57
170.00 49.91
171.00 41.56
172.00 35.20
173.00 32.67
174.00 32.22
175.00 33.33
176.00 35.16
177.00 35.18
178.00 33.36
179.00 32.22
180.00 32.50
181.00 34.10
182.00 36.54
183.00 38.69
184.00 39.49
185.00 39.52
186.00 39.35
187.00 37.02
188.00 33.29
189.00 30.78
190.00 30.07
191.00 31.32
192.00 34.89
193.00 41.24
194.00 40.05
195.00 35.37
196.00 33.20
197.00 33.00
198.00 34.87
199.00 39.50
200.00 42.89
201.00 37.90
202.00 35.05
203.00 34.27
204.00 35.16
205.00 38.02
206.00 43.85
207.00 47.46
208.00 43.06
209.00 41.78
210.00 42.80
211.00 45.13
212.00 48.01
213.00 51.47
214.00 53.90
215.00 46.64
216.00 40.81
217.00 37.50
218.00 35.90
219.00 35.30
220.00 34.93
221.00 34.12
222.00 32.87
223.00 31.77
224.00 31.37
225.00 31.87
226.00 32.82
227.00 33.07
228.00 32.27
229.00 31.46
230.00 31.22
231.00 31.35
232.00 31.32
233.00 30.84
234.00 30.32
235.00 30.22
236.00 30.71
237.00 31.79
238.00 33.45
239.00 35.80
240.00 39.12
241.00 43.91
242.00 49.62
243.00 47.75
244.00 42.82
245.00 39.42
246.00 37.34
247.00 36.10
248.00 35.19
249.00 34.33
250.00 33.60
251.00 33.28
252.00 33.60
253.00 34.54
254.00 35.77
255.00 36.84
256.00 37.63
257.00 38.39
258.00 39.66
259.00 42.06
260.00 46.30
261.00 55.00
262.00 52.06
263.00 44.02
264.00 40.67
265.00 39.76
266.00 40.21
267.00 40.55
268.00 39.03
269.00 36.08
270.00 33.40
271.00 31.71
272.00 31.09
273.00 31.43
274.00 32.54
275.00 33.88
276.00 33.93
277.00 32.09
278.00 29.85
279.00 28.03
280.00 26.68
281.00 25.73
282.00 25.01
283.00 24.33
284.00 23.50
285.00 22.48
286.00 21.33
287.00 20.15
288.00 19.04
289.00 18.03
290.00 17.12
291.00 16.29
292.00 15.51
293.00 14.83
294.00 14.25
295.00 13.81
296.00 13.53
297.00 13.41
298.00 13.50
299.00 13.95
300.00 14.99
301.00 16.97
302.00 20.59
303.00 28.17
304.00 37.16
305.00 24.74
306.00 20.96
307.00 19.31
308.00 18.76
309.00 19.04
310.00 20.28
311.00 22.98
312.00 28.28
313.00 30.71
314.00 24.53
315.00 21.36
316.00 20.48
317.00 21.42
318.00 23.69
319.00 24.42
320.00 21.76
321.00 19.34
322.00 18.23
323.00 18.51
324.00 20.62
325.00 26.43
326.00 30.13
327.00 20.81
328.00 16.94
329.00 15.66
330.00 16.42
331.00 19.50
332.00 26.97
333.00 36.38
334.00 26.07
335.00 24.94
336.00 26.89
337.00 25.13
338.00 20.92
339.00 18.91
340.00 19.35
341.00 23.03
342.00 32.07
343.00 23.42
344.00 18.69
345.00 17.37
346.00 18.63
347.00 23.68
348.00 42.49
349.00 22.30
350.00 18.05
351.00 17.16
352.00 18.50
353.00 21.50
354.00 24.12
355.00 24.94
356.00 27.33
357.00 32.54
358.00 29.20
359.00 28.25
