NAME ATR4518R7_0894_X_CO_M45_02T
FREQUENCY 0894
GAIN 14.76 dBd
TILT	ELECTRICAL
COMMENT DATE 05.08.2013 -45 degrees polarized system Lever position 02T deg
HORIZONTAL 360
0.00 0.01
1.00 0.00
2.00 0.00
3.00 0.01
4.00 0.03
5.00 0.05
6.00 0.07
7.00 0.11
8.00 0.15
9.00 0.20
10.00 0.25
11.00 0.31
12.00 0.38
13.00 0.46
14.00 0.54
15.00 0.63
16.00 0.72
17.00 0.82
18.00 0.93
19.00 1.05
20.00 1.17
21.00 1.30
22.00 1.44
23.00 1.58
24.00 1.73
25.00 1.89
26.00 2.05
27.00 2.22
28.00 2.40
29.00 2.59
30.00 2.78
31.00 2.98
32.00 3.19
33.00 3.40
34.00 3.62
35.00 3.84
36.00 4.08
37.00 4.32
38.00 4.57
39.00 4.82
40.00 5.08
41.00 5.35
42.00 5.63
43.00 5.91
44.00 6.20
45.00 6.49
46.00 6.80
47.00 7.11
48.00 7.42
49.00 7.75
50.00 8.08
51.00 8.41
52.00 8.76
53.00 9.11
54.00 9.46
55.00 9.83
56.00 10.20
57.00 10.58
58.00 10.96
59.00 11.35
60.00 11.75
61.00 12.15
62.00 12.55
63.00 12.97
64.00 13.39
65.00 13.81
66.00 14.24
67.00 14.68
68.00 15.12
69.00 15.56
70.00 16.01
71.00 16.46
72.00 16.91
73.00 17.36
74.00 17.82
75.00 18.27
76.00 18.73
77.00 19.18
78.00 19.63
79.00 20.07
80.00 20.51
81.00 20.95
82.00 21.37
83.00 21.79
84.00 22.19
85.00 22.59
86.00 22.97
87.00 23.34
88.00 23.70
89.00 24.05
90.00 24.38
91.00 24.70
92.00 25.01
93.00 25.31
94.00 25.60
95.00 25.88
96.00 26.15
97.00 26.41
98.00 26.68
99.00 26.93
100.00 27.19
101.00 27.44
102.00 27.70
103.00 27.95
104.00 28.21
105.00 28.47
106.00 28.74
107.00 29.01
108.00 29.29
109.00 29.57
110.00 29.86
111.00 30.15
112.00 30.45
113.00 30.76
114.00 31.07
115.00 31.38
116.00 31.70
117.00 32.03
118.00 32.35
119.00 32.68
120.00 33.01
121.00 33.33
122.00 33.66
123.00 33.98
124.00 34.30
125.00 34.60
126.00 34.89
127.00 35.18
128.00 35.44
129.00 35.70
130.00 35.93
131.00 36.14
132.00 36.33
133.00 36.49
134.00 36.63
135.00 36.74
136.00 36.82
137.00 36.88
138.00 36.91
139.00 36.92
140.00 36.90
141.00 36.85
142.00 36.79
143.00 36.71
144.00 36.61
145.00 36.50
146.00 36.37
147.00 36.24
148.00 36.09
149.00 35.94
150.00 35.78
151.00 35.63
152.00 35.46
153.00 35.31
154.00 35.15
155.00 35.00
156.00 34.84
157.00 34.70
158.00 34.56
159.00 34.42
160.00 34.30
161.00 34.18
162.00 34.07
163.00 33.98
164.00 33.89
165.00 33.81
166.00 33.75
167.00 33.69
168.00 33.65
169.00 33.62
170.00 33.60
171.00 33.60
172.00 33.61
173.00 33.64
174.00 33.67
175.00 33.73
176.00 33.80
177.00 33.89
178.00 33.99
179.00 34.11
180.00 34.25
181.00 34.41
182.00 34.58
183.00 34.78
184.00 34.99
185.00 35.22
186.00 35.48
187.00 35.75
188.00 36.05
189.00 36.36
190.00 36.70
191.00 37.06
192.00 37.43
193.00 37.83
194.00 38.24
195.00 38.65
196.00 39.08
197.00 39.51
198.00 39.93
199.00 40.33
200.00 40.70
201.00 41.04
202.00 41.31
203.00 41.52
204.00 41.66
205.00 41.71
206.00 41.70
207.00 41.61
208.00 41.46
209.00 41.26
210.00 41.04
211.00 40.78
212.00 40.52
213.00 40.24
214.00 39.97
215.00 39.70
216.00 39.44
217.00 39.20
218.00 38.96
219.00 38.73
220.00 38.51
221.00 38.31
222.00 38.10
223.00 37.91
224.00 37.72
225.00 37.52
226.00 37.33
227.00 37.13
228.00 36.92
229.00 36.71
230.00 36.49
231.00 36.25
232.00 36.00
233.00 35.74
234.00 35.46
235.00 35.17
236.00 34.87
237.00 34.55
238.00 34.22
239.00 33.88
240.00 33.53
241.00 33.17
242.00 32.80
243.00 32.42
244.00 32.04
245.00 31.65
246.00 31.26
247.00 30.86
248.00 30.46
249.00 30.05
250.00 29.64
251.00 29.23
252.00 28.81
253.00 28.40
254.00 27.97
255.00 27.55
256.00 27.12
257.00 26.70
258.00 26.27
259.00 25.84
260.00 25.41
261.00 24.98
262.00 24.54
263.00 24.12
264.00 23.69
265.00 23.26
266.00 22.83
267.00 22.41
268.00 21.99
269.00 21.57
270.00 21.15
271.00 20.74
272.00 20.33
273.00 19.93
274.00 19.53
275.00 19.13
276.00 18.74
277.00 18.35
278.00 17.97
279.00 17.59
280.00 17.21
281.00 16.84
282.00 16.48
283.00 16.11
284.00 15.76
285.00 15.40
286.00 15.05
287.00 14.71
288.00 14.37
289.00 14.03
290.00 13.69
291.00 13.36
292.00 13.03
293.00 12.71
294.00 12.39
295.00 12.07
296.00 11.76
297.00 11.45
298.00 11.14
299.00 10.83
300.00 10.53
301.00 10.23
302.00 9.94
303.00 9.64
304.00 9.35
305.00 9.07
306.00 8.78
307.00 8.50
308.00 8.22
309.00 7.95
310.00 7.68
311.00 7.41
312.00 7.14
313.00 6.88
314.00 6.62
315.00 6.37
316.00 6.12
317.00 5.87
318.00 5.63
319.00 5.39
320.00 5.15
321.00 4.92
322.00 4.70
323.00 4.47
324.00 4.26
325.00 4.04
326.00 3.83
327.00 3.63
328.00 3.43
329.00 3.24
330.00 3.05
331.00 2.86
332.00 2.68
333.00 2.51
334.00 2.34
335.00 2.18
336.00 2.02
337.00 1.87
338.00 1.72
339.00 1.58
340.00 1.45
341.00 1.32
342.00 1.19
343.00 1.07
344.00 0.96
345.00 0.86
346.00 0.76
347.00 0.66
348.00 0.57
349.00 0.49
350.00 0.42
351.00 0.35
352.00 0.28
353.00 0.23
354.00 0.18
355.00 0.13
356.00 0.10
357.00 0.06
358.00 0.04
359.00 0.02
VERTICAL 360
0.00 0.65
1.00 0.14
2.00 0.00
3.00 0.24
4.00 0.86
5.00 1.88
6.00 3.34
7.00 5.29
8.00 7.86
9.00 11.22
10.00 15.69
11.00 21.64
12.00 26.65
13.00 26.06
14.00 26.26
15.00 29.91
16.00 41.20
17.00 29.51
18.00 23.63
19.00 20.69
20.00 19.22
21.00 18.78
22.00 19.24
23.00 20.72
24.00 23.57
25.00 28.89
26.00 37.36
27.00 30.54
28.00 26.55
29.00 25.37
30.00 26.09
31.00 28.78
32.00 33.40
33.00 31.14
34.00 25.34
35.00 21.36
36.00 18.54
37.00 16.50
38.00 15.08
39.00 14.20
40.00 13.83
41.00 13.91
42.00 14.37
43.00 15.16
44.00 16.24
45.00 17.61
46.00 19.40
47.00 21.77
48.00 25.07
49.00 29.91
50.00 38.21
51.00 51.12
52.00 40.34
53.00 38.32
54.00 37.94
55.00 36.95
56.00 35.48
57.00 34.42
58.00 34.11
59.00 34.58
60.00 35.82
61.00 37.64
62.00 39.47
63.00 40.72
64.00 41.39
65.00 41.32
66.00 39.76
67.00 37.02
68.00 34.33
69.00 32.45
70.00 31.65
71.00 32.05
72.00 33.68
73.00 36.08
74.00 36.86
75.00 34.35
76.00 31.38
77.00 29.27
78.00 28.19
79.00 28.12
80.00 28.93
81.00 29.98
82.00 29.94
83.00 28.89
84.00 27.43
85.00 26.22
86.00 25.74
87.00 26.20
88.00 27.45
89.00 29.07
90.00 30.40
91.00 30.80
92.00 30.11
93.00 29.18
94.00 28.74
95.00 29.10
96.00 30.36
97.00 32.35
98.00 34.71
99.00 37.35
100.00 41.18
101.00 46.88
102.00 44.03
103.00 39.66
104.00 37.67
105.00 37.06
106.00 37.30
107.00 38.09
108.00 39.02
109.00 39.41
110.00 39.07
111.00 38.70
112.00 38.93
113.00 39.90
114.00 41.34
115.00 42.19
116.00 41.50
117.00 40.22
118.00 39.41
119.00 39.35
120.00 39.99
121.00 40.95
122.00 41.31
123.00 40.31
124.00 38.63
125.00 37.15
126.00 36.18
127.00 35.77
128.00 35.89
129.00 36.34
130.00 36.59
131.00 36.20
132.00 35.40
133.00 34.77
134.00 34.61
135.00 34.95
136.00 35.67
137.00 36.51
138.00 37.22
139.00 37.90
140.00 38.97
141.00 41.02
142.00 44.71
143.00 48.74
144.00 45.60
145.00 42.11
146.00 40.84
147.00 41.72
148.00 45.51
149.00 58.63
150.00 49.99
151.00 43.51
152.00 40.78
153.00 39.19
154.00 37.70
155.00 35.97
156.00 34.12
157.00 32.51
158.00 31.44
159.00 31.10
160.00 31.55
161.00 32.79
162.00 34.76
163.00 37.36
164.00 40.50
165.00 44.51
166.00 50.79
167.00 48.90
168.00 41.55
169.00 37.23
170.00 34.70
171.00 33.43
172.00 33.12
173.00 33.51
174.00 34.26
175.00 34.94
176.00 35.18
177.00 34.94
178.00 34.49
179.00 34.19
180.00 34.09
181.00 34.17
182.00 34.34
183.00 34.55
184.00 34.83
185.00 35.27
186.00 36.03
187.00 37.27
188.00 38.95
189.00 40.32
190.00 40.21
191.00 38.97
192.00 37.66
193.00 36.61
194.00 35.87
195.00 35.55
196.00 35.76
197.00 36.67
198.00 38.45
199.00 41.36
200.00 45.42
201.00 47.29
202.00 44.72
203.00 42.27
204.00 40.33
205.00 38.47
206.00 36.77
207.00 35.53
208.00 34.87
209.00 34.74
210.00 34.92
211.00 35.09
212.00 34.90
213.00 34.21
214.00 33.17
215.00 32.07
216.00 31.13
217.00 30.48
218.00 30.18
219.00 30.24
220.00 30.66
221.00 31.42
222.00 32.47
223.00 33.75
224.00 35.20
225.00 36.80
226.00 38.43
227.00 39.67
228.00 40.21
229.00 40.49
230.00 41.18
231.00 42.48
232.00 44.11
233.00 45.11
234.00 44.53
235.00 43.15
236.00 42.32
237.00 42.95
238.00 45.92
239.00 51.08
240.00 46.45
241.00 41.76
242.00 39.55
243.00 38.76
244.00 38.68
245.00 38.79
246.00 38.60
247.00 37.74
248.00 36.45
249.00 35.37
250.00 34.90
251.00 35.01
252.00 35.39
253.00 35.83
254.00 36.37
255.00 37.08
256.00 37.67
257.00 37.69
258.00 37.25
259.00 36.64
260.00 36.00
261.00 35.56
262.00 35.63
263.00 36.30
264.00 37.26
265.00 37.93
266.00 38.10
267.00 37.96
268.00 37.59
269.00 36.91
270.00 35.96
271.00 34.80
272.00 33.59
273.00 32.53
274.00 31.75
275.00 31.25
276.00 30.98
277.00 30.90
278.00 30.96
279.00 31.01
280.00 30.94
281.00 30.71
282.00 30.34
283.00 29.91
284.00 29.46
285.00 29.09
286.00 28.95
287.00 29.16
288.00 29.79
289.00 30.81
290.00 32.14
291.00 33.61
292.00 35.05
293.00 36.38
294.00 37.43
295.00 37.61
296.00 36.29
297.00 34.09
298.00 32.04
299.00 30.56
300.00 29.70
301.00 29.39
302.00 29.57
303.00 30.24
304.00 31.53
305.00 33.82
306.00 38.34
307.00 51.25
308.00 37.49
309.00 30.37
310.00 25.99
311.00 22.85
312.00 20.47
313.00 18.66
314.00 17.31
315.00 16.34
316.00 15.68
317.00 15.26
318.00 15.07
319.00 15.10
320.00 15.39
321.00 16.03
322.00 17.10
323.00 18.74
324.00 21.06
325.00 24.22
326.00 28.38
327.00 33.59
328.00 39.20
329.00 40.91
330.00 37.77
331.00 34.60
332.00 32.37
333.00 30.96
334.00 30.01
335.00 28.95
336.00 27.39
337.00 25.48
338.00 23.62
339.00 22.05
340.00 20.87
341.00 20.13
342.00 19.96
343.00 20.50
344.00 22.04
345.00 25.20
346.00 32.15
347.00 38.40
348.00 27.87
349.00 24.36
350.00 23.75
351.00 25.74
352.00 26.84
353.00 19.88
354.00 14.10
355.00 9.99
356.00 6.94
357.00 4.61
358.00 2.84
359.00 1.54
