NAME ATR4518R7_1750_X_CO_P45_00T_yL
FREQUENCY 1750
GAIN 14.85 dBd
TILT	ELECTRICAL
COMMENT DATE 05.08.2013 +45 degrees polarized system Lever position 00T deg
HORIZONTAL 360
0.00 0.01
1.00 0.00
2.00 0.00
3.00 0.00
4.00 0.01
5.00 0.02
6.00 0.04
7.00 0.07
8.00 0.10
9.00 0.14
10.00 0.18
11.00 0.22
12.00 0.27
13.00 0.33
14.00 0.38
15.00 0.45
16.00 0.52
17.00 0.59
18.00 0.66
19.00 0.74
20.00 0.83
21.00 0.92
22.00 1.01
23.00 1.11
24.00 1.22
25.00 1.32
26.00 1.44
27.00 1.56
28.00 1.69
29.00 1.82
30.00 1.96
31.00 2.10
32.00 2.25
33.00 2.41
34.00 2.57
35.00 2.74
36.00 2.91
37.00 3.09
38.00 3.27
39.00 3.46
40.00 3.66
41.00 3.86
42.00 4.06
43.00 4.27
44.00 4.48
45.00 4.70
46.00 4.92
47.00 5.14
48.00 5.37
49.00 5.60
50.00 5.83
51.00 6.07
52.00 6.31
53.00 6.55
54.00 6.80
55.00 7.05
56.00 7.30
57.00 7.56
58.00 7.82
59.00 8.09
60.00 8.37
61.00 8.65
62.00 8.93
63.00 9.23
64.00 9.53
65.00 9.84
66.00 10.16
67.00 10.48
68.00 10.82
69.00 11.17
70.00 11.52
71.00 11.88
72.00 12.26
73.00 12.64
74.00 13.03
75.00 13.42
76.00 13.83
77.00 14.24
78.00 14.65
79.00 15.07
80.00 15.49
81.00 15.90
82.00 16.32
83.00 16.72
84.00 17.12
85.00 17.51
86.00 17.88
87.00 18.24
88.00 18.58
89.00 18.91
90.00 19.22
91.00 19.52
92.00 19.80
93.00 20.07
94.00 20.34
95.00 20.60
96.00 20.86
97.00 21.11
98.00 21.38
99.00 21.65
100.00 21.93
101.00 22.22
102.00 22.53
103.00 22.84
104.00 23.17
105.00 23.51
106.00 23.85
107.00 24.19
108.00 24.54
109.00 24.87
110.00 25.20
111.00 25.52
112.00 25.82
113.00 26.11
114.00 26.38
115.00 26.64
116.00 26.90
117.00 27.16
118.00 27.43
119.00 27.71
120.00 28.01
121.00 28.33
122.00 28.68
123.00 29.04
124.00 29.41
125.00 29.79
126.00 30.13
127.00 30.44
128.00 30.66
129.00 30.79
130.00 30.80
131.00 30.69
132.00 30.49
133.00 30.21
134.00 29.90
135.00 29.58
136.00 29.26
137.00 28.99
138.00 28.76
139.00 28.60
140.00 28.51
141.00 28.49
142.00 28.55
143.00 28.69
144.00 28.92
145.00 29.23
146.00 29.63
147.00 30.13
148.00 30.70
149.00 31.35
150.00 32.06
151.00 32.79
152.00 33.50
153.00 34.11
154.00 34.55
155.00 34.76
156.00 34.73
157.00 34.50
158.00 34.15
159.00 33.76
160.00 33.39
161.00 33.07
162.00 32.85
163.00 32.72
164.00 32.69
165.00 32.78
166.00 32.98
167.00 33.29
168.00 33.71
169.00 34.23
170.00 34.82
171.00 35.46
172.00 36.08
173.00 36.59
174.00 36.90
175.00 36.92
176.00 36.65
177.00 36.17
178.00 35.58
179.00 34.96
180.00 34.38
181.00 33.88
182.00 33.48
183.00 33.19
184.00 33.01
185.00 32.96
186.00 33.03
187.00 33.24
188.00 33.58
189.00 34.06
190.00 34.71
191.00 35.53
192.00 36.54
193.00 37.76
194.00 39.16
195.00 40.64
196.00 41.84
197.00 42.21
198.00 41.46
199.00 40.05
200.00 38.48
201.00 37.03
202.00 35.76
203.00 34.69
204.00 33.78
205.00 33.03
206.00 32.42
207.00 31.92
208.00 31.54
209.00 31.25
210.00 31.06
211.00 30.97
212.00 30.97
213.00 31.05
214.00 31.23
215.00 31.51
216.00 31.89
217.00 32.38
218.00 33.00
219.00 33.78
220.00 34.73
221.00 35.89
222.00 37.33
223.00 39.08
224.00 41.14
225.00 43.17
226.00 43.96
227.00 42.58
228.00 40.24
229.00 37.99
230.00 36.07
231.00 34.45
232.00 33.10
233.00 31.95
234.00 30.98
235.00 30.14
236.00 29.44
237.00 28.84
238.00 28.33
239.00 27.90
240.00 27.56
241.00 27.27
242.00 27.04
243.00 26.86
244.00 26.71
245.00 26.60
246.00 26.50
247.00 26.41
248.00 26.32
249.00 26.20
250.00 26.07
251.00 25.89
252.00 25.68
253.00 25.42
254.00 25.12
255.00 24.79
256.00 24.43
257.00 24.04
258.00 23.64
259.00 23.24
260.00 22.84
261.00 22.44
262.00 22.05
263.00 21.67
264.00 21.31
265.00 20.95
266.00 20.61
267.00 20.27
268.00 19.95
269.00 19.63
270.00 19.32
271.00 19.01
272.00 18.70
273.00 18.40
274.00 18.09
275.00 17.77
276.00 17.46
277.00 17.14
278.00 16.82
279.00 16.49
280.00 16.16
281.00 15.82
282.00 15.49
283.00 15.15
284.00 14.81
285.00 14.48
286.00 14.14
287.00 13.81
288.00 13.47
289.00 13.14
290.00 12.82
291.00 12.50
292.00 12.19
293.00 11.88
294.00 11.57
295.00 11.27
296.00 10.97
297.00 10.67
298.00 10.39
299.00 10.10
300.00 9.81
301.00 9.53
302.00 9.26
303.00 8.99
304.00 8.72
305.00 8.46
306.00 8.19
307.00 7.93
308.00 7.68
309.00 7.43
310.00 7.18
311.00 6.93
312.00 6.69
313.00 6.46
314.00 6.22
315.00 5.99
316.00 5.77
317.00 5.55
318.00 5.33
319.00 5.11
320.00 4.90
321.00 4.69
322.00 4.48
323.00 4.28
324.00 4.08
325.00 3.88
326.00 3.69
327.00 3.50
328.00 3.31
329.00 3.13
330.00 2.95
331.00 2.77
332.00 2.60
333.00 2.43
334.00 2.27
335.00 2.11
336.00 1.96
337.00 1.81
338.00 1.67
339.00 1.53
340.00 1.40
341.00 1.28
342.00 1.16
343.00 1.04
344.00 0.94
345.00 0.83
346.00 0.74
347.00 0.65
348.00 0.56
349.00 0.49
350.00 0.41
351.00 0.35
352.00 0.29
353.00 0.23
354.00 0.18
355.00 0.14
356.00 0.10
357.00 0.07
358.00 0.04
359.00 0.02
VERTICAL 360
0.00 0.05
1.00 0.11
2.00 0.84
3.00 2.32
4.00 4.71
5.00 8.45
6.00 14.84
7.00 25.99
8.00 17.31
9.00 13.80
10.00 13.24
11.00 14.75
12.00 18.84
13.00 29.86
14.00 23.90
15.00 17.64
16.00 15.29
17.00 14.76
18.00 15.37
19.00 16.62
20.00 17.68
21.00 17.38
22.00 16.00
23.00 14.86
24.00 14.67
25.00 15.72
26.00 18.24
27.00 22.22
28.00 24.61
29.00 21.74
30.00 18.60
31.00 16.45
32.00 15.28
33.00 15.09
34.00 15.87
35.00 17.42
36.00 19.34
37.00 21.11
38.00 22.61
39.00 24.09
40.00 25.41
41.00 25.98
42.00 25.51
43.00 24.32
44.00 22.82
45.00 21.40
46.00 20.27
47.00 19.47
48.00 18.99
49.00 18.81
50.00 19.02
51.00 19.73
52.00 21.05
53.00 23.03
54.00 25.58
55.00 28.24
56.00 29.75
57.00 29.43
58.00 28.54
59.00 28.08
60.00 28.13
61.00 28.49
62.00 28.90
63.00 29.23
64.00 29.57
65.00 30.11
66.00 30.95
67.00 31.94
68.00 32.98
69.00 34.08
70.00 35.34
71.00 36.79
72.00 38.32
73.00 39.79
74.00 41.57
75.00 44.90
76.00 51.66
77.00 50.29
78.00 45.60
79.00 44.59
80.00 44.86
81.00 42.14
82.00 38.20
83.00 35.56
84.00 34.28
85.00 34.19
86.00 35.21
87.00 36.86
88.00 37.34
89.00 36.19
90.00 35.50
91.00 36.11
92.00 37.34
93.00 37.37
94.00 36.38
95.00 36.15
96.00 37.33
97.00 39.94
98.00 43.53
99.00 45.88
100.00 44.29
101.00 42.27
102.00 42.05
103.00 44.05
104.00 48.12
105.00 51.73
106.00 51.94
107.00 49.75
108.00 45.88
109.00 42.61
110.00 40.64
111.00 40.06
112.00 40.77
113.00 42.21
114.00 43.19
115.00 42.86
116.00 41.68
117.00 40.82
118.00 41.18
119.00 43.14
120.00 46.45
121.00 49.68
122.00 51.48
123.00 52.29
124.00 52.13
125.00 51.74
126.00 51.99
127.00 53.59
128.00 53.12
129.00 47.18
130.00 42.33
131.00 39.06
132.00 36.79
133.00 35.12
134.00 33.77
135.00 32.65
136.00 31.79
137.00 31.29
138.00 31.28
139.00 31.89
140.00 33.18
141.00 35.09
142.00 37.56
143.00 41.00
144.00 46.95
145.00 45.85
146.00 38.76
147.00 35.23
148.00 34.07
149.00 34.93
150.00 37.93
151.00 43.43
152.00 46.99
153.00 41.73
154.00 37.39
155.00 34.75
156.00 33.60
157.00 33.81
158.00 35.23
159.00 37.77
160.00 41.31
161.00 43.89
162.00 42.07
163.00 39.83
164.00 39.23
165.00 40.17
166.00 41.44
167.00 40.51
168.00 37.81
169.00 35.24
170.00 33.42
171.00 32.54
172.00 32.67
173.00 33.87
174.00 36.22
175.00 39.72
176.00 42.58
177.00 40.32
178.00 36.78
179.00 34.30
180.00 32.97
181.00 32.76
182.00 33.62
183.00 35.63
184.00 38.82
185.00 42.62
186.00 44.33
187.00 43.27
188.00 42.15
189.00 41.84
190.00 42.86
191.00 45.49
192.00 44.72
193.00 39.82
194.00 36.64
195.00 35.20
196.00 34.88
197.00 35.20
198.00 36.07
199.00 37.94
200.00 41.66
201.00 49.04
202.00 56.69
203.00 52.07
204.00 53.72
205.00 48.69
206.00 42.67
207.00 39.48
208.00 37.84
209.00 36.80
210.00 35.87
211.00 35.06
212.00 34.50
213.00 34.25
214.00 34.30
215.00 34.67
216.00 35.21
217.00 35.64
218.00 35.74
219.00 35.72
220.00 35.97
221.00 36.53
222.00 36.98
223.00 36.79
224.00 35.96
225.00 34.98
226.00 34.26
227.00 33.95
228.00 34.07
229.00 34.50
230.00 35.15
231.00 36.00
232.00 37.16
233.00 38.76
234.00 40.57
235.00 41.81
236.00 42.04
237.00 42.04
238.00 42.81
239.00 44.93
240.00 48.07
241.00 49.31
242.00 47.23
243.00 43.96
244.00 41.24
245.00 40.00
246.00 40.45
247.00 42.64
248.00 46.72
249.00 49.09
250.00 44.57
251.00 41.65
252.00 41.46
253.00 44.42
254.00 51.70
255.00 47.96
256.00 44.29
257.00 45.05
258.00 51.13
259.00 53.98
260.00 45.94
261.00 42.91
262.00 40.97
263.00 39.32
264.00 38.46
265.00 38.36
266.00 38.34
267.00 38.40
268.00 39.32
269.00 41.15
270.00 42.43
271.00 42.04
272.00 40.46
273.00 38.27
274.00 36.51
275.00 35.56
276.00 35.18
277.00 34.94
278.00 34.64
279.00 34.10
280.00 33.14
281.00 31.65
282.00 29.99
283.00 28.72
284.00 28.08
285.00 27.99
286.00 28.15
287.00 28.22
288.00 28.08
289.00 27.82
290.00 27.62
291.00 27.57
292.00 27.74
293.00 28.34
294.00 29.60
295.00 31.80
296.00 34.97
297.00 36.33
298.00 32.65
299.00 28.78
300.00 25.95
301.00 23.95
302.00 22.62
303.00 21.85
304.00 21.52
305.00 21.50
306.00 21.74
307.00 22.30
308.00 23.22
309.00 24.24
310.00 24.38
311.00 23.16
312.00 21.53
313.00 20.23
314.00 19.35
315.00 18.78
316.00 18.41
317.00 18.15
318.00 17.92
319.00 17.65
320.00 17.35
321.00 17.16
322.00 17.33
323.00 18.11
324.00 19.86
325.00 23.27
326.00 30.23
327.00 32.64
328.00 25.03
329.00 21.60
330.00 20.08
331.00 19.83
332.00 20.90
333.00 24.02
334.00 33.00
335.00 31.90
336.00 23.02
337.00 19.76
338.00 18.85
339.00 19.87
340.00 23.20
341.00 27.73
342.00 23.22
343.00 18.92
344.00 16.91
345.00 16.57
346.00 17.77
347.00 20.99
348.00 28.66
349.00 29.53
350.00 21.71
351.00 19.09
352.00 19.52
353.00 22.70
354.00 18.95
355.00 11.98
356.00 7.32
357.00 4.15
358.00 2.00
359.00 0.67
