NAME ATR4518R7_0806_X_CO_P45_10T
FREQUENCY 0806
GAIN 14.20 dBd
TILT	ELECTRICAL
COMMENT DATE 05.08.2013 +45 degrees polarized system Lever position 10T deg
HORIZONTAL 360
0.00 0.01
1.00 0.02
2.00 0.04
3.00 0.06
4.00 0.09
5.00 0.12
6.00 0.16
7.00 0.20
8.00 0.25
9.00 0.31
10.00 0.37
11.00 0.43
12.00 0.50
13.00 0.58
14.00 0.66
15.00 0.75
16.00 0.84
17.00 0.93
18.00 1.03
19.00 1.14
20.00 1.25
21.00 1.37
22.00 1.49
23.00 1.61
24.00 1.75
25.00 1.88
26.00 2.02
27.00 2.17
28.00 2.32
29.00 2.48
30.00 2.63
31.00 2.80
32.00 2.97
33.00 3.14
34.00 3.32
35.00 3.51
36.00 3.70
37.00 3.89
38.00 4.09
39.00 4.29
40.00 4.50
41.00 4.71
42.00 4.92
43.00 5.14
44.00 5.37
45.00 5.59
46.00 5.82
47.00 6.06
48.00 6.30
49.00 6.55
50.00 6.79
51.00 7.05
52.00 7.30
53.00 7.56
54.00 7.83
55.00 8.10
56.00 8.37
57.00 8.64
58.00 8.93
59.00 9.21
60.00 9.50
61.00 9.79
62.00 10.09
63.00 10.39
64.00 10.69
65.00 11.00
66.00 11.31
67.00 11.63
68.00 11.95
69.00 12.27
70.00 12.60
71.00 12.94
72.00 13.28
73.00 13.62
74.00 13.97
75.00 14.33
76.00 14.69
77.00 15.05
78.00 15.43
79.00 15.81
80.00 16.19
81.00 16.58
82.00 16.98
83.00 17.39
84.00 17.80
85.00 18.22
86.00 18.65
87.00 19.08
88.00 19.53
89.00 19.98
90.00 20.43
91.00 20.90
92.00 21.37
93.00 21.85
94.00 22.33
95.00 22.81
96.00 23.29
97.00 23.77
98.00 24.25
99.00 24.71
100.00 25.16
101.00 25.59
102.00 25.99
103.00 26.36
104.00 26.69
105.00 26.98
106.00 27.22
107.00 27.41
108.00 27.55
109.00 27.65
110.00 27.69
111.00 27.70
112.00 27.67
113.00 27.61
114.00 27.52
115.00 27.42
116.00 27.31
117.00 27.20
118.00 27.08
119.00 26.97
120.00 26.85
121.00 26.75
122.00 26.65
123.00 26.57
124.00 26.49
125.00 26.43
126.00 26.38
127.00 26.35
128.00 26.33
129.00 26.32
130.00 26.33
131.00 26.35
132.00 26.39
133.00 26.44
134.00 26.50
135.00 26.59
136.00 26.69
137.00 26.80
138.00 26.93
139.00 27.08
140.00 27.24
141.00 27.42
142.00 27.62
143.00 27.84
144.00 28.07
145.00 28.33
146.00 28.60
147.00 28.90
148.00 29.21
149.00 29.55
150.00 29.92
151.00 30.31
152.00 30.73
153.00 31.17
154.00 31.65
155.00 32.17
156.00 32.72
157.00 33.32
158.00 33.96
159.00 34.67
160.00 35.42
161.00 36.25
162.00 37.16
163.00 38.15
164.00 39.25
165.00 40.45
166.00 41.77
167.00 43.15
168.00 44.53
169.00 45.67
170.00 46.20
171.00 45.91
172.00 44.96
173.00 43.70
174.00 42.41
175.00 41.18
176.00 40.06
177.00 39.04
178.00 38.13
179.00 37.31
180.00 36.58
181.00 35.91
182.00 35.31
183.00 34.76
184.00 34.25
185.00 33.79
186.00 33.37
187.00 32.99
188.00 32.64
189.00 32.32
190.00 32.03
191.00 31.77
192.00 31.53
193.00 31.31
194.00 31.12
195.00 30.94
196.00 30.79
197.00 30.66
198.00 30.54
199.00 30.45
200.00 30.37
201.00 30.31
202.00 30.26
203.00 30.23
204.00 30.22
205.00 30.23
206.00 30.25
207.00 30.29
208.00 30.34
209.00 30.40
210.00 30.48
211.00 30.58
212.00 30.69
213.00 30.81
214.00 30.95
215.00 31.10
216.00 31.26
217.00 31.42
218.00 31.60
219.00 31.79
220.00 31.98
221.00 32.16
222.00 32.36
223.00 32.53
224.00 32.71
225.00 32.86
226.00 32.99
227.00 33.09
228.00 33.15
229.00 33.17
230.00 33.14
231.00 33.05
232.00 32.91
233.00 32.71
234.00 32.47
235.00 32.17
236.00 31.83
237.00 31.46
238.00 31.05
239.00 30.62
240.00 30.17
241.00 29.71
242.00 29.24
243.00 28.77
244.00 28.29
245.00 27.82
246.00 27.34
247.00 26.87
248.00 26.41
249.00 25.95
250.00 25.49
251.00 25.05
252.00 24.61
253.00 24.18
254.00 23.75
255.00 23.33
256.00 22.92
257.00 22.52
258.00 22.12
259.00 21.73
260.00 21.35
261.00 20.97
262.00 20.60
263.00 20.24
264.00 19.88
265.00 19.53
266.00 19.18
267.00 18.84
268.00 18.50
269.00 18.17
270.00 17.84
271.00 17.51
272.00 17.19
273.00 16.87
274.00 16.55
275.00 16.24
276.00 15.93
277.00 15.62
278.00 15.32
279.00 15.02
280.00 14.71
281.00 14.41
282.00 14.12
283.00 13.82
284.00 13.52
285.00 13.23
286.00 12.93
287.00 12.64
288.00 12.34
289.00 12.05
290.00 11.76
291.00 11.47
292.00 11.18
293.00 10.89
294.00 10.60
295.00 10.32
296.00 10.04
297.00 9.75
298.00 9.47
299.00 9.19
300.00 8.91
301.00 8.63
302.00 8.36
303.00 8.09
304.00 7.82
305.00 7.55
306.00 7.29
307.00 7.02
308.00 6.77
309.00 6.51
310.00 6.26
311.00 6.01
312.00 5.77
313.00 5.53
314.00 5.30
315.00 5.07
316.00 4.84
317.00 4.62
318.00 4.40
319.00 4.19
320.00 3.98
321.00 3.78
322.00 3.58
323.00 3.38
324.00 3.20
325.00 3.01
326.00 2.84
327.00 2.66
328.00 2.49
329.00 2.33
330.00 2.18
331.00 2.02
332.00 1.88
333.00 1.74
334.00 1.60
335.00 1.47
336.00 1.35
337.00 1.23
338.00 1.11
339.00 1.01
340.00 0.90
341.00 0.81
342.00 0.72
343.00 0.63
344.00 0.55
345.00 0.47
346.00 0.41
347.00 0.34
348.00 0.28
349.00 0.23
350.00 0.18
351.00 0.14
352.00 0.10
353.00 0.07
354.00 0.05
355.00 0.03
356.00 0.01
357.00 0.00
358.00 0.00
359.00 0.00
VERTICAL 360
0.00 23.23
1.00 16.49
2.00 11.83
3.00 8.42
4.00 5.84
5.00 3.87
6.00 2.37
7.00 1.28
8.00 0.54
9.00 0.12
10.00 0.00
11.00 0.18
12.00 0.66
13.00 1.47
14.00 2.63
15.00 4.18
16.00 6.18
17.00 8.74
18.00 12.06
19.00 16.62
20.00 24.02
21.00 51.32
22.00 26.30
23.00 22.50
24.00 21.54
25.00 22.21
26.00 24.32
27.00 27.99
28.00 31.62
29.00 29.60
30.00 26.46
31.00 24.61
32.00 23.82
33.00 23.85
34.00 24.63
35.00 26.24
36.00 28.92
37.00 33.44
38.00 43.05
39.00 42.39
40.00 34.75
41.00 31.51
42.00 29.82
43.00 29.00
44.00 28.94
45.00 29.73
46.00 31.68
47.00 35.17
48.00 38.26
49.00 34.63
50.00 30.70
51.00 28.29
52.00 27.00
53.00 26.51
54.00 26.57
55.00 26.99
56.00 27.63
57.00 28.49
58.00 29.64
59.00 31.19
60.00 33.31
61.00 36.14
62.00 39.67
63.00 42.99
64.00 43.88
65.00 41.76
66.00 38.37
67.00 35.26
68.00 33.03
69.00 31.71
70.00 31.24
71.00 31.56
72.00 32.62
73.00 34.35
74.00 36.57
75.00 38.87
76.00 40.82
77.00 42.58
78.00 44.71
79.00 45.94
80.00 43.26
81.00 39.70
82.00 37.08
83.00 35.20
84.00 33.62
85.00 31.90
86.00 29.99
87.00 28.18
88.00 26.74
89.00 25.83
90.00 25.51
91.00 25.75
92.00 26.46
93.00 27.44
94.00 28.40
95.00 29.07
96.00 29.43
97.00 29.70
98.00 30.21
99.00 31.20
100.00 32.78
101.00 34.89
102.00 37.16
103.00 38.91
104.00 39.61
105.00 39.66
106.00 39.91
107.00 40.99
108.00 43.16
109.00 46.25
110.00 48.83
111.00 48.46
112.00 46.08
113.00 43.90
114.00 42.81
115.00 42.97
116.00 44.11
117.00 45.25
118.00 44.84
119.00 42.92
120.00 40.78
121.00 39.16
122.00 38.27
123.00 38.04
124.00 38.14
125.00 38.10
126.00 37.76
127.00 37.44
128.00 37.57
129.00 38.53
130.00 40.61
131.00 43.38
132.00 43.24
133.00 40.05
134.00 37.40
135.00 35.66
136.00 34.49
137.00 33.63
138.00 32.96
139.00 32.51
140.00 32.44
141.00 32.87
142.00 33.87
143.00 35.33
144.00 36.95
145.00 38.02
146.00 37.90
147.00 36.74
148.00 35.14
149.00 33.52
150.00 32.18
151.00 31.31
152.00 31.03
153.00 31.41
154.00 32.44
155.00 33.99
156.00 35.63
157.00 36.68
158.00 36.88
159.00 36.76
160.00 36.88
161.00 37.58
162.00 39.12
163.00 41.82
164.00 45.55
165.00 45.64
166.00 41.93
167.00 39.31
168.00 38.02
169.00 37.65
170.00 37.71
171.00 37.76
172.00 37.59
173.00 37.52
174.00 37.86
175.00 38.43
176.00 38.41
177.00 37.35
178.00 35.96
179.00 35.00
180.00 34.74
181.00 35.18
182.00 36.34
183.00 38.24
184.00 41.09
185.00 45.93
186.00 57.51
187.00 47.34
188.00 40.90
189.00 37.53
190.00 35.59
191.00 34.45
192.00 33.73
193.00 33.18
194.00 32.66
195.00 32.18
196.00 31.85
197.00 31.80
198.00 32.05
199.00 32.46
200.00 32.74
201.00 32.66
202.00 32.31
203.00 31.95
204.00 31.86
205.00 32.21
206.00 33.09
207.00 34.47
208.00 36.30
209.00 38.50
210.00 41.03
211.00 43.25
212.00 43.90
213.00 43.66
214.00 43.93
215.00 44.59
216.00 44.66
217.00 44.23
218.00 44.39
219.00 45.60
220.00 47.65
221.00 50.18
222.00 54.21
223.00 68.04
224.00 55.99
225.00 48.99
226.00 45.45
227.00 42.92
228.00 40.60
229.00 38.54
230.00 37.01
231.00 36.15
232.00 35.88
233.00 36.02
234.00 36.29
235.00 36.43
236.00 36.21
237.00 35.64
238.00 35.00
239.00 34.72
240.00 35.08
241.00 36.21
242.00 38.08
243.00 40.53
244.00 43.28
245.00 45.75
246.00 47.42
247.00 47.82
248.00 45.68
249.00 42.16
250.00 39.44
251.00 38.05
252.00 37.97
253.00 39.03
254.00 40.81
255.00 42.32
256.00 42.21
257.00 40.34
258.00 38.03
259.00 36.33
260.00 35.57
261.00 35.66
262.00 36.29
263.00 37.10
264.00 38.19
265.00 40.13
266.00 43.51
267.00 46.42
268.00 43.81
269.00 40.66
270.00 38.48
271.00 36.93
272.00 36.04
273.00 36.04
274.00 37.11
275.00 39.23
276.00 41.95
277.00 43.84
278.00 43.28
279.00 41.02
280.00 38.87
281.00 37.62
282.00 37.37
283.00 37.88
284.00 38.61
285.00 38.83
286.00 38.15
287.00 36.91
288.00 35.75
289.00 35.16
290.00 35.29
291.00 36.09
292.00 37.34
293.00 38.71
294.00 39.60
295.00 39.52
296.00 39.08
297.00 39.38
298.00 41.34
299.00 46.18
300.00 49.33
301.00 42.11
302.00 37.82
303.00 35.46
304.00 34.39
305.00 34.44
306.00 35.55
307.00 37.38
308.00 38.51
309.00 37.65
310.00 36.06
311.00 34.60
312.00 33.02
313.00 31.08
314.00 28.96
315.00 27.01
316.00 25.49
317.00 24.55
318.00 24.26
319.00 24.68
320.00 25.87
321.00 27.85
322.00 29.86
323.00 29.15
324.00 26.07
325.00 23.20
326.00 21.09
327.00 19.68
328.00 18.85
329.00 18.51
330.00 18.59
331.00 19.03
332.00 19.83
333.00 21.05
334.00 22.86
335.00 25.66
336.00 30.50
337.00 42.41
338.00 35.75
339.00 29.46
340.00 27.03
341.00 26.51
342.00 27.56
343.00 30.30
344.00 33.55
345.00 30.71
346.00 26.40
347.00 23.66
348.00 22.23
349.00 21.95
350.00 22.89
351.00 25.51
352.00 31.49
353.00 38.78
354.00 28.11
355.00 23.79
356.00 21.96
357.00 21.87
358.00 23.76
359.00 27.61
