NAME ATR4518R7_0847_X_CO_P45_01T
FREQUENCY 0847
GAIN 14.40 dBd
TILT	ELECTRICAL
COMMENT DATE 05.08.2013 +45 degrees polarized system Lever position 01T deg
HORIZONTAL 360
0.00 0.01
1.00 0.02
2.00 0.04
3.00 0.07
4.00 0.10
5.00 0.13
6.00 0.17
7.00 0.22
8.00 0.28
9.00 0.34
10.00 0.40
11.00 0.47
12.00 0.55
13.00 0.63
14.00 0.72
15.00 0.81
16.00 0.91
17.00 1.02
18.00 1.13
19.00 1.25
20.00 1.37
21.00 1.50
22.00 1.64
23.00 1.78
24.00 1.93
25.00 2.08
26.00 2.24
27.00 2.40
28.00 2.57
29.00 2.75
30.00 2.93
31.00 3.11
32.00 3.31
33.00 3.50
34.00 3.71
35.00 3.92
36.00 4.13
37.00 4.36
38.00 4.58
39.00 4.81
40.00 5.05
41.00 5.30
42.00 5.55
43.00 5.80
44.00 6.06
45.00 6.33
46.00 6.60
47.00 6.88
48.00 7.16
49.00 7.45
50.00 7.74
51.00 8.05
52.00 8.35
53.00 8.66
54.00 8.98
55.00 9.31
56.00 9.64
57.00 9.97
58.00 10.31
59.00 10.66
60.00 11.01
61.00 11.37
62.00 11.73
63.00 12.10
64.00 12.48
65.00 12.86
66.00 13.25
67.00 13.64
68.00 14.04
69.00 14.45
70.00 14.86
71.00 15.28
72.00 15.70
73.00 16.13
74.00 16.56
75.00 17.00
76.00 17.44
77.00 17.89
78.00 18.34
79.00 18.79
80.00 19.24
81.00 19.69
82.00 20.14
83.00 20.58
84.00 21.02
85.00 21.46
86.00 21.88
87.00 22.30
88.00 22.69
89.00 23.08
90.00 23.44
91.00 23.79
92.00 24.11
93.00 24.40
94.00 24.67
95.00 24.92
96.00 25.14
97.00 25.33
98.00 25.50
99.00 25.65
100.00 25.79
101.00 25.90
102.00 26.00
103.00 26.09
104.00 26.17
105.00 26.25
106.00 26.32
107.00 26.38
108.00 26.45
109.00 26.52
110.00 26.59
111.00 26.67
112.00 26.75
113.00 26.84
114.00 26.94
115.00 27.04
116.00 27.16
117.00 27.28
118.00 27.41
119.00 27.55
120.00 27.70
121.00 27.86
122.00 28.02
123.00 28.20
124.00 28.39
125.00 28.59
126.00 28.79
127.00 29.00
128.00 29.23
129.00 29.46
130.00 29.70
131.00 29.94
132.00 30.20
133.00 30.45
134.00 30.72
135.00 30.99
136.00 31.26
137.00 31.54
138.00 31.82
139.00 32.11
140.00 32.40
141.00 32.68
142.00 32.96
143.00 33.25
144.00 33.53
145.00 33.81
146.00 34.08
147.00 34.35
148.00 34.61
149.00 34.87
150.00 35.11
151.00 35.35
152.00 35.58
153.00 35.80
154.00 36.00
155.00 36.20
156.00 36.39
157.00 36.56
158.00 36.73
159.00 36.87
160.00 37.01
161.00 37.14
162.00 37.25
163.00 37.35
164.00 37.45
165.00 37.53
166.00 37.61
167.00 37.67
168.00 37.73
169.00 37.78
170.00 37.83
171.00 37.87
172.00 37.90
173.00 37.93
174.00 37.96
175.00 37.99
176.00 38.02
177.00 38.06
178.00 38.09
179.00 38.12
180.00 38.17
181.00 38.22
182.00 38.28
183.00 38.34
184.00 38.41
185.00 38.49
186.00 38.58
187.00 38.68
188.00 38.80
189.00 38.92
190.00 39.06
191.00 39.21
192.00 39.37
193.00 39.55
194.00 39.74
195.00 39.94
196.00 40.14
197.00 40.35
198.00 40.57
199.00 40.79
200.00 41.01
201.00 41.23
202.00 41.42
203.00 41.59
204.00 41.74
205.00 41.85
206.00 41.92
207.00 41.94
208.00 41.89
209.00 41.81
210.00 41.65
211.00 41.45
212.00 41.21
213.00 40.92
214.00 40.61
215.00 40.26
216.00 39.91
217.00 39.54
218.00 39.16
219.00 38.80
220.00 38.42
221.00 38.06
222.00 37.70
223.00 37.36
224.00 37.02
225.00 36.69
226.00 36.36
227.00 36.05
228.00 35.74
229.00 35.43
230.00 35.13
231.00 34.83
232.00 34.53
233.00 34.23
234.00 33.92
235.00 33.62
236.00 33.30
237.00 32.97
238.00 32.64
239.00 32.29
240.00 31.93
241.00 31.55
242.00 31.17
243.00 30.77
244.00 30.37
245.00 29.95
246.00 29.52
247.00 29.08
248.00 28.64
249.00 28.19
250.00 27.74
251.00 27.29
252.00 26.84
253.00 26.38
254.00 25.93
255.00 25.48
256.00 25.03
257.00 24.59
258.00 24.15
259.00 23.72
260.00 23.29
261.00 22.87
262.00 22.45
263.00 22.04
264.00 21.64
265.00 21.24
266.00 20.85
267.00 20.46
268.00 20.08
269.00 19.71
270.00 19.34
271.00 18.97
272.00 18.61
273.00 18.26
274.00 17.91
275.00 17.57
276.00 17.22
277.00 16.89
278.00 16.55
279.00 16.22
280.00 15.89
281.00 15.56
282.00 15.24
283.00 14.92
284.00 14.60
285.00 14.28
286.00 13.96
287.00 13.65
288.00 13.33
289.00 13.02
290.00 12.70
291.00 12.39
292.00 12.08
293.00 11.77
294.00 11.46
295.00 11.16
296.00 10.85
297.00 10.54
298.00 10.24
299.00 9.94
300.00 9.64
301.00 9.35
302.00 9.05
303.00 8.76
304.00 8.47
305.00 8.18
306.00 7.90
307.00 7.62
308.00 7.34
309.00 7.07
310.00 6.80
311.00 6.53
312.00 6.27
313.00 6.01
314.00 5.76
315.00 5.51
316.00 5.27
317.00 5.02
318.00 4.79
319.00 4.56
320.00 4.34
321.00 4.12
322.00 3.90
323.00 3.69
324.00 3.49
325.00 3.29
326.00 3.10
327.00 2.91
328.00 2.73
329.00 2.55
330.00 2.39
331.00 2.22
332.00 2.06
333.00 1.91
334.00 1.76
335.00 1.62
336.00 1.49
337.00 1.36
338.00 1.23
339.00 1.11
340.00 1.00
341.00 0.90
342.00 0.80
343.00 0.70
344.00 0.61
345.00 0.53
346.00 0.46
347.00 0.39
348.00 0.32
349.00 0.26
350.00 0.21
351.00 0.16
352.00 0.12
353.00 0.09
354.00 0.06
355.00 0.04
356.00 0.02
357.00 0.01
358.00 0.00
359.00 0.00
VERTICAL 360
0.00 0.22
1.00 0.00
2.00 0.12
3.00 0.58
4.00 1.39
5.00 2.59
6.00 4.21
7.00 6.35
8.00 9.15
9.00 12.90
10.00 18.36
11.00 28.21
12.00 31.41
13.00 24.94
14.00 23.87
15.00 25.59
16.00 29.61
17.00 29.07
18.00 24.05
19.00 20.80
20.00 18.98
21.00 18.15
22.00 18.14
23.00 18.91
24.00 20.60
25.00 23.53
26.00 28.68
27.00 40.81
28.00 36.02
29.00 30.25
30.00 28.62
31.00 28.97
32.00 30.75
33.00 32.27
34.00 29.06
35.00 24.31
36.00 20.54
37.00 17.76
38.00 15.79
39.00 14.49
40.00 13.76
41.00 13.47
42.00 13.54
43.00 13.84
44.00 14.31
45.00 14.93
46.00 15.75
47.00 16.85
48.00 18.30
49.00 20.13
50.00 22.26
51.00 24.56
52.00 26.93
53.00 29.51
54.00 32.83
55.00 37.03
56.00 37.25
57.00 34.17
58.00 32.83
59.00 33.46
60.00 35.79
61.00 39.00
62.00 39.28
63.00 35.77
64.00 32.61
65.00 30.97
66.00 31.07
67.00 33.22
68.00 37.76
69.00 39.27
70.00 35.19
71.00 32.84
72.00 31.98
73.00 32.16
74.00 33.38
75.00 35.52
76.00 36.14
77.00 33.05
78.00 29.89
79.00 27.87
80.00 27.02
81.00 27.29
82.00 28.55
83.00 30.07
84.00 30.18
85.00 29.03
86.00 28.14
87.00 28.02
88.00 28.48
89.00 29.23
90.00 30.08
91.00 31.07
92.00 32.22
93.00 33.36
94.00 34.10
95.00 34.26
96.00 34.02
97.00 33.61
98.00 33.15
99.00 32.82
100.00 32.82
101.00 33.38
102.00 34.74
103.00 37.12
104.00 40.83
105.00 46.35
106.00 55.37
107.00 60.39
108.00 50.63
109.00 47.20
110.00 47.17
111.00 50.77
112.00 52.69
113.00 46.74
114.00 44.00
115.00 43.90
116.00 45.87
117.00 49.43
118.00 50.30
119.00 45.50
120.00 41.12
121.00 38.08
122.00 36.07
123.00 34.75
124.00 33.78
125.00 32.93
126.00 32.07
127.00 31.24
128.00 30.55
129.00 30.14
130.00 30.15
131.00 30.67
132.00 31.72
133.00 33.25
134.00 35.03
135.00 36.45
136.00 36.59
137.00 35.41
138.00 33.94
139.00 32.90
140.00 32.54
141.00 32.89
142.00 33.87
143.00 35.30
144.00 36.88
145.00 38.36
146.00 39.35
147.00 39.15
148.00 37.92
149.00 36.80
150.00 36.43
151.00 36.85
152.00 37.71
153.00 38.34
154.00 38.20
155.00 37.48
156.00 36.76
157.00 36.41
158.00 36.63
159.00 37.53
160.00 39.42
161.00 43.08
162.00 51.00
163.00 49.58
164.00 42.87
165.00 40.07
166.00 39.10
167.00 39.19
168.00 40.09
169.00 41.98
170.00 46.13
171.00 63.19
172.00 46.57
173.00 39.91
174.00 36.80
175.00 35.52
176.00 35.53
177.00 36.41
178.00 37.46
179.00 38.11
180.00 38.25
181.00 38.80
182.00 40.02
183.00 41.64
184.00 42.60
185.00 42.19
186.00 40.95
187.00 39.75
188.00 38.53
189.00 37.17
190.00 35.91
191.00 34.93
192.00 34.12
193.00 33.25
194.00 32.27
195.00 31.37
196.00 30.75
197.00 30.58
198.00 30.96
199.00 31.93
200.00 33.46
201.00 35.38
202.00 37.34
203.00 38.67
204.00 38.85
205.00 38.32
206.00 37.94
207.00 38.25
208.00 39.50
209.00 41.78
210.00 44.80
211.00 45.79
212.00 43.22
213.00 40.48
214.00 38.56
215.00 37.33
216.00 36.55
217.00 35.90
218.00 35.15
219.00 34.28
220.00 33.44
221.00 32.69
222.00 31.94
223.00 31.11
224.00 30.23
225.00 29.44
226.00 28.83
227.00 28.38
228.00 28.08
229.00 27.96
230.00 28.06
231.00 28.41
232.00 28.95
233.00 29.52
234.00 29.84
235.00 29.69
236.00 29.18
237.00 28.65
238.00 28.40
239.00 28.53
240.00 28.99
241.00 29.70
242.00 30.60
243.00 31.66
244.00 32.91
245.00 34.22
246.00 35.19
247.00 35.19
248.00 34.18
249.00 32.89
250.00 31.98
251.00 31.87
252.00 32.75
253.00 34.69
254.00 37.42
255.00 39.49
256.00 38.71
257.00 36.32
258.00 34.32
259.00 33.37
260.00 33.70
261.00 35.58
262.00 39.82
263.00 50.83
264.00 44.08
265.00 37.43
266.00 34.54
267.00 33.49
268.00 33.84
269.00 35.66
270.00 39.10
271.00 39.56
272.00 34.75
273.00 31.44
274.00 29.99
275.00 30.05
276.00 31.43
277.00 33.92
278.00 36.71
279.00 37.11
280.00 34.93
281.00 33.05
282.00 32.46
283.00 33.37
284.00 35.96
285.00 40.52
286.00 45.92
287.00 46.05
288.00 45.40
289.00 48.01
290.00 49.06
291.00 41.09
292.00 36.16
293.00 33.43
294.00 32.13
295.00 31.77
296.00 31.96
297.00 32.33
298.00 32.61
299.00 32.52
300.00 31.66
301.00 29.84
302.00 27.52
303.00 25.28
304.00 23.37
305.00 21.77
306.00 20.36
307.00 19.02
308.00 17.75
309.00 16.62
310.00 15.72
311.00 15.13
312.00 14.87
313.00 14.91
314.00 15.19
315.00 15.61
316.00 16.09
317.00 16.60
318.00 17.23
319.00 18.07
320.00 19.25
321.00 20.87
322.00 22.96
323.00 25.58
324.00 28.73
325.00 32.26
326.00 35.49
327.00 37.36
328.00 37.97
329.00 38.31
330.00 38.39
331.00 36.60
332.00 33.10
333.00 29.76
334.00 27.15
335.00 25.20
336.00 23.75
337.00 22.72
338.00 22.08
339.00 21.91
340.00 22.37
341.00 23.71
342.00 26.50
343.00 32.48
344.00 43.83
345.00 30.21
346.00 25.58
347.00 23.64
348.00 23.52
349.00 25.39
350.00 29.22
351.00 24.60
352.00 17.80
353.00 13.03
354.00 9.49
355.00 6.74
356.00 4.59
357.00 2.92
358.00 1.66
359.00 0.76
