NAME ATR4518R7_1880_X_CO_M45_04T_yL
FREQUENCY 1880
GAIN 15.08 dBd
TILT	ELECTRICAL
COMMENT DATE 05.08.2013 -45 degrees polarized system Lever position 04T deg
HORIZONTAL 360
0.00 0.02
1.00 0.00
2.00 0.00
3.00 0.01
4.00 0.02
5.00 0.04
6.00 0.06
7.00 0.09
8.00 0.13
9.00 0.17
10.00 0.22
11.00 0.28
12.00 0.34
13.00 0.40
14.00 0.47
15.00 0.55
16.00 0.62
17.00 0.71
18.00 0.79
19.00 0.89
20.00 0.98
21.00 1.08
22.00 1.19
23.00 1.30
24.00 1.41
25.00 1.54
26.00 1.66
27.00 1.80
28.00 1.94
29.00 2.09
30.00 2.24
31.00 2.41
32.00 2.58
33.00 2.75
34.00 2.94
35.00 3.14
36.00 3.34
37.00 3.56
38.00 3.78
39.00 4.02
40.00 4.26
41.00 4.51
42.00 4.77
43.00 5.04
44.00 5.32
45.00 5.61
46.00 5.91
47.00 6.22
48.00 6.54
49.00 6.86
50.00 7.19
51.00 7.53
52.00 7.88
53.00 8.23
54.00 8.59
55.00 8.96
56.00 9.33
57.00 9.71
58.00 10.09
59.00 10.48
60.00 10.88
61.00 11.27
62.00 11.67
63.00 12.08
64.00 12.49
65.00 12.90
66.00 13.32
67.00 13.74
68.00 14.16
69.00 14.58
70.00 15.01
71.00 15.44
72.00 15.86
73.00 16.29
74.00 16.72
75.00 17.15
76.00 17.58
77.00 18.01
78.00 18.44
79.00 18.86
80.00 19.29
81.00 19.72
82.00 20.15
83.00 20.58
84.00 21.01
85.00 21.44
86.00 21.88
87.00 22.33
88.00 22.79
89.00 23.25
90.00 23.73
91.00 24.21
92.00 24.71
93.00 25.20
94.00 25.71
95.00 26.20
96.00 26.68
97.00 27.13
98.00 27.54
99.00 27.89
100.00 28.17
101.00 28.37
102.00 28.47
103.00 28.50
104.00 28.45
105.00 28.34
106.00 28.20
107.00 28.04
108.00 27.89
109.00 27.74
110.00 27.63
111.00 27.54
112.00 27.50
113.00 27.49
114.00 27.54
115.00 27.62
116.00 27.74
117.00 27.90
118.00 28.09
119.00 28.29
120.00 28.50
121.00 28.69
122.00 28.85
123.00 28.96
124.00 29.01
125.00 29.00
126.00 28.92
127.00 28.80
128.00 28.63
129.00 28.45
130.00 28.26
131.00 28.09
132.00 27.94
133.00 27.83
134.00 27.77
135.00 27.76
136.00 27.80
137.00 27.91
138.00 28.08
139.00 28.31
140.00 28.61
141.00 28.97
142.00 29.39
143.00 29.87
144.00 30.41
145.00 30.99
146.00 31.61
147.00 32.26
148.00 32.90
149.00 33.53
150.00 34.10
151.00 34.59
152.00 34.97
153.00 35.21
154.00 35.31
155.00 35.27
156.00 35.12
157.00 34.88
158.00 34.57
159.00 34.24
160.00 33.89
161.00 33.54
162.00 33.22
163.00 32.94
164.00 32.71
165.00 32.55
166.00 32.45
167.00 32.43
168.00 32.50
169.00 32.66
170.00 32.91
171.00 33.25
172.00 33.68
173.00 34.17
174.00 34.67
175.00 35.11
176.00 35.37
177.00 35.34
178.00 34.98
179.00 34.32
180.00 33.49
181.00 32.58
182.00 31.69
183.00 30.87
184.00 30.15
185.00 29.53
186.00 29.03
187.00 28.64
188.00 28.38
189.00 28.24
190.00 28.23
191.00 28.34
192.00 28.60
193.00 29.01
194.00 29.59
195.00 30.37
196.00 31.38
197.00 32.67
198.00 34.31
199.00 36.40
200.00 38.91
201.00 41.12
202.00 40.92
203.00 38.52
204.00 35.96
205.00 33.82
206.00 32.12
207.00 30.77
208.00 29.70
209.00 28.85
210.00 28.20
211.00 27.72
212.00 27.39
213.00 27.21
214.00 27.17
215.00 27.26
216.00 27.50
217.00 27.89
218.00 28.44
219.00 29.17
220.00 30.13
221.00 31.36
222.00 32.95
223.00 35.07
224.00 38.09
225.00 42.98
226.00 54.92
227.00 47.57
228.00 40.28
229.00 36.39
230.00 33.77
231.00 31.84
232.00 30.33
233.00 29.12
234.00 28.14
235.00 27.34
236.00 26.68
237.00 26.14
238.00 25.70
239.00 25.35
240.00 25.07
241.00 24.87
242.00 24.71
243.00 24.60
244.00 24.52
245.00 24.47
246.00 24.43
247.00 24.40
248.00 24.35
249.00 24.28
250.00 24.18
251.00 24.04
252.00 23.87
253.00 23.65
254.00 23.41
255.00 23.13
256.00 22.83
257.00 22.51
258.00 22.19
259.00 21.87
260.00 21.55
261.00 21.23
262.00 20.93
263.00 20.64
264.00 20.36
265.00 20.09
266.00 19.82
267.00 19.56
268.00 19.31
269.00 19.05
270.00 18.79
271.00 18.52
272.00 18.25
273.00 17.97
274.00 17.67
275.00 17.36
276.00 17.05
277.00 16.72
278.00 16.38
279.00 16.04
280.00 15.69
281.00 15.34
282.00 14.99
283.00 14.63
284.00 14.28
285.00 13.93
286.00 13.59
287.00 13.25
288.00 12.92
289.00 12.59
290.00 12.27
291.00 11.95
292.00 11.64
293.00 11.33
294.00 11.03
295.00 10.73
296.00 10.44
297.00 10.16
298.00 9.87
299.00 9.59
300.00 9.32
301.00 9.06
302.00 8.80
303.00 8.54
304.00 8.29
305.00 8.04
306.00 7.80
307.00 7.57
308.00 7.34
309.00 7.12
310.00 6.90
311.00 6.69
312.00 6.48
313.00 6.28
314.00 6.08
315.00 5.88
316.00 5.69
317.00 5.50
318.00 5.30
319.00 5.11
320.00 4.93
321.00 4.74
322.00 4.55
323.00 4.36
324.00 4.18
325.00 3.99
326.00 3.81
327.00 3.63
328.00 3.45
329.00 3.27
330.00 3.10
331.00 2.93
332.00 2.76
333.00 2.60
334.00 2.45
335.00 2.29
336.00 2.14
337.00 2.00
338.00 1.86
339.00 1.72
340.00 1.59
341.00 1.46
342.00 1.34
343.00 1.22
344.00 1.11
345.00 1.00
346.00 0.89
347.00 0.79
348.00 0.70
349.00 0.60
350.00 0.52
351.00 0.44
352.00 0.36
353.00 0.30
354.00 0.24
355.00 0.18
356.00 0.13
357.00 0.09
358.00 0.06
359.00 0.03
VERTICAL 360
0.00 6.34
1.00 3.51
2.00 1.59
3.00 0.44
4.00 0.00
5.00 0.28
6.00 1.36
7.00 3.41
8.00 6.85
9.00 12.93
10.00 32.51
11.00 17.34
12.00 12.87
13.00 11.99
14.00 13.32
15.00 17.04
16.00 23.35
17.00 20.49
18.00 16.33
19.00 14.79
20.00 15.01
21.00 16.77
22.00 20.40
23.00 26.75
24.00 25.41
25.00 20.23
26.00 17.90
27.00 17.52
28.00 18.85
29.00 22.12
30.00 28.72
31.00 36.73
32.00 27.55
33.00 23.54
34.00 21.58
35.00 20.82
36.00 21.06
37.00 22.12
38.00 23.31
39.00 23.38
40.00 22.25
41.00 20.94
42.00 19.90
43.00 19.13
44.00 18.59
45.00 18.28
46.00 18.20
47.00 18.38
48.00 18.87
49.00 19.68
50.00 20.79
51.00 22.10
52.00 23.48
53.00 24.95
54.00 26.84
55.00 29.84
56.00 35.06
57.00 39.37
58.00 33.50
59.00 29.64
60.00 27.44
61.00 26.06
62.00 25.16
63.00 24.61
64.00 24.39
65.00 24.49
66.00 24.87
67.00 25.43
68.00 26.08
69.00 26.78
70.00 27.55
71.00 28.45
72.00 29.56
73.00 30.90
74.00 32.41
75.00 33.95
76.00 35.41
77.00 36.83
78.00 38.37
79.00 40.20
80.00 42.73
81.00 46.84
82.00 50.59
83.00 46.92
84.00 44.45
85.00 44.54
86.00 46.42
87.00 48.63
88.00 50.25
89.00 50.58
90.00 47.00
91.00 43.72
92.00 42.15
93.00 41.17
94.00 39.50
95.00 37.71
96.00 36.87
97.00 37.36
98.00 39.25
99.00 42.46
100.00 46.48
101.00 50.08
102.00 53.67
103.00 59.40
104.00 54.82
105.00 48.79
106.00 45.53
107.00 43.88
108.00 43.12
109.00 42.52
110.00 41.58
111.00 40.37
112.00 39.24
113.00 38.51
114.00 38.35
115.00 38.74
116.00 39.33
117.00 39.49
118.00 38.83
119.00 37.85
120.00 37.38
121.00 38.07
122.00 40.33
123.00 43.93
124.00 45.50
125.00 44.69
126.00 44.92
127.00 44.98
128.00 43.75
129.00 43.36
130.00 44.37
131.00 44.23
132.00 41.80
133.00 40.00
134.00 39.56
135.00 40.37
136.00 42.36
137.00 45.64
138.00 49.71
139.00 51.66
140.00 48.21
141.00 43.06
142.00 39.37
143.00 37.41
144.00 36.92
145.00 37.60
146.00 39.09
147.00 40.88
148.00 41.54
149.00 39.81
150.00 37.68
151.00 36.67
152.00 37.08
153.00 38.78
154.00 41.15
155.00 42.11
156.00 39.96
157.00 36.65
158.00 33.93
159.00 32.27
160.00 31.69
161.00 32.13
162.00 33.35
163.00 34.76
164.00 35.52
165.00 35.73
166.00 36.17
167.00 37.12
168.00 38.25
169.00 39.17
170.00 39.40
171.00 37.99
172.00 35.54
173.00 33.50
174.00 32.30
175.00 31.81
176.00 31.69
177.00 31.88
178.00 32.41
179.00 33.82
180.00 36.99
181.00 42.94
182.00 43.38
183.00 39.48
184.00 39.21
185.00 42.75
186.00 52.20
187.00 47.98
188.00 43.20
189.00 38.98
190.00 35.04
191.00 32.76
192.00 32.38
193.00 33.99
194.00 37.91
195.00 43.72
196.00 44.62
197.00 44.13
198.00 45.62
199.00 44.90
200.00 43.65
201.00 45.91
202.00 48.50
203.00 40.24
204.00 35.65
205.00 33.82
206.00 34.19
207.00 37.20
208.00 46.65
209.00 45.12
210.00 36.91
211.00 33.99
212.00 32.92
213.00 32.60
214.00 32.37
215.00 32.16
216.00 32.36
217.00 33.37
218.00 35.59
219.00 39.61
220.00 46.72
221.00 48.36
222.00 42.96
223.00 40.63
224.00 40.01
225.00 40.46
226.00 41.31
227.00 41.18
228.00 39.48
229.00 37.68
230.00 36.81
231.00 37.23
232.00 39.32
233.00 44.05
234.00 56.05
235.00 50.12
236.00 45.18
237.00 44.17
238.00 44.90
239.00 46.23
240.00 47.03
241.00 47.20
242.00 47.87
243.00 50.18
244.00 54.45
245.00 54.95
246.00 52.23
247.00 51.69
248.00 52.74
249.00 54.09
250.00 55.66
251.00 57.34
252.00 57.00
253.00 54.30
254.00 49.67
255.00 45.59
256.00 43.29
257.00 42.94
258.00 44.71
259.00 48.79
260.00 49.55
261.00 44.27
262.00 40.45
263.00 38.09
264.00 36.87
265.00 36.58
266.00 36.82
267.00 36.77
268.00 35.89
269.00 34.69
270.00 33.74
271.00 33.14
272.00 32.76
273.00 32.44
274.00 32.12
275.00 31.76
276.00 31.38
277.00 30.95
278.00 30.37
279.00 29.56
280.00 28.52
281.00 27.42
282.00 26.43
283.00 25.64
284.00 25.11
285.00 24.82
286.00 24.75
287.00 24.84
288.00 25.05
289.00 25.32
290.00 25.63
291.00 26.03
292.00 26.62
293.00 27.54
294.00 28.95
295.00 31.23
296.00 35.45
297.00 44.34
298.00 35.82
299.00 29.33
300.00 25.69
301.00 23.48
302.00 22.20
303.00 21.54
304.00 21.31
305.00 21.44
306.00 21.97
307.00 23.08
308.00 25.00
309.00 28.01
310.00 31.41
311.00 30.48
312.00 26.78
313.00 23.81
314.00 21.70
315.00 20.30
316.00 19.61
317.00 19.68
318.00 20.60
319.00 22.51
320.00 25.72
321.00 30.84
322.00 37.23
323.00 34.67
324.00 31.16
325.00 29.19
326.00 27.66
327.00 26.06
328.00 24.51
329.00 23.37
330.00 22.95
331.00 23.35
332.00 24.25
333.00 24.38
334.00 22.93
335.00 21.27
336.00 20.47
337.00 20.98
338.00 23.24
339.00 27.69
340.00 27.06
341.00 21.70
342.00 18.60
343.00 17.31
344.00 17.54
345.00 19.41
346.00 23.77
347.00 36.18
348.00 29.40
349.00 23.08
350.00 21.00
351.00 21.03
352.00 22.66
353.00 24.71
354.00 24.60
355.00 24.19
356.00 27.99
357.00 29.26
358.00 16.77
359.00 10.45
