NAME ATR4518R7_2535_X_CO_M45_03T_yL
FREQUENCY 2535
GAIN 15.89 dBd
TILT	ELECTRICAL
COMMENT DATE 05.08.2013 -45 degrees polarized system Lever position 03T deg
HORIZONTAL 360
0.00 0.01
1.00 0.03
2.00 0.07
3.00 0.11
4.00 0.18
5.00 0.25
6.00 0.34
7.00 0.45
8.00 0.56
9.00 0.69
10.00 0.82
11.00 0.96
12.00 1.11
13.00 1.26
14.00 1.41
15.00 1.56
16.00 1.71
17.00 1.86
18.00 2.00
19.00 2.15
20.00 2.29
21.00 2.42
22.00 2.56
23.00 2.70
24.00 2.84
25.00 2.99
26.00 3.14
27.00 3.29
28.00 3.45
29.00 3.62
30.00 3.80
31.00 3.99
32.00 4.19
33.00 4.40
34.00 4.62
35.00 4.85
36.00 5.09
37.00 5.34
38.00 5.60
39.00 5.87
40.00 6.14
41.00 6.43
42.00 6.72
43.00 7.02
44.00 7.32
45.00 7.63
46.00 7.94
47.00 8.25
48.00 8.57
49.00 8.89
50.00 9.21
51.00 9.53
52.00 9.84
53.00 10.15
54.00 10.46
55.00 10.77
56.00 11.07
57.00 11.36
58.00 11.66
59.00 11.95
60.00 12.24
61.00 12.53
62.00 12.82
63.00 13.11
64.00 13.40
65.00 13.71
66.00 14.02
67.00 14.33
68.00 14.66
69.00 15.00
70.00 15.35
71.00 15.72
72.00 16.09
73.00 16.48
74.00 16.88
75.00 17.28
76.00 17.69
77.00 18.10
78.00 18.51
79.00 18.92
80.00 19.32
81.00 19.72
82.00 20.11
83.00 20.49
84.00 20.86
85.00 21.23
86.00 21.59
87.00 21.97
88.00 22.34
89.00 22.73
90.00 23.14
91.00 23.58
92.00 24.04
93.00 24.54
94.00 25.08
95.00 25.66
96.00 26.29
97.00 26.97
98.00 27.69
99.00 28.46
100.00 29.28
101.00 30.16
102.00 31.08
103.00 32.04
104.00 33.04
105.00 34.09
106.00 35.17
107.00 36.29
108.00 37.43
109.00 38.54
110.00 39.55
111.00 40.29
112.00 40.58
113.00 40.31
114.00 39.57
115.00 38.56
116.00 37.47
117.00 36.40
118.00 35.43
119.00 34.56
120.00 33.83
121.00 33.21
122.00 32.71
123.00 32.33
124.00 32.08
125.00 31.93
126.00 31.90
127.00 31.99
128.00 32.19
129.00 32.52
130.00 32.98
131.00 33.58
132.00 34.34
133.00 35.28
134.00 36.43
135.00 37.83
136.00 39.56
137.00 41.71
138.00 44.45
139.00 47.84
140.00 50.70
141.00 49.61
142.00 46.62
143.00 44.07
144.00 42.18
145.00 40.76
146.00 39.70
147.00 38.90
148.00 38.33
149.00 37.93
150.00 37.68
151.00 37.56
152.00 37.56
153.00 37.65
154.00 37.84
155.00 38.10
156.00 38.44
157.00 38.83
158.00 39.25
159.00 39.69
160.00 40.12
161.00 40.52
162.00 40.85
163.00 41.09
164.00 41.24
165.00 41.28
166.00 41.24
167.00 41.13
168.00 40.96
169.00 40.78
170.00 40.59
171.00 40.40
172.00 40.21
173.00 40.04
174.00 39.87
175.00 39.71
176.00 39.57
177.00 39.45
178.00 39.35
179.00 39.30
180.00 39.30
181.00 39.39
182.00 39.58
183.00 39.91
184.00 40.39
185.00 41.10
186.00 42.08
187.00 43.44
188.00 45.36
189.00 48.19
190.00 52.73
191.00 58.95
192.00 53.58
193.00 48.11
194.00 44.62
195.00 42.17
196.00 40.35
197.00 38.97
198.00 37.93
199.00 37.18
200.00 36.67
201.00 36.40
202.00 36.36
203.00 36.55
204.00 36.99
205.00 37.73
206.00 38.81
207.00 40.35
208.00 42.54
209.00 45.77
210.00 50.80
211.00 53.90
212.00 48.30
213.00 43.99
214.00 41.14
215.00 39.13
216.00 37.70
217.00 36.67
218.00 35.98
219.00 35.59
220.00 35.46
221.00 35.59
222.00 35.99
223.00 36.70
224.00 37.73
225.00 39.16
226.00 41.01
227.00 43.12
228.00 44.52
229.00 43.69
230.00 41.37
231.00 39.04
232.00 37.09
233.00 35.53
234.00 34.30
235.00 33.35
236.00 32.63
237.00 32.11
238.00 31.77
239.00 31.59
240.00 31.55
241.00 31.64
242.00 31.84
243.00 32.12
244.00 32.44
245.00 32.75
246.00 32.96
247.00 32.99
248.00 32.79
249.00 32.36
250.00 31.74
251.00 30.99
252.00 30.20
253.00 29.41
254.00 28.66
255.00 27.97
256.00 27.35
257.00 26.80
258.00 26.32
259.00 25.92
260.00 25.59
261.00 25.33
262.00 25.13
263.00 24.98
264.00 24.88
265.00 24.82
266.00 24.79
267.00 24.76
268.00 24.73
269.00 24.66
270.00 24.53
271.00 24.34
272.00 24.06
273.00 23.71
274.00 23.28
275.00 22.81
276.00 22.29
277.00 21.77
278.00 21.24
279.00 20.73
280.00 20.24
281.00 19.77
282.00 19.34
283.00 18.94
284.00 18.57
285.00 18.22
286.00 17.90
287.00 17.59
288.00 17.29
289.00 17.00
290.00 16.70
291.00 16.40
292.00 16.08
293.00 15.75
294.00 15.40
295.00 15.04
296.00 14.65
297.00 14.26
298.00 13.85
299.00 13.43
300.00 13.01
301.00 12.60
302.00 12.17
303.00 11.76
304.00 11.34
305.00 10.93
306.00 10.53
307.00 10.13
308.00 9.73
309.00 9.33
310.00 8.93
311.00 8.54
312.00 8.14
313.00 7.74
314.00 7.34
315.00 6.94
316.00 6.54
317.00 6.14
318.00 5.75
319.00 5.36
320.00 4.98
321.00 4.61
322.00 4.25
323.00 3.90
324.00 3.57
325.00 3.26
326.00 2.96
327.00 2.68
328.00 2.41
329.00 2.17
330.00 1.94
331.00 1.73
332.00 1.54
333.00 1.37
334.00 1.21
335.00 1.07
336.00 0.95
337.00 0.84
338.00 0.74
339.00 0.66
340.00 0.59
341.00 0.53
342.00 0.48
343.00 0.44
344.00 0.40
345.00 0.36
346.00 0.33
347.00 0.31
348.00 0.28
349.00 0.25
350.00 0.22
351.00 0.19
352.00 0.15
353.00 0.12
354.00 0.09
355.00 0.06
356.00 0.03
357.00 0.02
358.00 0.01
359.00 0.00
VERTICAL 360
0.00 6.32
1.00 3.07
2.00 1.00
3.00 0.05
4.00 0.26
5.00 1.82
6.00 5.24
7.00 12.39
8.00 27.76
9.00 12.54
10.00 10.11
11.00 11.15
12.00 14.49
13.00 16.22
14.00 14.38
15.00 13.87
16.00 15.89
17.00 21.50
18.00 22.40
19.00 17.19
20.00 16.07
21.00 18.43
22.00 24.62
23.00 23.39
24.00 18.73
25.00 17.06
26.00 17.69
27.00 21.56
28.00 40.26
29.00 23.44
30.00 18.42
31.00 17.62
32.00 19.60
33.00 24.12
34.00 26.11
35.00 23.59
36.00 22.91
37.00 23.67
38.00 24.80
39.00 26.23
40.00 27.03
41.00 25.57
42.00 24.50
43.00 25.59
44.00 29.38
45.00 34.78
46.00 33.35
47.00 31.07
48.00 30.27
49.00 29.86
50.00 29.79
51.00 30.42
52.00 31.22
53.00 31.45
54.00 31.99
55.00 33.52
56.00 34.19
57.00 32.29
58.00 30.26
59.00 29.25
60.00 29.20
61.00 29.69
62.00 30.06
63.00 29.97
64.00 29.68
65.00 29.49
66.00 29.36
67.00 29.19
68.00 28.98
69.00 28.71
70.00 28.50
71.00 28.52
72.00 28.68
73.00 28.78
74.00 28.50
75.00 27.87
76.00 27.84
77.00 29.12
78.00 31.41
79.00 33.15
80.00 32.73
81.00 31.25
82.00 31.18
83.00 33.96
84.00 40.57
85.00 42.67
86.00 36.79
87.00 32.03
88.00 29.89
89.00 30.57
90.00 33.77
91.00 37.72
92.00 39.14
93.00 36.01
94.00 32.57
95.00 31.58
96.00 32.89
97.00 35.73
98.00 38.12
99.00 37.78
100.00 36.64
101.00 37.09
102.00 39.89
103.00 45.35
104.00 54.19
105.00 50.17
106.00 45.93
107.00 47.09
108.00 50.74
109.00 45.30
110.00 42.78
111.00 43.28
112.00 44.29
113.00 44.84
114.00 46.32
115.00 48.23
116.00 51.85
117.00 57.23
118.00 46.41
119.00 41.55
120.00 39.01
121.00 38.11
122.00 39.78
123.00 47.90
124.00 47.34
125.00 39.05
126.00 36.87
127.00 36.91
128.00 38.16
129.00 41.58
130.00 53.73
131.00 44.70
132.00 40.01
133.00 40.30
134.00 41.23
135.00 38.30
136.00 36.07
137.00 35.95
138.00 37.92
139.00 42.37
140.00 47.94
141.00 47.92
142.00 42.16
143.00 36.52
144.00 33.42
145.00 32.19
146.00 32.49
147.00 35.11
148.00 41.72
149.00 37.45
150.00 33.10
151.00 32.47
152.00 34.07
153.00 37.25
154.00 39.72
155.00 37.25
156.00 36.62
157.00 41.62
158.00 50.11
159.00 38.98
160.00 37.42
161.00 38.57
162.00 39.88
163.00 42.17
164.00 47.83
165.00 76.62
166.00 48.19
167.00 42.47
168.00 40.67
169.00 40.70
170.00 40.40
171.00 38.83
172.00 37.51
173.00 38.42
174.00 44.32
175.00 48.90
176.00 40.47
177.00 39.08
178.00 39.74
179.00 40.50
180.00 43.97
181.00 69.75
182.00 45.68
183.00 43.74
184.00 48.41
185.00 43.99
186.00 38.54
187.00 36.05
188.00 34.79
189.00 34.53
190.00 35.89
191.00 39.57
192.00 41.43
193.00 37.50
194.00 35.51
195.00 35.35
196.00 35.23
197.00 34.27
198.00 33.73
199.00 34.31
200.00 35.72
201.00 37.18
202.00 38.12
203.00 38.77
204.00 40.16
205.00 43.68
206.00 51.43
207.00 55.86
208.00 47.39
209.00 42.79
210.00 40.29
211.00 38.28
212.00 36.26
213.00 35.50
214.00 36.84
215.00 40.46
216.00 45.38
217.00 49.70
218.00 52.80
219.00 55.07
220.00 59.01
221.00 44.22
222.00 38.43
223.00 35.38
224.00 33.39
225.00 31.86
226.00 30.98
227.00 31.03
228.00 31.82
229.00 32.82
230.00 33.84
231.00 35.33
232.00 37.41
233.00 39.24
234.00 39.69
235.00 38.57
236.00 36.14
237.00 32.98
238.00 30.08
239.00 27.99
240.00 26.81
241.00 26.48
242.00 26.88
243.00 27.88
244.00 29.36
245.00 31.26
246.00 33.60
247.00 36.50
248.00 39.82
249.00 43.22
250.00 47.50
251.00 46.95
252.00 42.92
253.00 43.23
254.00 50.76
255.00 51.96
256.00 45.09
257.00 42.56
258.00 38.44
259.00 35.17
260.00 33.09
261.00 31.37
262.00 30.05
263.00 29.72
264.00 30.68
265.00 32.71
266.00 35.35
267.00 39.90
268.00 53.59
269.00 39.90
270.00 34.87
271.00 32.50
272.00 31.77
273.00 33.24
274.00 35.54
275.00 33.76
276.00 32.15
277.00 31.56
278.00 30.25
279.00 29.60
280.00 30.76
281.00 33.05
282.00 33.48
283.00 30.77
284.00 27.85
285.00 26.18
286.00 25.73
287.00 25.94
288.00 26.23
289.00 26.41
290.00 26.65
291.00 27.00
292.00 27.14
293.00 26.84
294.00 26.24
295.00 25.24
296.00 23.44
297.00 21.23
298.00 19.39
299.00 18.22
300.00 17.68
301.00 17.65
302.00 18.14
303.00 19.32
304.00 21.49
305.00 24.59
306.00 26.13
307.00 23.72
308.00 21.01
309.00 19.34
310.00 18.80
311.00 19.40
312.00 21.22
313.00 23.84
314.00 24.45
315.00 22.37
316.00 21.11
317.00 21.86
318.00 25.20
319.00 30.81
320.00 27.50
321.00 23.47
322.00 21.97
323.00 22.78
324.00 27.27
325.00 50.04
326.00 25.35
327.00 20.41
328.00 18.58
329.00 18.54
330.00 19.97
331.00 22.81
332.00 25.41
333.00 23.72
334.00 21.66
335.00 21.80
336.00 24.19
337.00 24.35
338.00 21.02
339.00 19.81
340.00 21.78
341.00 28.98
342.00 27.79
343.00 21.02
344.00 18.84
345.00 19.60
346.00 24.03
347.00 28.12
348.00 21.31
349.00 18.81
350.00 19.69
351.00 24.59
352.00 34.52
353.00 23.46
354.00 19.78
355.00 19.31
356.00 21.11
357.00 23.02
358.00 17.36
359.00 10.97
