NAME ATR4518R7_2655_X_CO_P45_05T_yyR
FREQUENCY 2655
GAIN 15.97 dBd
TILT	ELECTRICAL
COMMENT DATE 05.08.2013 +45 degrees polarized system Lever position 05T deg
HORIZONTAL 360
0.00 0.06
1.00 0.09
2.00 0.14
3.00 0.18
4.00 0.24
5.00 0.30
6.00 0.37
7.00 0.45
8.00 0.54
9.00 0.63
10.00 0.73
11.00 0.84
12.00 0.95
13.00 1.07
14.00 1.20
15.00 1.34
16.00 1.48
17.00 1.62
18.00 1.78
19.00 1.93
20.00 2.09
21.00 2.25
22.00 2.42
23.00 2.58
24.00 2.74
25.00 2.90
26.00 3.06
27.00 3.21
28.00 3.37
29.00 3.51
30.00 3.66
31.00 3.80
32.00 3.94
33.00 4.08
34.00 4.22
35.00 4.36
36.00 4.50
37.00 4.65
38.00 4.81
39.00 4.98
40.00 5.16
41.00 5.36
42.00 5.57
43.00 5.80
44.00 6.05
45.00 6.31
46.00 6.60
47.00 6.90
48.00 7.23
49.00 7.58
50.00 7.96
51.00 8.35
52.00 8.78
53.00 9.22
54.00 9.68
55.00 10.17
56.00 10.69
57.00 11.22
58.00 11.78
59.00 12.37
60.00 12.98
61.00 13.62
62.00 14.29
63.00 14.98
64.00 15.71
65.00 16.47
66.00 17.26
67.00 18.10
68.00 18.97
69.00 19.89
70.00 20.85
71.00 21.87
72.00 22.93
73.00 24.04
74.00 25.20
75.00 26.40
76.00 27.64
77.00 28.88
78.00 30.09
79.00 31.22
80.00 32.19
81.00 32.90
82.00 33.29
83.00 33.36
84.00 33.15
85.00 32.75
86.00 32.23
87.00 31.66
88.00 31.09
89.00 30.53
90.00 30.02
91.00 29.55
92.00 29.14
93.00 28.79
94.00 28.51
95.00 28.30
96.00 28.16
97.00 28.10
98.00 28.11
99.00 28.20
100.00 28.35
101.00 28.58
102.00 28.87
103.00 29.22
104.00 29.61
105.00 30.03
106.00 30.45
107.00 30.84
108.00 31.17
109.00 31.41
110.00 31.54
111.00 31.58
112.00 31.53
113.00 31.43
114.00 31.32
115.00 31.23
116.00 31.21
117.00 31.26
118.00 31.42
119.00 31.70
120.00 32.13
121.00 32.72
122.00 33.50
123.00 34.51
124.00 35.81
125.00 37.45
126.00 39.54
127.00 42.13
128.00 44.86
129.00 45.79
130.00 43.87
131.00 41.33
132.00 39.22
133.00 37.61
134.00 36.40
135.00 35.51
136.00 34.89
137.00 34.47
138.00 34.24
139.00 34.16
140.00 34.20
141.00 34.32
142.00 34.48
143.00 34.62
144.00 34.69
145.00 34.65
146.00 34.48
147.00 34.18
148.00 33.80
149.00 33.39
150.00 32.99
151.00 32.65
152.00 32.38
153.00 32.22
154.00 32.17
155.00 32.26
156.00 32.48
157.00 32.86
158.00 33.40
159.00 34.12
160.00 35.05
161.00 36.21
162.00 37.65
163.00 39.40
164.00 41.46
165.00 43.65
166.00 45.28
167.00 45.36
168.00 44.13
169.00 42.65
170.00 41.44
171.00 40.60
172.00 40.14
173.00 40.04
174.00 40.31
175.00 40.98
176.00 42.11
177.00 43.78
178.00 45.98
179.00 47.94
180.00 47.34
181.00 44.50
182.00 41.63
183.00 39.28
184.00 37.42
185.00 35.94
186.00 34.79
187.00 33.90
188.00 33.24
189.00 32.80
190.00 32.55
191.00 32.51
192.00 32.66
193.00 33.03
194.00 33.63
195.00 34.52
196.00 35.75
197.00 37.44
198.00 39.83
199.00 43.44
200.00 49.85
201.00 55.42
202.00 46.21
203.00 41.45
204.00 38.51
205.00 36.47
206.00 35.01
207.00 33.95
208.00 33.22
209.00 32.76
210.00 32.54
211.00 32.57
212.00 32.84
213.00 33.37
214.00 34.20
215.00 35.40
216.00 37.11
217.00 39.58
218.00 43.50
219.00 51.13
220.00 52.46
221.00 43.73
222.00 39.27
223.00 36.37
224.00 34.27
225.00 32.67
226.00 31.43
227.00 30.46
228.00 29.70
229.00 29.11
230.00 28.68
231.00 28.39
232.00 28.22
233.00 28.15
234.00 28.19
235.00 28.31
236.00 28.51
237.00 28.78
238.00 29.10
239.00 29.46
240.00 29.84
241.00 30.20
242.00 30.54
243.00 30.83
244.00 31.04
245.00 31.17
246.00 31.22
247.00 31.21
248.00 31.15
249.00 31.07
250.00 30.98
251.00 30.90
252.00 30.84
253.00 30.79
254.00 30.76
255.00 30.73
256.00 30.70
257.00 30.64
258.00 30.55
259.00 30.42
260.00 30.22
261.00 29.95
262.00 29.63
263.00 29.25
264.00 28.84
265.00 28.39
266.00 27.94
267.00 27.47
268.00 27.02
269.00 26.57
270.00 26.14
271.00 25.72
272.00 25.32
273.00 24.94
274.00 24.58
275.00 24.23
276.00 23.89
277.00 23.55
278.00 23.22
279.00 22.90
280.00 22.57
281.00 22.23
282.00 21.89
283.00 21.53
284.00 21.17
285.00 20.79
286.00 20.40
287.00 20.00
288.00 19.58
289.00 19.16
290.00 18.73
291.00 18.30
292.00 17.86
293.00 17.42
294.00 16.99
295.00 16.55
296.00 16.12
297.00 15.69
298.00 15.27
299.00 14.86
300.00 14.44
301.00 14.03
302.00 13.62
303.00 13.21
304.00 12.81
305.00 12.40
306.00 12.00
307.00 11.59
308.00 11.18
309.00 10.78
310.00 10.37
311.00 9.97
312.00 9.56
313.00 9.16
314.00 8.76
315.00 8.36
316.00 7.96
317.00 7.58
318.00 7.19
319.00 6.82
320.00 6.45
321.00 6.09
322.00 5.74
323.00 5.40
324.00 5.07
325.00 4.75
326.00 4.43
327.00 4.13
328.00 3.85
329.00 3.57
330.00 3.30
331.00 3.04
332.00 2.79
333.00 2.56
334.00 2.33
335.00 2.12
336.00 1.91
337.00 1.72
338.00 1.54
339.00 1.36
340.00 1.20
341.00 1.05
342.00 0.91
343.00 0.78
344.00 0.66
345.00 0.55
346.00 0.45
347.00 0.36
348.00 0.29
349.00 0.22
350.00 0.16
351.00 0.11
352.00 0.07
353.00 0.04
354.00 0.02
355.00 0.00
356.00 0.00
357.00 0.00
358.00 0.01
359.00 0.03
VERTICAL 360
0.00 21.05
1.00 11.81
2.00 5.85
3.00 2.32
4.00 0.45
5.00 0.00
6.00 0.95
7.00 3.53
8.00 8.52
9.00 19.66
10.00 19.98
11.00 14.53
12.00 15.62
13.00 24.02
14.00 25.15
15.00 16.40
16.00 14.84
17.00 16.91
18.00 23.39
19.00 23.88
20.00 17.89
21.00 16.38
22.00 18.21
23.00 23.02
24.00 23.30
25.00 19.95
26.00 19.61
27.00 21.96
28.00 26.25
29.00 26.27
30.00 22.05
31.00 19.53
32.00 18.09
33.00 16.60
34.00 15.42
35.00 15.53
36.00 17.44
37.00 21.49
38.00 27.73
39.00 29.67
40.00 25.21
41.00 22.65
42.00 22.65
43.00 25.70
44.00 31.31
45.00 29.41
46.00 26.43
47.00 26.03
48.00 26.55
49.00 27.81
50.00 31.33
51.00 38.83
52.00 35.87
53.00 32.31
54.00 34.34
55.00 44.99
56.00 41.52
57.00 34.18
58.00 30.64
59.00 29.29
60.00 30.30
61.00 32.66
62.00 33.22
63.00 31.91
64.00 30.37
65.00 28.53
66.00 26.74
67.00 25.66
68.00 25.50
69.00 25.85
70.00 25.99
71.00 25.62
72.00 25.26
73.00 25.68
74.00 27.26
75.00 29.93
76.00 32.94
77.00 34.83
78.00 34.55
79.00 33.20
80.00 32.85
81.00 35.75
82.00 46.34
83.00 36.52
84.00 31.59
85.00 31.11
86.00 31.03
87.00 30.24
88.00 31.86
89.00 35.35
90.00 31.36
91.00 27.70
92.00 26.78
93.00 28.20
94.00 33.61
95.00 42.90
96.00 35.56
97.00 36.08
98.00 39.65
99.00 35.57
100.00 34.68
101.00 36.28
102.00 35.83
103.00 36.06
104.00 38.09
105.00 38.93
106.00 40.35
107.00 45.17
108.00 51.52
109.00 49.86
110.00 47.54
111.00 51.01
112.00 48.54
113.00 43.22
114.00 43.36
115.00 46.18
116.00 48.65
117.00 50.87
118.00 48.27
119.00 49.32
120.00 53.22
121.00 46.50
122.00 47.67
123.00 43.79
124.00 36.34
125.00 33.80
126.00 34.45
127.00 37.34
128.00 41.97
129.00 49.54
130.00 42.20
131.00 37.85
132.00 40.09
133.00 51.80
134.00 43.43
135.00 42.21
136.00 41.59
137.00 37.71
138.00 39.87
139.00 50.49
140.00 40.87
141.00 40.36
142.00 37.21
143.00 31.87
144.00 30.77
145.00 33.07
146.00 37.09
147.00 40.31
148.00 44.93
149.00 49.18
150.00 49.12
151.00 50.53
152.00 47.13
153.00 41.77
154.00 40.71
155.00 48.90
156.00 42.44
157.00 34.61
158.00 32.42
159.00 32.42
160.00 32.85
161.00 33.05
162.00 33.66
163.00 35.12
164.00 37.17
165.00 39.24
166.00 41.39
167.00 43.76
168.00 45.47
169.00 46.50
170.00 48.22
171.00 45.57
172.00 40.22
173.00 37.84
174.00 38.47
175.00 42.11
176.00 43.26
177.00 37.71
178.00 34.64
179.00 34.05
180.00 34.88
181.00 36.76
182.00 38.96
183.00 39.85
184.00 38.31
185.00 37.03
186.00 38.30
187.00 44.95
188.00 53.28
189.00 40.52
190.00 37.81
191.00 38.45
192.00 41.67
193.00 48.16
194.00 54.82
195.00 41.40
196.00 36.89
197.00 36.22
198.00 37.61
199.00 37.96
200.00 35.91
201.00 34.28
202.00 34.87
203.00 37.95
204.00 38.40
205.00 36.05
206.00 36.11
207.00 37.56
208.00 38.70
209.00 40.51
210.00 43.58
211.00 46.93
212.00 46.65
213.00 42.55
214.00 40.70
215.00 40.68
216.00 40.71
217.00 40.07
218.00 38.51
219.00 36.36
220.00 34.85
221.00 34.70
222.00 35.99
223.00 37.89
224.00 38.54
225.00 38.48
226.00 38.41
227.00 36.99
228.00 35.00
229.00 33.72
230.00 33.60
231.00 34.67
232.00 35.48
233.00 34.78
234.00 34.61
235.00 35.89
236.00 38.10
237.00 40.71
238.00 39.34
239.00 35.66
240.00 34.43
241.00 35.68
242.00 38.74
243.00 43.06
244.00 49.27
245.00 42.87
246.00 36.18
247.00 33.29
248.00 32.76
249.00 34.09
250.00 36.54
251.00 37.50
252.00 36.64
253.00 37.37
254.00 41.60
255.00 46.52
256.00 41.95
257.00 39.27
258.00 38.92
259.00 38.73
260.00 35.90
261.00 32.59
262.00 31.03
263.00 31.31
264.00 32.97
265.00 35.09
266.00 36.48
267.00 36.44
268.00 35.27
269.00 34.05
270.00 33.67
271.00 33.87
272.00 33.61
273.00 33.35
274.00 33.53
275.00 33.12
276.00 33.04
277.00 35.35
278.00 39.26
279.00 37.49
280.00 35.40
281.00 36.32
282.00 40.06
283.00 43.18
284.00 39.21
285.00 36.00
286.00 34.82
287.00 35.12
288.00 36.55
289.00 37.76
290.00 37.03
291.00 35.54
292.00 34.95
293.00 35.61
294.00 36.79
295.00 38.11
296.00 39.23
297.00 33.53
298.00 26.72
299.00 21.95
300.00 18.50
301.00 15.93
302.00 13.98
303.00 12.54
304.00 11.54
305.00 10.94
306.00 10.77
307.00 11.08
308.00 12.02
309.00 13.78
310.00 16.81
311.00 22.36
312.00 33.13
313.00 26.09
314.00 20.99
315.00 19.76
316.00 21.06
317.00 25.68
318.00 35.75
319.00 28.71
320.00 24.03
321.00 23.55
322.00 26.78
323.00 39.17
324.00 28.58
325.00 21.94
326.00 19.61
327.00 19.73
328.00 22.69
329.00 32.17
330.00 28.00
331.00 20.97
332.00 19.07
333.00 20.29
334.00 25.56
335.00 30.46
336.00 23.51
337.00 21.39
338.00 23.52
339.00 34.27
340.00 31.36
341.00 24.02
342.00 23.11
343.00 26.23
344.00 33.14
345.00 27.94
346.00 23.87
347.00 24.30
348.00 30.02
349.00 38.20
350.00 27.55
351.00 25.42
352.00 27.55
353.00 33.22
354.00 32.89
355.00 32.37
356.00 39.73
357.00 26.74
358.00 21.54
359.00 22.13
