NAME ATR4518R7_1880_X_CO_P45_10T_yyR
FREQUENCY 1880
GAIN 14.44 dBd
TILT	ELECTRICAL
COMMENT DATE 05.08.2013 +45 degrees polarized system Lever position 10T deg
HORIZONTAL 360
0.00 0.05
1.00 0.03
2.00 0.02
3.00 0.01
4.00 0.00
5.00 0.01
6.00 0.01
7.00 0.03
8.00 0.05
9.00 0.08
10.00 0.12
11.00 0.17
12.00 0.23
13.00 0.29
14.00 0.36
15.00 0.45
16.00 0.54
17.00 0.65
18.00 0.76
19.00 0.88
20.00 1.02
21.00 1.16
22.00 1.32
23.00 1.48
24.00 1.66
25.00 1.84
26.00 2.04
27.00 2.24
28.00 2.45
29.00 2.67
30.00 2.89
31.00 3.12
32.00 3.36
33.00 3.60
34.00 3.85
35.00 4.10
36.00 4.36
37.00 4.61
38.00 4.87
39.00 5.13
40.00 5.39
41.00 5.66
42.00 5.92
43.00 6.18
44.00 6.44
45.00 6.70
46.00 6.96
47.00 7.22
48.00 7.47
49.00 7.73
50.00 7.99
51.00 8.25
52.00 8.50
53.00 8.76
54.00 9.02
55.00 9.27
56.00 9.53
57.00 9.79
58.00 10.05
59.00 10.30
60.00 10.56
61.00 10.82
62.00 11.08
63.00 11.34
64.00 11.59
65.00 11.85
66.00 12.12
67.00 12.38
68.00 12.65
69.00 12.92
70.00 13.19
71.00 13.47
72.00 13.76
73.00 14.05
74.00 14.35
75.00 14.66
76.00 14.98
77.00 15.31
78.00 15.64
79.00 15.99
80.00 16.35
81.00 16.73
82.00 17.11
83.00 17.50
84.00 17.91
85.00 18.32
86.00 18.74
87.00 19.17
88.00 19.61
89.00 20.04
90.00 20.48
91.00 20.91
92.00 21.33
93.00 21.75
94.00 22.16
95.00 22.56
96.00 22.94
97.00 23.31
98.00 23.66
99.00 24.01
100.00 24.35
101.00 24.69
102.00 25.03
103.00 25.38
104.00 25.73
105.00 26.11
106.00 26.50
107.00 26.92
108.00 27.37
109.00 27.84
110.00 28.35
111.00 28.89
112.00 29.45
113.00 30.02
114.00 30.59
115.00 31.14
116.00 31.64
117.00 32.05
118.00 32.35
119.00 32.52
120.00 32.54
121.00 32.45
122.00 32.26
123.00 32.01
124.00 31.73
125.00 31.44
126.00 31.18
127.00 30.96
128.00 30.78
129.00 30.65
130.00 30.57
131.00 30.56
132.00 30.61
133.00 30.73
134.00 30.91
135.00 31.15
136.00 31.45
137.00 31.83
138.00 32.26
139.00 32.76
140.00 33.30
141.00 33.90
142.00 34.52
143.00 35.14
144.00 35.75
145.00 36.29
146.00 36.72
147.00 37.00
148.00 37.10
149.00 37.02
150.00 36.80
151.00 36.47
152.00 36.08
153.00 35.67
154.00 35.26
155.00 34.87
156.00 34.51
157.00 34.20
158.00 33.93
159.00 33.70
160.00 33.52
161.00 33.38
162.00 33.29
163.00 33.24
164.00 33.24
165.00 33.28
166.00 33.37
167.00 33.50
168.00 33.67
169.00 33.88
170.00 34.12
171.00 34.40
172.00 34.69
173.00 34.98
174.00 35.27
175.00 35.51
176.00 35.71
177.00 35.82
178.00 35.84
179.00 35.76
180.00 35.59
181.00 35.34
182.00 35.03
183.00 34.70
184.00 34.37
185.00 34.05
186.00 33.76
187.00 33.52
188.00 33.34
189.00 33.21
190.00 33.15
191.00 33.16
192.00 33.24
193.00 33.40
194.00 33.64
195.00 33.96
196.00 34.35
197.00 34.81
198.00 35.32
199.00 35.84
200.00 36.31
201.00 36.68
202.00 36.86
203.00 36.77
204.00 36.42
205.00 35.84
206.00 35.11
207.00 34.31
208.00 33.51
209.00 32.74
210.00 32.01
211.00 31.35
212.00 30.76
213.00 30.23
214.00 29.77
215.00 29.36
216.00 29.02
217.00 28.73
218.00 28.49
219.00 28.29
220.00 28.13
221.00 28.00
222.00 27.90
223.00 27.81
224.00 27.75
225.00 27.68
226.00 27.62
227.00 27.55
228.00 27.46
229.00 27.36
230.00 27.24
231.00 27.09
232.00 26.92
233.00 26.72
234.00 26.51
235.00 26.29
236.00 26.05
237.00 25.82
238.00 25.58
239.00 25.34
240.00 25.12
241.00 24.91
242.00 24.71
243.00 24.53
244.00 24.36
245.00 24.21
246.00 24.08
247.00 23.97
248.00 23.88
249.00 23.80
250.00 23.74
251.00 23.70
252.00 23.66
253.00 23.64
254.00 23.63
255.00 23.63
256.00 23.64
257.00 23.65
258.00 23.65
259.00 23.66
260.00 23.67
261.00 23.67
262.00 23.66
263.00 23.64
264.00 23.61
265.00 23.56
266.00 23.49
267.00 23.40
268.00 23.29
269.00 23.16
270.00 23.01
271.00 22.84
272.00 22.64
273.00 22.41
274.00 22.17
275.00 21.90
276.00 21.61
277.00 21.30
278.00 20.98
279.00 20.64
280.00 20.29
281.00 19.93
282.00 19.56
283.00 19.18
284.00 18.80
285.00 18.41
286.00 18.02
287.00 17.62
288.00 17.23
289.00 16.83
290.00 16.43
291.00 16.04
292.00 15.64
293.00 15.25
294.00 14.85
295.00 14.46
296.00 14.07
297.00 13.69
298.00 13.30
299.00 12.92
300.00 12.53
301.00 12.15
302.00 11.77
303.00 11.40
304.00 11.02
305.00 10.65
306.00 10.28
307.00 9.92
308.00 9.55
309.00 9.19
310.00 8.83
311.00 8.48
312.00 8.13
313.00 7.79
314.00 7.45
315.00 7.12
316.00 6.79
317.00 6.47
318.00 6.15
319.00 5.85
320.00 5.55
321.00 5.25
322.00 4.97
323.00 4.69
324.00 4.42
325.00 4.16
326.00 3.92
327.00 3.67
328.00 3.44
329.00 3.22
330.00 3.01
331.00 2.80
332.00 2.61
333.00 2.42
334.00 2.25
335.00 2.08
336.00 1.92
337.00 1.77
338.00 1.63
339.00 1.50
340.00 1.37
341.00 1.25
342.00 1.14
343.00 1.04
344.00 0.94
345.00 0.85
346.00 0.77
347.00 0.69
348.00 0.61
349.00 0.54
350.00 0.48
351.00 0.42
352.00 0.36
353.00 0.31
354.00 0.26
355.00 0.22
356.00 0.18
357.00 0.14
358.00 0.11
359.00 0.08
VERTICAL 360
0.00 29.86
1.00 28.31
2.00 28.58
3.00 20.53
4.00 13.14
5.00 8.18
6.00 4.75
7.00 2.39
8.00 0.89
9.00 0.13
10.00 0.04
11.00 0.60
12.00 1.86
13.00 4.01
14.00 7.47
15.00 13.57
16.00 27.64
17.00 18.57
18.00 13.88
19.00 13.12
20.00 14.68
21.00 18.94
22.00 28.62
23.00 26.49
24.00 20.47
25.00 18.83
26.00 19.32
27.00 21.68
28.00 27.05
29.00 38.60
30.00 26.94
31.00 21.44
32.00 19.06
33.00 18.57
34.00 19.92
35.00 23.94
36.00 33.86
37.00 29.71
38.00 23.48
39.00 21.40
40.00 21.12
41.00 21.98
42.00 23.90
43.00 27.51
44.00 34.02
45.00 33.47
46.00 27.61
47.00 24.81
48.00 23.57
49.00 23.14
50.00 23.13
51.00 23.23
52.00 23.20
53.00 22.95
54.00 22.68
55.00 22.72
56.00 23.32
57.00 24.64
58.00 26.74
59.00 29.32
60.00 31.55
61.00 32.58
62.00 32.73
63.00 32.62
64.00 32.46
65.00 32.32
66.00 32.43
67.00 32.99
68.00 34.13
69.00 35.70
70.00 37.09
71.00 37.61
72.00 37.57
73.00 37.58
74.00 37.54
75.00 36.60
76.00 34.30
77.00 31.78
78.00 30.09
79.00 29.36
80.00 29.12
81.00 28.57
82.00 27.51
83.00 26.53
84.00 26.17
85.00 26.72
86.00 28.30
87.00 30.86
88.00 33.59
89.00 34.13
90.00 31.74
91.00 28.79
92.00 26.64
93.00 25.59
94.00 25.58
95.00 26.38
96.00 27.62
97.00 28.96
98.00 30.17
99.00 31.31
100.00 32.70
101.00 34.60
102.00 36.90
103.00 38.85
104.00 39.78
105.00 40.07
106.00 40.02
107.00 39.28
108.00 37.86
109.00 36.38
110.00 35.43
111.00 35.27
112.00 35.88
113.00 36.97
114.00 38.13
115.00 39.12
116.00 40.10
117.00 41.75
118.00 45.07
119.00 51.10
120.00 52.48
121.00 48.06
122.00 46.24
123.00 45.87
124.00 45.81
125.00 45.00
126.00 43.65
127.00 42.76
128.00 42.41
129.00 41.85
130.00 40.68
131.00 39.07
132.00 37.25
133.00 35.71
134.00 34.90
135.00 34.98
136.00 35.78
137.00 36.83
138.00 37.59
139.00 37.79
140.00 37.40
141.00 36.35
142.00 34.75
143.00 33.27
144.00 32.61
145.00 33.19
146.00 35.19
147.00 38.40
148.00 41.62
149.00 43.78
150.00 46.24
151.00 51.82
152.00 61.80
153.00 45.05
154.00 39.89
155.00 38.15
156.00 38.60
157.00 40.16
158.00 41.54
159.00 43.49
160.00 48.33
161.00 55.35
162.00 52.45
163.00 48.47
164.00 42.53
165.00 37.98
166.00 35.17
167.00 33.64
168.00 33.09
169.00 33.26
170.00 33.82
171.00 34.71
172.00 36.01
173.00 37.64
174.00 39.55
175.00 41.87
176.00 41.81
177.00 39.60
178.00 39.90
179.00 44.65
180.00 44.93
181.00 39.31
182.00 38.43
183.00 40.99
184.00 45.38
185.00 49.78
186.00 48.06
187.00 39.84
188.00 36.49
189.00 36.45
190.00 38.41
191.00 39.45
192.00 39.73
193.00 41.40
194.00 39.10
195.00 35.03
196.00 33.33
197.00 33.46
198.00 34.18
199.00 34.15
200.00 33.09
201.00 31.64
202.00 30.51
203.00 30.22
204.00 31.03
205.00 33.02
206.00 36.38
207.00 41.65
208.00 48.02
209.00 45.66
210.00 41.83
211.00 39.60
212.00 38.22
213.00 37.49
214.00 37.57
215.00 38.66
216.00 40.95
217.00 44.41
218.00 48.09
219.00 48.83
220.00 45.82
221.00 43.01
222.00 41.84
223.00 42.51
224.00 45.08
225.00 47.96
226.00 46.35
227.00 43.63
228.00 42.89
229.00 44.84
230.00 50.17
231.00 47.23
232.00 41.78
233.00 40.15
234.00 41.65
235.00 46.80
236.00 47.42
237.00 41.90
238.00 39.91
239.00 40.53
240.00 44.07
241.00 53.14
242.00 46.49
243.00 39.67
244.00 36.62
245.00 35.35
246.00 35.11
247.00 35.22
248.00 35.07
249.00 34.39
250.00 33.51
251.00 32.94
252.00 32.93
253.00 33.45
254.00 34.17
255.00 34.66
256.00 34.81
257.00 35.09
258.00 36.41
259.00 40.12
260.00 52.30
261.00 48.01
262.00 40.48
263.00 37.38
264.00 35.34
265.00 34.17
266.00 34.21
267.00 35.63
268.00 38.04
269.00 39.62
270.00 38.46
271.00 36.33
272.00 34.82
273.00 34.35
274.00 35.10
275.00 37.41
276.00 42.73
277.00 57.39
278.00 42.64
279.00 36.83
280.00 34.02
281.00 32.57
282.00 31.73
283.00 30.82
284.00 29.57
285.00 28.35
286.00 27.55
287.00 27.34
288.00 27.67
289.00 28.46
290.00 29.50
291.00 30.63
292.00 31.90
293.00 33.65
294.00 35.97
295.00 36.92
296.00 33.78
297.00 29.79
298.00 26.75
299.00 24.68
300.00 23.36
301.00 22.56
302.00 22.09
303.00 21.80
304.00 21.64
305.00 21.73
306.00 22.40
307.00 24.14
308.00 27.61
309.00 32.50
310.00 30.48
311.00 25.82
312.00 23.06
313.00 21.56
314.00 21.05
315.00 21.65
316.00 23.99
317.00 30.37
318.00 41.03
319.00 25.96
320.00 21.32
321.00 19.13
322.00 18.27
323.00 18.42
324.00 19.55
325.00 21.53
326.00 22.37
327.00 20.22
328.00 17.32
329.00 15.08
330.00 13.64
331.00 13.00
332.00 13.07
333.00 13.84
334.00 15.35
335.00 17.82
336.00 21.51
337.00 26.58
338.00 29.02
339.00 26.06
340.00 23.60
341.00 21.52
342.00 19.75
343.00 18.81
344.00 19.14
345.00 21.25
346.00 26.56
347.00 36.01
348.00 26.26
349.00 21.72
350.00 20.16
351.00 20.69
352.00 23.94
353.00 32.51
354.00 26.76
355.00 20.46
356.00 18.30
357.00 18.63
358.00 21.35
359.00 26.81
