NAME ATR4518R7_0847_X_CO_M45_05T
FREQUENCY 0847
GAIN 14.71 dBd
TILT	ELECTRICAL
COMMENT DATE 05.08.2013 -45 degrees polarized system Lever position 05T deg
HORIZONTAL 360
0.00 0.00
1.00 0.00
2.00 0.00
3.00 0.01
4.00 0.03
5.00 0.05
6.00 0.08
7.00 0.11
8.00 0.15
9.00 0.20
10.00 0.25
11.00 0.31
12.00 0.38
13.00 0.45
14.00 0.52
15.00 0.61
16.00 0.70
17.00 0.79
18.00 0.89
19.00 1.00
20.00 1.12
21.00 1.24
22.00 1.36
23.00 1.50
24.00 1.64
25.00 1.78
26.00 1.93
27.00 2.09
28.00 2.26
29.00 2.43
30.00 2.61
31.00 2.79
32.00 2.98
33.00 3.17
34.00 3.38
35.00 3.58
36.00 3.80
37.00 4.02
38.00 4.24
39.00 4.48
40.00 4.71
41.00 4.96
42.00 5.21
43.00 5.47
44.00 5.73
45.00 5.99
46.00 6.27
47.00 6.55
48.00 6.83
49.00 7.12
50.00 7.42
51.00 7.72
52.00 8.03
53.00 8.34
54.00 8.66
55.00 8.98
56.00 9.30
57.00 9.64
58.00 9.97
59.00 10.31
60.00 10.66
61.00 11.01
62.00 11.36
63.00 11.73
64.00 12.09
65.00 12.45
66.00 12.83
67.00 13.21
68.00 13.59
69.00 13.97
70.00 14.37
71.00 14.76
72.00 15.16
73.00 15.56
74.00 15.97
75.00 16.39
76.00 16.81
77.00 17.23
78.00 17.66
79.00 18.10
80.00 18.54
81.00 18.99
82.00 19.45
83.00 19.91
84.00 20.38
85.00 20.85
86.00 21.33
87.00 21.82
88.00 22.32
89.00 22.83
90.00 23.34
91.00 23.85
92.00 24.38
93.00 24.91
94.00 25.44
95.00 25.98
96.00 26.52
97.00 27.06
98.00 27.59
99.00 28.13
100.00 28.65
101.00 29.17
102.00 29.68
103.00 30.17
104.00 30.64
105.00 31.10
106.00 31.53
107.00 31.94
108.00 32.32
109.00 32.68
110.00 33.02
111.00 33.34
112.00 33.64
113.00 33.92
114.00 34.20
115.00 34.46
116.00 34.72
117.00 34.98
118.00 35.24
119.00 35.51
120.00 35.78
121.00 36.06
122.00 36.35
123.00 36.65
124.00 36.96
125.00 37.28
126.00 37.60
127.00 37.93
128.00 38.26
129.00 38.57
130.00 38.88
131.00 39.17
132.00 39.43
133.00 39.67
134.00 39.86
135.00 40.00
136.00 40.10
137.00 40.16
138.00 40.16
139.00 40.13
140.00 40.06
141.00 39.98
142.00 39.87
143.00 39.76
144.00 39.64
145.00 39.53
146.00 39.43
147.00 39.35
148.00 39.28
149.00 39.23
150.00 39.21
151.00 39.22
152.00 39.25
153.00 39.31
154.00 39.41
155.00 39.53
156.00 39.69
157.00 39.88
158.00 40.10
159.00 40.37
160.00 40.66
161.00 40.99
162.00 41.33
163.00 41.72
164.00 42.10
165.00 42.50
166.00 42.90
167.00 43.26
168.00 43.60
169.00 43.85
170.00 44.02
171.00 44.08
172.00 44.02
173.00 43.86
174.00 43.58
175.00 43.23
176.00 42.82
177.00 42.39
178.00 41.94
179.00 41.49
180.00 41.05
181.00 40.64
182.00 40.25
183.00 39.90
184.00 39.57
185.00 39.28
186.00 39.03
187.00 38.80
188.00 38.61
189.00 38.46
190.00 38.34
191.00 38.26
192.00 38.21
193.00 38.20
194.00 38.22
195.00 38.28
196.00 38.37
197.00 38.51
198.00 38.68
199.00 38.89
200.00 39.14
201.00 39.43
202.00 39.77
203.00 40.15
204.00 40.57
205.00 41.04
206.00 41.56
207.00 42.11
208.00 42.71
209.00 43.33
210.00 43.93
211.00 44.51
212.00 45.00
213.00 45.36
214.00 45.53
215.00 45.43
216.00 45.12
217.00 44.63
218.00 43.99
219.00 43.29
220.00 42.57
221.00 41.83
222.00 41.13
223.00 40.46
224.00 39.81
225.00 39.21
226.00 38.63
227.00 38.09
228.00 37.58
229.00 37.11
230.00 36.65
231.00 36.23
232.00 35.80
233.00 35.41
234.00 35.02
235.00 34.64
236.00 34.26
237.00 33.89
238.00 33.52
239.00 33.14
240.00 32.75
241.00 32.36
242.00 31.96
243.00 31.55
244.00 31.13
245.00 30.70
246.00 30.26
247.00 29.82
248.00 29.36
249.00 28.90
250.00 28.43
251.00 27.96
252.00 27.49
253.00 27.01
254.00 26.54
255.00 26.06
256.00 25.59
257.00 25.12
258.00 24.66
259.00 24.20
260.00 23.75
261.00 23.30
262.00 22.86
263.00 22.43
264.00 22.00
265.00 21.58
266.00 21.16
267.00 20.76
268.00 20.36
269.00 19.96
270.00 19.58
271.00 19.20
272.00 18.82
273.00 18.46
274.00 18.09
275.00 17.74
276.00 17.39
277.00 17.04
278.00 16.70
279.00 16.36
280.00 16.03
281.00 15.70
282.00 15.38
283.00 15.06
284.00 14.74
285.00 14.43
286.00 14.12
287.00 13.81
288.00 13.50
289.00 13.20
290.00 12.89
291.00 12.60
292.00 12.30
293.00 12.00
294.00 11.71
295.00 11.41
296.00 11.12
297.00 10.83
298.00 10.55
299.00 10.26
300.00 9.97
301.00 9.69
302.00 9.41
303.00 9.13
304.00 8.86
305.00 8.58
306.00 8.31
307.00 8.04
308.00 7.77
309.00 7.51
310.00 7.25
311.00 6.98
312.00 6.73
313.00 6.48
314.00 6.23
315.00 5.98
316.00 5.74
317.00 5.50
318.00 5.27
319.00 5.04
320.00 4.81
321.00 4.59
322.00 4.37
323.00 4.16
324.00 3.95
325.00 3.74
326.00 3.55
327.00 3.35
328.00 3.16
329.00 2.98
330.00 2.80
331.00 2.62
332.00 2.45
333.00 2.29
334.00 2.13
335.00 1.98
336.00 1.83
337.00 1.69
338.00 1.55
339.00 1.42
340.00 1.29
341.00 1.17
342.00 1.06
343.00 0.95
344.00 0.85
345.00 0.75
346.00 0.66
347.00 0.58
348.00 0.50
349.00 0.42
350.00 0.35
351.00 0.29
352.00 0.24
353.00 0.19
354.00 0.14
355.00 0.10
356.00 0.07
357.00 0.04
358.00 0.02
359.00 0.01
VERTICAL 360
0.00 4.50
1.00 2.76
2.00 1.49
3.00 0.63
4.00 0.14
5.00 0.00
6.00 0.20
7.00 0.74
8.00 1.65
9.00 2.96
10.00 4.74
11.00 7.09
12.00 10.22
13.00 14.53
14.00 21.15
15.00 33.65
16.00 26.82
17.00 23.23
18.00 22.98
19.00 25.16
20.00 31.26
21.00 43.17
22.00 27.58
23.00 22.78
24.00 20.38
25.00 19.23
26.00 18.97
27.00 19.45
28.00 20.66
29.00 22.74
30.00 26.03
31.00 31.52
32.00 44.53
33.00 40.64
34.00 35.12
35.00 34.66
36.00 37.61
37.00 41.76
38.00 33.84
39.00 28.08
40.00 24.38
41.00 21.84
42.00 20.06
43.00 18.86
44.00 18.12
45.00 17.77
46.00 17.73
47.00 17.96
48.00 18.42
49.00 19.15
50.00 20.21
51.00 21.71
52.00 23.80
53.00 26.63
54.00 30.45
55.00 35.69
56.00 44.15
57.00 46.27
58.00 37.26
59.00 32.68
60.00 30.02
61.00 28.58
62.00 28.05
63.00 28.36
64.00 29.69
65.00 32.17
66.00 34.83
67.00 34.60
68.00 33.11
69.00 32.81
70.00 33.95
71.00 36.27
72.00 38.22
73.00 36.53
74.00 33.57
75.00 31.64
76.00 30.85
77.00 30.82
78.00 30.80
79.00 29.97
80.00 28.42
81.00 27.00
82.00 26.25
83.00 26.33
84.00 27.05
85.00 27.88
86.00 28.16
87.00 27.72
88.00 26.94
89.00 26.34
90.00 26.33
91.00 27.11
92.00 28.58
93.00 30.08
94.00 30.64
95.00 30.04
96.00 28.99
97.00 28.16
98.00 27.95
99.00 28.48
100.00 29.64
101.00 31.11
102.00 32.37
103.00 32.99
104.00 33.11
105.00 33.38
106.00 34.23
107.00 35.72
108.00 37.78
109.00 40.38
110.00 41.91
111.00 40.04
112.00 37.62
113.00 36.03
114.00 34.99
115.00 34.40
116.00 34.58
117.00 35.82
118.00 37.92
119.00 38.79
120.00 36.80
121.00 34.49
122.00 33.09
123.00 32.69
124.00 33.12
125.00 33.98
126.00 34.40
127.00 33.79
128.00 32.67
129.00 31.81
130.00 31.60
131.00 32.17
132.00 33.40
133.00 34.98
134.00 36.34
135.00 37.07
136.00 37.36
137.00 37.81
138.00 38.84
139.00 40.33
140.00 41.52
141.00 41.54
142.00 40.14
143.00 38.14
144.00 36.66
145.00 36.18
146.00 36.82
147.00 38.33
148.00 40.35
149.00 41.95
150.00 41.72
151.00 40.31
152.00 39.24
153.00 38.75
154.00 38.40
155.00 37.93
156.00 37.54
157.00 37.28
158.00 37.15
159.00 37.38
160.00 38.41
161.00 40.41
162.00 42.48
163.00 42.83
164.00 42.45
165.00 42.76
166.00 42.99
167.00 41.78
168.00 40.18
169.00 39.38
170.00 39.52
171.00 40.11
172.00 40.41
173.00 40.28
174.00 40.22
175.00 40.64
176.00 41.29
177.00 41.47
178.00 40.51
179.00 39.27
180.00 38.75
181.00 39.31
182.00 40.77
183.00 42.42
184.00 43.11
185.00 42.93
186.00 42.50
187.00 42.32
188.00 42.56
189.00 42.91
190.00 42.73
191.00 42.13
192.00 41.79
193.00 42.00
194.00 42.70
195.00 43.77
196.00 45.02
197.00 46.12
198.00 47.10
199.00 48.50
200.00 51.06
201.00 55.89
202.00 70.77
203.00 59.03
204.00 52.56
205.00 49.75
206.00 47.77
207.00 45.18
208.00 42.43
209.00 40.45
210.00 39.48
211.00 39.48
212.00 40.46
213.00 42.55
214.00 45.98
215.00 49.00
216.00 47.07
217.00 44.70
218.00 43.70
219.00 43.28
220.00 42.69
221.00 42.17
222.00 42.31
223.00 43.31
224.00 45.37
225.00 48.15
226.00 45.25
227.00 40.09
228.00 36.98
229.00 35.70
230.00 35.82
231.00 36.74
232.00 37.52
233.00 37.39
234.00 36.41
235.00 35.12
236.00 34.28
237.00 34.44
238.00 35.77
239.00 37.72
240.00 38.81
241.00 38.97
242.00 39.69
243.00 41.60
244.00 44.76
245.00 49.01
246.00 47.80
247.00 43.23
248.00 40.84
249.00 40.31
250.00 41.00
251.00 42.09
252.00 42.60
253.00 41.90
254.00 40.54
255.00 39.60
256.00 39.58
257.00 40.34
258.00 41.27
259.00 41.72
260.00 41.63
261.00 41.33
262.00 41.19
263.00 41.33
264.00 41.45
265.00 41.02
266.00 40.11
267.00 39.27
268.00 39.04
269.00 39.52
270.00 39.97
271.00 39.45
272.00 39.04
273.00 39.97
274.00 40.79
275.00 38.04
276.00 35.00
277.00 33.36
278.00 32.72
279.00 32.44
280.00 32.39
281.00 32.83
282.00 33.76
283.00 34.47
284.00 34.30
285.00 33.75
286.00 33.47
287.00 33.78
288.00 35.13
289.00 38.36
290.00 45.62
291.00 50.92
292.00 43.57
293.00 42.06
294.00 43.57
295.00 47.39
296.00 44.16
297.00 37.77
298.00 33.89
299.00 31.89
300.00 31.38
301.00 32.14
302.00 34.06
303.00 37.09
304.00 41.26
305.00 45.44
306.00 42.71
307.00 36.82
308.00 31.98
309.00 28.25
310.00 25.39
311.00 23.21
312.00 21.54
313.00 20.24
314.00 19.26
315.00 18.58
316.00 18.20
317.00 18.14
318.00 18.39
319.00 18.96
320.00 19.82
321.00 21.00
322.00 22.60
323.00 24.80
324.00 27.84
325.00 31.49
326.00 33.17
327.00 31.91
328.00 31.05
329.00 31.60
330.00 33.47
331.00 35.80
332.00 36.19
333.00 34.70
334.00 33.41
335.00 32.71
336.00 32.37
337.00 32.34
338.00 32.73
339.00 32.58
340.00 29.97
341.00 26.31
342.00 23.31
343.00 21.28
344.00 20.15
345.00 19.92
346.00 20.65
347.00 22.61
348.00 26.42
349.00 32.31
350.00 29.63
351.00 25.23
352.00 23.55
353.00 24.36
354.00 29.69
355.00 33.17
356.00 20.07
357.00 13.94
358.00 9.84
359.00 6.80
