NAME ATR4518R7_2535_X_CO_P45_07T_yL
FREQUENCY 2535
GAIN 15.75 dBd
TILT	ELECTRICAL
COMMENT DATE 05.08.2013 +45 degrees polarized system Lever position 07T deg
HORIZONTAL 360
0.00 0.13
1.00 0.09
2.00 0.05
3.00 0.02
4.00 0.00
5.00 0.00
6.00 0.01
7.00 0.05
8.00 0.09
9.00 0.14
10.00 0.21
11.00 0.28
12.00 0.38
13.00 0.48
14.00 0.59
15.00 0.70
16.00 0.84
17.00 0.98
18.00 1.12
19.00 1.27
20.00 1.42
21.00 1.58
22.00 1.74
23.00 1.90
24.00 2.07
25.00 2.23
26.00 2.40
27.00 2.58
28.00 2.76
29.00 2.94
30.00 3.12
31.00 3.31
32.00 3.51
33.00 3.70
34.00 3.91
35.00 4.11
36.00 4.33
37.00 4.55
38.00 4.78
39.00 5.00
40.00 5.23
41.00 5.47
42.00 5.72
43.00 5.96
44.00 6.21
45.00 6.46
46.00 6.72
47.00 6.98
48.00 7.24
49.00 7.50
50.00 7.77
51.00 8.03
52.00 8.30
53.00 8.56
54.00 8.82
55.00 9.08
56.00 9.34
57.00 9.60
58.00 9.85
59.00 10.10
60.00 10.37
61.00 10.61
62.00 10.86
63.00 11.11
64.00 11.36
65.00 11.65
66.00 11.93
67.00 12.20
68.00 12.48
69.00 12.77
70.00 13.05
71.00 13.34
72.00 13.62
73.00 13.90
74.00 14.18
75.00 14.45
76.00 14.71
77.00 14.98
78.00 15.24
79.00 15.48
80.00 15.72
81.00 15.96
82.00 16.19
83.00 16.41
84.00 16.63
85.00 16.85
86.00 17.07
87.00 17.30
88.00 17.53
89.00 17.77
90.00 18.02
91.00 18.29
92.00 18.57
93.00 18.87
94.00 19.18
95.00 19.52
96.00 19.87
97.00 20.23
98.00 20.62
99.00 21.00
100.00 21.39
101.00 21.78
102.00 22.17
103.00 22.53
104.00 22.89
105.00 23.23
106.00 23.55
107.00 23.86
108.00 24.16
109.00 24.45
110.00 24.75
111.00 25.06
112.00 25.39
113.00 25.74
114.00 26.11
115.00 26.54
116.00 26.98
117.00 27.48
118.00 28.02
119.00 28.59
120.00 29.20
121.00 29.82
122.00 30.45
123.00 31.04
124.00 31.59
125.00 32.04
126.00 32.38
127.00 32.58
128.00 32.62
129.00 32.53
130.00 32.34
131.00 32.09
132.00 31.81
133.00 31.53
134.00 31.27
135.00 31.04
136.00 30.87
137.00 30.75
138.00 30.68
139.00 30.68
140.00 30.75
141.00 30.88
142.00 31.08
143.00 31.35
144.00 31.69
145.00 32.10
146.00 32.57
147.00 33.12
148.00 33.74
149.00 34.42
150.00 35.17
151.00 35.96
152.00 36.79
153.00 37.64
154.00 38.45
155.00 39.19
156.00 39.82
157.00 40.30
158.00 40.65
159.00 40.89
160.00 41.07
161.00 41.26
162.00 41.52
163.00 41.87
164.00 42.34
165.00 42.94
166.00 43.59
167.00 44.17
168.00 44.45
169.00 44.22
170.00 43.45
171.00 42.33
172.00 41.13
173.00 40.00
174.00 39.01
175.00 38.20
176.00 37.58
177.00 37.16
178.00 36.94
179.00 36.91
180.00 37.11
181.00 37.53
182.00 38.22
183.00 39.21
184.00 40.59
185.00 42.47
186.00 45.12
187.00 49.11
188.00 55.99
189.00 58.09
190.00 50.88
191.00 46.97
192.00 44.63
193.00 43.18
194.00 42.31
195.00 41.88
196.00 41.76
197.00 41.78
198.00 41.71
199.00 41.23
200.00 40.18
201.00 38.70
202.00 37.04
203.00 35.42
204.00 33.93
205.00 32.63
206.00 31.51
207.00 30.57
208.00 29.80
209.00 29.19
210.00 28.75
211.00 28.45
212.00 28.31
213.00 28.32
214.00 28.48
215.00 28.80
216.00 29.29
217.00 29.96
218.00 30.83
219.00 31.90
220.00 33.17
221.00 34.61
222.00 36.03
223.00 37.06
224.00 37.22
225.00 36.49
226.00 35.31
227.00 34.09
228.00 33.03
229.00 32.17
230.00 31.52
231.00 31.06
232.00 30.79
233.00 30.68
234.00 30.74
235.00 30.94
236.00 31.28
237.00 31.74
238.00 32.29
239.00 32.90
240.00 33.51
241.00 34.03
242.00 34.36
243.00 34.43
244.00 34.22
245.00 33.79
246.00 33.24
247.00 32.65
248.00 32.06
249.00 31.53
250.00 31.07
251.00 30.64
252.00 30.28
253.00 29.93
254.00 29.57
255.00 29.19
256.00 28.76
257.00 28.26
258.00 27.68
259.00 27.03
260.00 26.35
261.00 25.63
262.00 24.92
263.00 24.22
264.00 23.55
265.00 22.93
266.00 22.35
267.00 21.83
268.00 21.38
269.00 20.97
270.00 20.63
271.00 20.34
272.00 20.10
273.00 19.90
274.00 19.73
275.00 19.60
276.00 19.50
277.00 19.40
278.00 19.31
279.00 19.20
280.00 19.08
281.00 18.93
282.00 18.76
283.00 18.55
284.00 18.31
285.00 18.05
286.00 17.77
287.00 17.47
288.00 17.17
289.00 16.85
290.00 16.55
291.00 16.25
292.00 15.96
293.00 15.66
294.00 15.38
295.00 15.11
296.00 14.84
297.00 14.57
298.00 14.30
299.00 14.02
300.00 13.74
301.00 13.45
302.00 13.19
303.00 12.90
304.00 12.62
305.00 12.33
306.00 12.03
307.00 11.73
308.00 11.42
309.00 11.11
310.00 10.79
311.00 10.46
312.00 10.14
313.00 9.80
314.00 9.47
315.00 9.12
316.00 8.78
317.00 8.43
318.00 8.07
319.00 7.73
320.00 7.37
321.00 7.02
322.00 6.68
323.00 6.33
324.00 6.00
325.00 5.67
326.00 5.36
327.00 5.05
328.00 4.75
329.00 4.47
330.00 4.19
331.00 3.94
332.00 3.69
333.00 3.46
334.00 3.23
335.00 3.02
336.00 2.81
337.00 2.63
338.00 2.45
339.00 2.27
340.00 2.11
341.00 1.94
342.00 1.80
343.00 1.66
344.00 1.53
345.00 1.40
346.00 1.28
347.00 1.17
348.00 1.06
349.00 0.97
350.00 0.87
351.00 0.78
352.00 0.69
353.00 0.61
354.00 0.53
355.00 0.46
356.00 0.38
357.00 0.31
358.00 0.25
359.00 0.19
VERTICAL 360
0.00 23.86
1.00 19.93
2.00 13.71
3.00 8.50
4.00 4.61
5.00 1.95
6.00 0.42
7.00 0.00
8.00 0.79
9.00 3.09
10.00 7.80
11.00 19.76
12.00 16.91
13.00 11.08
14.00 10.57
15.00 13.18
16.00 18.93
17.00 18.48
18.00 14.56
19.00 13.87
20.00 16.17
21.00 23.15
22.00 28.75
23.00 20.29
24.00 18.95
25.00 21.98
26.00 35.78
27.00 25.55
28.00 20.24
29.00 19.22
30.00 20.77
31.00 25.67
32.00 29.81
33.00 21.13
34.00 17.00
35.00 15.50
36.00 15.89
37.00 17.90
38.00 21.29
39.00 25.80
40.00 32.23
41.00 33.26
42.00 27.54
43.00 25.54
44.00 26.10
45.00 27.76
46.00 27.47
47.00 25.85
48.00 25.67
49.00 28.11
50.00 35.69
51.00 40.29
52.00 32.19
53.00 30.83
54.00 31.34
55.00 30.83
56.00 28.45
57.00 26.08
58.00 24.99
59.00 25.45
60.00 27.19
61.00 29.57
62.00 31.86
63.00 34.00
64.00 36.06
65.00 36.65
66.00 36.09
67.00 36.61
68.00 38.11
69.00 38.54
70.00 37.05
71.00 35.60
72.00 35.87
73.00 37.55
74.00 38.37
75.00 38.25
76.00 37.70
77.00 37.21
78.00 38.30
79.00 38.79
80.00 37.56
81.00 38.33
82.00 41.04
83.00 43.34
84.00 44.83
85.00 43.24
86.00 43.88
87.00 53.35
88.00 50.95
89.00 44.63
90.00 38.24
91.00 34.52
92.00 34.43
93.00 37.64
94.00 40.69
95.00 40.73
96.00 44.09
97.00 54.06
98.00 60.55
99.00 46.43
100.00 40.90
101.00 39.30
102.00 39.66
103.00 39.86
104.00 39.51
105.00 38.88
106.00 37.29
107.00 35.73
108.00 35.19
109.00 35.47
110.00 35.73
111.00 35.03
112.00 33.24
113.00 31.66
114.00 31.09
115.00 31.40
116.00 31.87
117.00 31.72
118.00 30.97
119.00 30.17
120.00 29.69
121.00 29.89
122.00 31.22
123.00 34.08
124.00 38.78
125.00 47.13
126.00 52.25
127.00 41.65
128.00 38.05
129.00 36.17
130.00 34.51
131.00 33.38
132.00 33.24
133.00 33.69
134.00 34.22
135.00 35.21
136.00 36.99
137.00 38.40
138.00 37.28
139.00 34.89
140.00 33.57
141.00 33.92
142.00 35.57
143.00 37.42
144.00 38.44
145.00 39.24
146.00 41.15
147.00 41.21
148.00 38.05
149.00 36.56
150.00 36.69
151.00 37.25
152.00 37.66
153.00 37.41
154.00 36.32
155.00 35.04
156.00 33.98
157.00 34.05
158.00 36.21
159.00 40.49
160.00 42.67
161.00 43.31
162.00 46.15
163.00 43.45
164.00 39.53
165.00 37.71
166.00 37.05
167.00 37.18
168.00 38.52
169.00 42.18
170.00 49.36
171.00 45.90
172.00 41.80
173.00 41.45
174.00 44.52
175.00 49.57
176.00 44.54
177.00 39.92
178.00 37.06
179.00 35.19
180.00 34.41
181.00 34.95
182.00 36.08
183.00 36.02
184.00 35.63
185.00 36.26
186.00 37.97
187.00 41.68
188.00 52.43
189.00 53.58
190.00 54.28
191.00 51.27
192.00 41.85
193.00 39.81
194.00 41.47
195.00 45.99
196.00 48.67
197.00 43.82
198.00 40.99
199.00 40.62
200.00 41.65
201.00 43.10
202.00 45.49
203.00 55.15
204.00 47.13
205.00 39.04
206.00 36.36
207.00 36.54
208.00 38.74
209.00 42.97
210.00 47.44
211.00 41.12
212.00 37.57
213.00 36.88
214.00 37.85
215.00 39.80
216.00 42.57
217.00 46.45
218.00 55.27
219.00 44.79
220.00 37.81
221.00 34.42
222.00 32.81
223.00 32.15
224.00 31.97
225.00 32.33
226.00 33.55
227.00 35.79
228.00 38.63
229.00 41.02
230.00 41.68
231.00 40.13
232.00 37.90
233.00 36.37
234.00 35.74
235.00 35.84
236.00 36.43
237.00 37.45
238.00 39.08
239.00 41.69
240.00 44.05
241.00 43.47
242.00 42.60
243.00 42.85
244.00 43.49
245.00 44.01
246.00 44.21
247.00 42.65
248.00 39.61
249.00 37.52
250.00 37.07
251.00 38.14
252.00 40.49
253.00 43.67
254.00 44.69
255.00 43.41
256.00 42.52
257.00 41.22
258.00 40.11
259.00 40.58
260.00 42.58
261.00 42.84
262.00 39.91
263.00 37.32
264.00 35.61
265.00 34.52
266.00 34.00
267.00 34.41
268.00 36.26
269.00 39.88
270.00 43.05
271.00 40.39
272.00 36.21
273.00 33.27
274.00 31.93
275.00 31.89
276.00 32.75
277.00 34.43
278.00 36.90
279.00 39.18
280.00 39.27
281.00 37.35
282.00 35.40
283.00 34.17
284.00 33.40
285.00 32.77
286.00 32.40
287.00 32.99
288.00 35.60
289.00 41.81
290.00 46.46
291.00 40.98
292.00 36.94
293.00 32.92
294.00 29.38
295.00 26.22
296.00 23.32
297.00 20.62
298.00 18.16
299.00 15.98
300.00 14.18
301.00 12.78
302.00 11.76
303.00 11.03
304.00 10.56
305.00 10.38
306.00 10.57
307.00 11.25
308.00 12.61
309.00 14.93
310.00 18.77
311.00 24.21
312.00 22.80
313.00 18.72
314.00 16.85
315.00 16.78
316.00 18.54
317.00 23.42
318.00 40.87
319.00 23.09
320.00 18.15
321.00 16.62
322.00 17.37
323.00 20.80
324.00 31.17
325.00 28.56
326.00 21.42
327.00 19.84
328.00 21.45
329.00 27.77
330.00 30.80
331.00 21.36
332.00 17.68
333.00 16.57
334.00 17.72
335.00 22.40
336.00 36.65
337.00 22.31
338.00 18.64
339.00 19.14
340.00 24.21
341.00 41.54
342.00 22.95
343.00 19.62
344.00 20.24
345.00 25.13
346.00 30.99
347.00 22.43
348.00 19.60
349.00 20.13
350.00 24.11
351.00 34.69
352.00 29.15
353.00 25.79
354.00 27.35
355.00 29.18
356.00 24.30
357.00 21.21
358.00 20.70
359.00 22.23
