NAME ATR4518R7_2140_X_CO_P45_10T_yL
FREQUENCY 2140
GAIN 15.00 dBd
TILT	ELECTRICAL
COMMENT DATE 05.08.2013 +45 degrees polarized system Lever position 10T deg
HORIZONTAL 360
0.00 0.01
1.00 0.00
2.00 0.00
3.00 0.00
4.00 0.01
5.00 0.02
6.00 0.05
7.00 0.08
8.00 0.11
9.00 0.16
10.00 0.21
11.00 0.27
12.00 0.33
13.00 0.40
14.00 0.48
15.00 0.57
16.00 0.66
17.00 0.75
18.00 0.85
19.00 0.95
20.00 1.06
21.00 1.17
22.00 1.28
23.00 1.40
24.00 1.53
25.00 1.66
26.00 1.79
27.00 1.94
28.00 2.08
29.00 2.24
30.00 2.41
31.00 2.58
32.00 2.76
33.00 2.95
34.00 3.15
35.00 3.37
36.00 3.59
37.00 3.82
38.00 4.07
39.00 4.32
40.00 4.59
41.00 4.86
42.00 5.14
43.00 5.43
44.00 5.72
45.00 6.02
46.00 6.33
47.00 6.63
48.00 6.94
49.00 7.26
50.00 7.56
51.00 7.87
52.00 8.18
53.00 8.48
54.00 8.78
55.00 9.08
56.00 9.37
57.00 9.65
58.00 9.93
59.00 10.20
60.00 10.47
61.00 10.74
62.00 11.00
63.00 11.26
64.00 11.52
65.00 11.78
66.00 12.04
67.00 12.30
68.00 12.56
69.00 12.83
70.00 13.11
71.00 13.39
72.00 13.67
73.00 13.96
74.00 14.26
75.00 14.56
76.00 14.87
77.00 15.19
78.00 15.51
79.00 15.83
80.00 16.16
81.00 16.48
82.00 16.81
83.00 17.14
84.00 17.46
85.00 17.78
86.00 18.10
87.00 18.42
88.00 18.73
89.00 19.04
90.00 19.35
91.00 19.66
92.00 19.98
93.00 20.30
94.00 20.63
95.00 20.97
96.00 21.33
97.00 21.70
98.00 22.10
99.00 22.52
100.00 22.95
101.00 23.42
102.00 23.91
103.00 24.42
104.00 24.95
105.00 25.50
106.00 26.05
107.00 26.60
108.00 27.13
109.00 27.63
110.00 28.08
111.00 28.46
112.00 28.75
113.00 28.97
114.00 29.10
115.00 29.16
116.00 29.16
117.00 29.12
118.00 29.07
119.00 29.01
120.00 28.97
121.00 28.96
122.00 28.98
123.00 29.04
124.00 29.16
125.00 29.32
126.00 29.55
127.00 29.82
128.00 30.16
129.00 30.55
130.00 30.99
131.00 31.48
132.00 32.01
133.00 32.57
134.00 33.13
135.00 33.68
136.00 34.18
137.00 34.60
138.00 34.94
139.00 35.17
140.00 35.32
141.00 35.40
142.00 35.44
143.00 35.48
144.00 35.55
145.00 35.67
146.00 35.87
147.00 36.17
148.00 36.57
149.00 37.08
150.00 37.73
151.00 38.52
152.00 39.44
153.00 40.47
154.00 41.54
155.00 42.53
156.00 43.23
157.00 43.44
158.00 43.14
159.00 42.50
160.00 41.74
161.00 41.02
162.00 40.42
163.00 39.98
164.00 39.71
165.00 39.62
166.00 39.72
167.00 40.01
168.00 40.49
169.00 41.19
170.00 42.10
171.00 43.24
172.00 44.55
173.00 45.89
174.00 46.91
175.00 47.14
176.00 46.48
177.00 45.33
178.00 44.12
179.00 43.06
180.00 42.22
181.00 41.62
182.00 41.24
183.00 41.09
184.00 41.14
185.00 41.38
186.00 41.79
187.00 42.29
188.00 42.76
189.00 42.99
190.00 42.77
191.00 42.02
192.00 40.89
193.00 39.60
194.00 38.33
195.00 37.14
196.00 36.09
197.00 35.18
198.00 34.41
199.00 33.78
200.00 33.28
201.00 32.90
202.00 32.64
203.00 32.50
204.00 32.48
205.00 32.57
206.00 32.78
207.00 33.12
208.00 33.59
209.00 34.21
210.00 34.99
211.00 35.94
212.00 37.12
213.00 38.55
214.00 40.32
215.00 42.49
216.00 45.10
217.00 47.72
218.00 48.50
219.00 46.65
220.00 44.21
221.00 42.12
222.00 40.45
223.00 39.13
224.00 38.08
225.00 37.24
226.00 36.55
227.00 36.00
228.00 35.55
229.00 35.18
230.00 34.86
231.00 34.58
232.00 34.33
233.00 34.09
234.00 33.83
235.00 33.56
236.00 33.27
237.00 32.95
238.00 32.60
239.00 32.22
240.00 31.82
241.00 31.41
242.00 30.98
243.00 30.55
244.00 30.12
245.00 29.70
246.00 29.29
247.00 28.88
248.00 28.48
249.00 28.09
250.00 27.71
251.00 27.34
252.00 26.96
253.00 26.59
254.00 26.21
255.00 25.83
256.00 25.44
257.00 25.05
258.00 24.64
259.00 24.23
260.00 23.81
261.00 23.38
262.00 22.96
263.00 22.54
264.00 22.12
265.00 21.71
266.00 21.31
267.00 20.92
268.00 20.54
269.00 20.18
270.00 19.83
271.00 19.49
272.00 19.17
273.00 18.86
274.00 18.56
275.00 18.26
276.00 17.98
277.00 17.70
278.00 17.42
279.00 17.15
280.00 16.87
281.00 16.60
282.00 16.32
283.00 16.03
284.00 15.74
285.00 15.44
286.00 15.14
287.00 14.83
288.00 14.52
289.00 14.20
290.00 13.88
291.00 13.56
292.00 13.23
293.00 12.91
294.00 12.58
295.00 12.26
296.00 11.94
297.00 11.63
298.00 11.32
299.00 11.01
300.00 10.71
301.00 10.42
302.00 10.12
303.00 9.84
304.00 9.56
305.00 9.28
306.00 9.01
307.00 8.74
308.00 8.47
309.00 8.21
310.00 7.95
311.00 7.69
312.00 7.43
313.00 7.18
314.00 6.93
315.00 6.68
316.00 6.43
317.00 6.18
318.00 5.94
319.00 5.69
320.00 5.45
321.00 5.21
322.00 4.97
323.00 4.73
324.00 4.50
325.00 4.26
326.00 4.03
327.00 3.80
328.00 3.58
329.00 3.36
330.00 3.14
331.00 2.93
332.00 2.72
333.00 2.52
334.00 2.33
335.00 2.14
336.00 1.96
337.00 1.79
338.00 1.63
339.00 1.48
340.00 1.33
341.00 1.20
342.00 1.07
343.00 0.96
344.00 0.85
345.00 0.75
346.00 0.66
347.00 0.58
348.00 0.50
349.00 0.43
350.00 0.37
351.00 0.31
352.00 0.26
353.00 0.21
354.00 0.17
355.00 0.13
356.00 0.10
357.00 0.07
358.00 0.04
359.00 0.02
VERTICAL 360
0.00 19.69
1.00 20.61
2.00 21.67
3.00 19.48
4.00 14.20
5.00 9.46
6.00 5.86
7.00 3.22
8.00 1.40
9.00 0.32
10.00 0.00
11.00 0.49
12.00 1.96
13.00 4.72
14.00 9.55
15.00 20.18
16.00 20.28
17.00 13.33
18.00 11.77
19.00 12.83
20.00 16.75
21.00 26.54
22.00 21.35
23.00 16.11
24.00 14.66
25.00 15.41
26.00 18.22
27.00 24.20
28.00 32.93
29.00 23.86
30.00 20.36
31.00 19.98
32.00 22.57
33.00 31.78
34.00 30.03
35.00 21.94
36.00 19.31
37.00 18.89
38.00 19.93
39.00 22.24
40.00 26.42
41.00 34.19
42.00 29.96
43.00 24.59
44.00 22.49
45.00 22.27
46.00 22.98
47.00 23.44
48.00 23.48
49.00 24.31
50.00 27.15
51.00 33.51
52.00 35.25
53.00 29.98
54.00 28.32
55.00 28.79
56.00 30.49
57.00 32.56
58.00 34.16
59.00 35.30
60.00 36.86
61.00 39.77
62.00 45.61
63.00 57.83
64.00 45.85
65.00 41.59
66.00 40.26
67.00 40.45
68.00 41.12
69.00 41.21
70.00 40.53
71.00 39.88
72.00 40.10
73.00 41.54
74.00 43.90
75.00 45.71
76.00 45.86
77.00 44.72
78.00 43.39
79.00 43.18
80.00 44.66
81.00 46.94
82.00 46.41
83.00 43.91
84.00 41.58
85.00 39.42
86.00 37.76
87.00 37.19
88.00 38.11
89.00 40.71
90.00 44.34
91.00 47.52
92.00 52.43
93.00 47.44
94.00 40.87
95.00 38.01
96.00 37.48
97.00 38.72
98.00 41.44
99.00 45.37
100.00 49.15
101.00 50.28
102.00 51.61
103.00 55.97
104.00 58.03
105.00 54.15
106.00 50.57
107.00 47.00
108.00 44.80
109.00 44.01
110.00 43.41
111.00 42.12
112.00 41.04
113.00 41.00
114.00 42.03
115.00 43.18
116.00 42.55
117.00 40.33
118.00 38.12
119.00 36.64
120.00 36.15
121.00 36.79
122.00 38.55
123.00 41.38
124.00 45.25
125.00 46.86
126.00 41.66
127.00 37.35
128.00 34.83
129.00 33.65
130.00 33.34
131.00 33.16
132.00 32.54
133.00 31.86
134.00 31.95
135.00 33.29
136.00 36.25
137.00 41.32
138.00 47.84
139.00 47.66
140.00 45.43
141.00 44.73
142.00 46.21
143.00 52.32
144.00 47.93
145.00 40.74
146.00 37.67
147.00 37.17
148.00 38.96
149.00 42.44
150.00 42.39
151.00 39.94
152.00 39.45
153.00 41.21
154.00 45.89
155.00 57.38
156.00 47.88
157.00 43.47
158.00 43.59
159.00 48.62
160.00 53.47
161.00 46.66
162.00 47.08
163.00 54.98
164.00 47.41
165.00 42.88
166.00 42.15
167.00 42.13
168.00 41.13
169.00 40.67
170.00 41.24
171.00 41.41
172.00 40.97
173.00 41.36
174.00 42.77
175.00 44.17
176.00 44.37
177.00 42.71
178.00 40.22
179.00 38.49
180.00 38.07
181.00 39.12
182.00 41.83
183.00 46.57
184.00 52.78
185.00 51.58
186.00 46.10
187.00 41.61
188.00 38.09
189.00 35.45
190.00 33.83
191.00 33.44
192.00 34.42
193.00 36.99
194.00 42.02
195.00 54.83
196.00 46.29
197.00 41.49
198.00 41.16
199.00 43.54
200.00 43.56
201.00 40.07
202.00 37.68
203.00 36.02
204.00 34.69
205.00 34.14
206.00 34.76
207.00 36.50
208.00 38.18
209.00 37.93
210.00 36.89
211.00 36.80
212.00 38.13
213.00 40.67
214.00 43.12
215.00 44.81
216.00 45.68
217.00 41.93
218.00 38.06
219.00 36.44
220.00 37.17
221.00 40.69
222.00 48.66
223.00 47.69
224.00 42.24
225.00 39.47
226.00 38.21
227.00 39.12
228.00 44.46
229.00 54.72
230.00 40.59
231.00 37.21
232.00 37.17
233.00 39.58
234.00 42.95
235.00 41.76
236.00 39.12
237.00 38.13
238.00 38.88
239.00 41.50
240.00 46.50
241.00 48.91
242.00 43.76
243.00 40.04
244.00 37.34
245.00 35.18
246.00 33.67
247.00 32.91
248.00 32.80
249.00 33.14
250.00 33.70
251.00 34.41
252.00 35.44
253.00 37.05
254.00 39.38
255.00 42.34
256.00 45.27
257.00 45.61
258.00 43.00
259.00 40.31
260.00 38.00
261.00 35.99
262.00 34.14
263.00 32.18
264.00 30.20
265.00 28.60
266.00 27.47
267.00 26.52
268.00 25.35
269.00 23.86
270.00 22.31
271.00 21.03
272.00 20.19
273.00 19.81
274.00 19.75
275.00 19.71
276.00 19.37
277.00 18.68
278.00 17.86
279.00 17.11
280.00 16.47
281.00 15.88
282.00 15.29
283.00 14.69
284.00 14.09
285.00 13.49
286.00 12.94
287.00 12.51
288.00 12.25
289.00 12.19
290.00 12.30
291.00 12.52
292.00 12.78
293.00 13.07
294.00 13.47
295.00 14.11
296.00 15.16
297.00 16.75
298.00 19.02
299.00 22.17
300.00 26.71
301.00 35.21
302.00 37.51
303.00 27.83
304.00 23.63
305.00 21.56
306.00 21.00
307.00 21.82
308.00 24.16
309.00 28.64
310.00 39.27
311.00 36.28
312.00 27.41
313.00 23.18
314.00 20.97
315.00 20.37
316.00 21.40
317.00 24.40
318.00 30.28
319.00 32.83
320.00 26.29
321.00 22.54
322.00 20.97
323.00 21.64
324.00 25.83
325.00 35.20
326.00 23.33
327.00 18.42
328.00 16.30
329.00 15.79
330.00 16.72
331.00 19.64
332.00 26.77
333.00 26.07
334.00 19.81
335.00 16.78
336.00 15.56
337.00 15.68
338.00 17.00
339.00 19.51
340.00 22.79
341.00 23.62
342.00 21.54
343.00 21.53
344.00 25.03
345.00 40.59
346.00 27.85
347.00 22.06
348.00 20.21
349.00 20.54
350.00 23.12
351.00 29.94
352.00 39.97
353.00 27.62
354.00 24.83
355.00 24.42
356.00 23.96
357.00 22.25
358.00 20.51
359.00 19.62
