NAME ATR4518R7_2655_X_CO_P45_09T_yyR
FREQUENCY 2655
GAIN 15.21 dBd
TILT	ELECTRICAL
COMMENT DATE 05.08.2013 +45 degrees polarized system Lever position 09T deg
HORIZONTAL 360
0.00 0.01
1.00 0.02
2.00 0.05
3.00 0.08
4.00 0.11
5.00 0.16
6.00 0.21
7.00 0.27
8.00 0.34
9.00 0.42
10.00 0.51
11.00 0.60
12.00 0.71
13.00 0.83
14.00 0.95
15.00 1.08
16.00 1.22
17.00 1.37
18.00 1.51
19.00 1.67
20.00 1.82
21.00 1.98
22.00 2.14
23.00 2.30
24.00 2.46
25.00 2.62
26.00 2.78
27.00 2.94
28.00 3.10
29.00 3.25
30.00 3.41
31.00 3.58
32.00 3.74
33.00 3.91
34.00 4.08
35.00 4.27
36.00 4.46
37.00 4.66
38.00 4.87
39.00 5.09
40.00 5.32
41.00 5.57
42.00 5.83
43.00 6.11
44.00 6.40
45.00 6.71
46.00 7.03
47.00 7.37
48.00 7.72
49.00 8.09
50.00 8.47
51.00 8.88
52.00 9.30
53.00 9.73
54.00 10.19
55.00 10.66
56.00 11.15
57.00 11.65
58.00 12.18
59.00 12.73
60.00 13.30
61.00 13.89
62.00 14.49
63.00 15.12
64.00 15.77
65.00 16.43
66.00 17.11
67.00 17.81
68.00 18.52
69.00 19.24
70.00 19.99
71.00 20.74
72.00 21.52
73.00 22.31
74.00 23.13
75.00 23.98
76.00 24.86
77.00 25.78
78.00 26.76
79.00 27.79
80.00 28.88
81.00 30.03
82.00 31.22
83.00 32.42
84.00 33.55
85.00 34.51
86.00 35.17
87.00 35.46
88.00 35.42
89.00 35.17
90.00 34.83
91.00 34.53
92.00 34.31
93.00 34.22
94.00 34.28
95.00 34.51
96.00 34.92
97.00 35.53
98.00 36.35
99.00 37.36
100.00 38.50
101.00 39.57
102.00 40.19
103.00 39.93
104.00 38.86
105.00 37.43
106.00 35.98
107.00 34.68
108.00 33.58
109.00 32.67
110.00 31.94
111.00 31.39
112.00 30.99
113.00 30.76
114.00 30.67
115.00 30.73
116.00 30.94
117.00 31.30
118.00 31.83
119.00 32.53
120.00 33.43
121.00 34.54
122.00 35.88
123.00 37.45
124.00 39.16
125.00 40.68
126.00 41.35
127.00 40.81
128.00 39.52
129.00 38.09
130.00 36.83
131.00 35.79
132.00 34.98
133.00 34.38
134.00 33.98
135.00 33.75
136.00 33.69
137.00 33.77
138.00 34.00
139.00 34.38
140.00 34.90
141.00 35.57
142.00 36.39
143.00 37.37
144.00 38.52
145.00 39.85
146.00 41.35
147.00 43.04
148.00 44.88
149.00 46.80
150.00 48.60
151.00 50.06
152.00 51.03
153.00 51.61
154.00 52.08
155.00 52.68
156.00 53.47
157.00 54.17
158.00 54.10
159.00 52.69
160.00 50.44
161.00 48.10
162.00 45.99
163.00 44.14
164.00 42.56
165.00 41.23
166.00 40.09
167.00 39.13
168.00 38.34
169.00 37.69
170.00 37.19
171.00 36.82
172.00 36.59
173.00 36.48
174.00 36.52
175.00 36.71
176.00 37.04
177.00 37.56
178.00 38.28
179.00 39.25
180.00 40.53
181.00 42.24
182.00 44.59
183.00 48.07
184.00 54.26
185.00 78.38
186.00 53.48
187.00 47.84
188.00 44.62
189.00 42.48
190.00 40.97
191.00 39.90
192.00 39.18
193.00 38.75
194.00 38.58
195.00 38.67
196.00 39.02
197.00 39.65
198.00 40.59
199.00 41.88
200.00 43.50
201.00 45.19
202.00 46.07
203.00 45.09
204.00 42.92
205.00 40.66
206.00 38.68
207.00 37.02
208.00 35.64
209.00 34.50
210.00 33.55
211.00 32.77
212.00 32.13
213.00 31.62
214.00 31.23
215.00 30.94
216.00 30.74
217.00 30.64
218.00 30.61
219.00 30.66
220.00 30.79
221.00 30.98
222.00 31.24
223.00 31.56
224.00 31.94
225.00 32.38
226.00 32.86
227.00 33.38
228.00 33.93
229.00 34.49
230.00 35.02
231.00 35.48
232.00 35.83
233.00 36.02
234.00 36.02
235.00 35.82
236.00 35.47
237.00 35.00
238.00 34.45
239.00 33.89
240.00 33.33
241.00 32.81
242.00 32.33
243.00 31.90
244.00 31.53
245.00 31.21
246.00 30.95
247.00 30.75
248.00 30.60
249.00 30.50
250.00 30.45
251.00 30.44
252.00 30.47
253.00 30.54
254.00 30.63
255.00 30.74
256.00 30.84
257.00 30.94
258.00 31.01
259.00 31.03
260.00 31.00
261.00 30.88
262.00 30.68
263.00 30.39
264.00 30.02
265.00 29.56
266.00 29.05
267.00 28.48
268.00 27.88
269.00 27.26
270.00 26.63
271.00 26.00
272.00 25.38
273.00 24.76
274.00 24.16
275.00 23.57
276.00 23.00
277.00 22.45
278.00 21.92
279.00 21.40
280.00 20.90
281.00 20.41
282.00 19.94
283.00 19.49
284.00 19.04
285.00 18.61
286.00 18.19
287.00 17.77
288.00 17.36
289.00 16.96
290.00 16.56
291.00 16.16
292.00 15.77
293.00 15.37
294.00 14.98
295.00 14.59
296.00 14.20
297.00 13.80
298.00 13.42
299.00 13.03
300.00 12.64
301.00 12.26
302.00 11.88
303.00 11.50
304.00 11.12
305.00 10.75
306.00 10.39
307.00 10.03
308.00 9.67
309.00 9.32
310.00 8.98
311.00 8.64
312.00 8.31
313.00 7.98
314.00 7.66
315.00 7.34
316.00 7.03
317.00 6.73
318.00 6.43
319.00 6.13
320.00 5.84
321.00 5.55
322.00 5.26
323.00 4.98
324.00 4.71
325.00 4.44
326.00 4.17
327.00 3.91
328.00 3.65
329.00 3.40
330.00 3.15
331.00 2.91
332.00 2.68
333.00 2.46
334.00 2.24
335.00 2.03
336.00 1.84
337.00 1.65
338.00 1.48
339.00 1.31
340.00 1.15
341.00 1.01
342.00 0.88
343.00 0.76
344.00 0.64
345.00 0.54
346.00 0.45
347.00 0.37
348.00 0.30
349.00 0.24
350.00 0.19
351.00 0.14
352.00 0.10
353.00 0.07
354.00 0.04
355.00 0.02
356.00 0.01
357.00 0.00
358.00 0.00
359.00 0.00
VERTICAL 360
0.00 28.09
1.00 23.82
2.00 24.06
3.00 33.82
4.00 17.44
5.00 9.31
6.00 4.67
7.00 1.83
8.00 0.31
9.00 0.00
10.00 1.00
11.00 3.66
12.00 8.91
13.00 21.11
14.00 18.10
15.00 12.93
16.00 13.14
17.00 18.05
18.00 28.80
19.00 16.56
20.00 13.40
21.00 14.23
22.00 19.02
23.00 30.39
24.00 21.93
25.00 17.60
26.00 17.47
27.00 21.69
28.00 31.42
29.00 21.88
30.00 18.98
31.00 20.18
32.00 24.49
33.00 28.31
34.00 22.54
35.00 18.23
36.00 16.77
37.00 17.28
38.00 17.92
39.00 17.37
40.00 17.51
41.00 19.55
42.00 22.45
43.00 23.97
44.00 26.00
45.00 27.93
46.00 25.16
47.00 23.87
48.00 26.22
49.00 32.95
50.00 30.11
51.00 25.18
52.00 24.12
53.00 24.60
54.00 24.20
55.00 23.83
56.00 25.76
57.00 31.05
58.00 35.34
59.00 33.77
60.00 36.16
61.00 47.71
62.00 40.73
63.00 36.35
64.00 38.61
65.00 43.29
66.00 39.71
67.00 38.47
68.00 40.06
69.00 41.49
70.00 37.60
71.00 34.58
72.00 34.63
73.00 37.32
74.00 42.54
75.00 39.65
76.00 33.72
77.00 32.40
78.00 35.08
79.00 39.83
80.00 39.19
81.00 40.42
82.00 40.63
83.00 35.30
84.00 33.55
85.00 35.35
86.00 39.77
87.00 39.17
88.00 32.94
89.00 28.67
90.00 26.73
91.00 26.48
92.00 26.85
93.00 27.26
94.00 27.79
95.00 27.99
96.00 28.30
97.00 30.38
98.00 35.52
99.00 40.29
100.00 34.06
101.00 29.73
102.00 28.42
103.00 29.82
104.00 32.96
105.00 35.47
106.00 38.42
107.00 42.01
108.00 41.70
109.00 41.31
110.00 38.88
111.00 38.25
112.00 40.87
113.00 39.16
114.00 35.33
115.00 33.95
116.00 34.83
117.00 37.90
118.00 38.17
119.00 36.08
120.00 39.25
121.00 59.33
122.00 36.76
123.00 34.55
124.00 38.38
125.00 52.66
126.00 52.27
127.00 50.87
128.00 42.02
129.00 43.50
130.00 50.89
131.00 40.65
132.00 43.96
133.00 48.24
134.00 37.60
135.00 38.20
136.00 40.70
137.00 36.70
138.00 35.67
139.00 35.89
140.00 35.45
141.00 33.36
142.00 29.99
143.00 28.85
144.00 30.75
145.00 35.30
146.00 39.40
147.00 39.31
148.00 36.96
149.00 36.43
150.00 38.95
151.00 40.98
152.00 37.22
153.00 34.90
154.00 35.01
155.00 35.32
156.00 34.50
157.00 34.87
158.00 35.88
159.00 34.63
160.00 33.14
161.00 32.92
162.00 33.59
163.00 34.45
164.00 35.03
165.00 35.43
166.00 36.22
167.00 38.69
168.00 45.10
169.00 47.18
170.00 41.22
171.00 39.12
172.00 38.31
173.00 38.28
174.00 40.24
175.00 48.19
176.00 42.64
177.00 35.29
178.00 33.08
179.00 33.62
180.00 36.32
181.00 40.97
182.00 47.44
183.00 53.06
184.00 47.34
185.00 42.73
186.00 41.01
187.00 40.41
188.00 38.08
189.00 34.84
190.00 32.83
191.00 32.39
192.00 34.03
193.00 40.07
194.00 42.22
195.00 34.70
196.00 33.35
197.00 35.15
198.00 37.01
199.00 37.11
200.00 37.58
201.00 40.20
202.00 46.58
203.00 38.89
204.00 34.43
205.00 33.70
206.00 34.06
207.00 34.45
208.00 36.42
209.00 41.35
210.00 47.68
211.00 49.17
212.00 48.38
213.00 45.57
214.00 41.64
215.00 38.68
216.00 37.80
217.00 38.67
218.00 40.05
219.00 40.08
220.00 37.81
221.00 35.64
222.00 35.27
223.00 35.22
224.00 33.13
225.00 31.24
226.00 30.74
227.00 30.97
228.00 31.21
229.00 31.30
230.00 31.51
231.00 32.45
232.00 34.33
233.00 36.41
234.00 38.16
235.00 39.90
236.00 41.24
237.00 40.94
238.00 38.83
239.00 37.02
240.00 36.48
241.00 37.38
242.00 39.69
243.00 42.98
244.00 47.55
245.00 40.87
246.00 34.66
247.00 32.31
248.00 32.30
249.00 33.39
250.00 34.15
251.00 34.17
252.00 35.06
253.00 40.00
254.00 62.95
255.00 38.98
256.00 36.79
257.00 38.98
258.00 42.48
259.00 41.60
260.00 38.61
261.00 37.27
262.00 38.71
263.00 40.72
264.00 38.22
265.00 36.69
266.00 37.93
267.00 40.80
268.00 40.57
269.00 36.44
270.00 33.12
271.00 31.52
272.00 31.59
273.00 33.52
274.00 38.69
275.00 51.94
276.00 39.55
277.00 36.10
278.00 37.82
279.00 45.52
280.00 41.73
281.00 36.11
282.00 34.28
283.00 33.70
284.00 33.09
285.00 32.22
286.00 31.88
287.00 32.53
288.00 33.67
289.00 34.38
290.00 34.39
291.00 33.93
292.00 34.08
293.00 35.78
294.00 38.26
295.00 38.27
296.00 36.43
297.00 34.09
298.00 31.32
299.00 29.35
300.00 28.88
301.00 29.65
302.00 30.40
303.00 30.10
304.00 29.33
305.00 27.26
306.00 23.06
307.00 18.65
308.00 15.11
309.00 12.46
310.00 10.54
311.00 9.31
312.00 8.81
313.00 9.22
314.00 10.70
315.00 13.56
316.00 18.65
317.00 28.44
318.00 24.14
319.00 18.50
320.00 16.76
321.00 17.16
322.00 19.82
323.00 27.23
324.00 30.26
325.00 20.76
326.00 18.07
327.00 18.97
328.00 24.62
329.00 30.58
330.00 20.87
331.00 17.93
332.00 18.60
333.00 24.55
334.00 34.57
335.00 19.78
336.00 16.77
337.00 17.86
338.00 26.26
339.00 26.45
340.00 16.55
341.00 12.70
342.00 11.38
343.00 12.08
344.00 14.91
345.00 20.29
346.00 25.13
347.00 21.01
348.00 19.79
349.00 22.69
350.00 32.09
351.00 27.44
352.00 22.53
353.00 22.00
354.00 23.24
355.00 24.92
356.00 26.69
357.00 28.81
358.00 31.65
359.00 33.33
