NAME ATR4518R7_2655_X_CO_M45_09T_yL
FREQUENCY 2655
GAIN 15.56 dBd
TILT	ELECTRICAL
COMMENT DATE 05.08.2013 -45 degrees polarized system Lever position 09T deg
HORIZONTAL 360
0.00 0.41
1.00 0.52
2.00 0.64
3.00 0.75
4.00 0.87
5.00 0.97
6.00 1.06
7.00 1.14
8.00 1.20
9.00 1.25
10.00 1.29
11.00 1.32
12.00 1.35
13.00 1.38
14.00 1.42
15.00 1.46
16.00 1.53
17.00 1.60
18.00 1.70
19.00 1.83
20.00 1.97
21.00 2.13
22.00 2.32
23.00 2.53
24.00 2.75
25.00 2.99
26.00 3.24
27.00 3.49
28.00 3.74
29.00 3.99
30.00 4.23
31.00 4.46
32.00 4.67
33.00 4.85
34.00 5.02
35.00 5.17
36.00 5.29
37.00 5.40
38.00 5.50
39.00 5.59
40.00 5.67
41.00 5.75
42.00 5.83
43.00 5.92
44.00 6.02
45.00 6.13
46.00 6.25
47.00 6.39
48.00 6.54
49.00 6.70
50.00 6.89
51.00 7.09
52.00 7.30
53.00 7.54
54.00 7.79
55.00 8.06
56.00 8.34
57.00 8.64
58.00 8.95
59.00 9.27
60.00 9.61
61.00 9.96
62.00 10.31
63.00 10.68
64.00 11.06
65.00 11.44
66.00 11.83
67.00 12.22
68.00 12.62
69.00 13.02
70.00 13.43
71.00 13.84
72.00 14.25
73.00 14.66
74.00 15.07
75.00 15.48
76.00 15.90
77.00 16.31
78.00 16.72
79.00 17.12
80.00 17.53
81.00 17.93
82.00 18.33
83.00 18.73
84.00 19.13
85.00 19.52
86.00 19.91
87.00 20.29
88.00 20.68
89.00 21.06
90.00 21.45
91.00 21.85
92.00 22.25
93.00 22.67
94.00 23.11
95.00 23.58
96.00 24.08
97.00 24.62
98.00 25.21
99.00 25.85
100.00 26.56
101.00 27.35
102.00 28.22
103.00 29.18
104.00 30.26
105.00 31.47
106.00 32.84
107.00 34.38
108.00 36.16
109.00 38.22
110.00 40.68
111.00 43.66
112.00 47.39
113.00 51.32
114.00 51.55
115.00 48.37
116.00 45.48
117.00 43.21
118.00 41.38
119.00 39.84
120.00 38.49
121.00 37.29
122.00 36.22
123.00 35.28
124.00 34.46
125.00 33.77
126.00 33.20
127.00 32.75
128.00 32.42
129.00 32.22
130.00 32.13
131.00 32.15
132.00 32.26
133.00 32.44
134.00 32.64
135.00 32.81
136.00 32.85
137.00 32.72
138.00 32.36
139.00 31.82
140.00 31.12
141.00 30.37
142.00 29.62
143.00 28.92
144.00 28.29
145.00 27.75
146.00 27.32
147.00 27.00
148.00 26.78
149.00 26.68
150.00 26.69
151.00 26.81
152.00 27.04
153.00 27.39
154.00 27.86
155.00 28.45
156.00 29.16
157.00 29.98
158.00 30.90
159.00 31.87
160.00 32.85
161.00 33.71
162.00 34.31
163.00 34.54
164.00 34.39
165.00 33.98
166.00 33.45
167.00 32.92
168.00 32.45
169.00 32.09
170.00 31.86
171.00 31.76
172.00 31.80
173.00 31.99
174.00 32.34
175.00 32.85
176.00 33.55
177.00 34.44
178.00 35.55
179.00 36.86
180.00 38.30
181.00 39.57
182.00 40.14
183.00 39.60
184.00 38.27
185.00 36.72
186.00 35.26
187.00 34.01
188.00 32.98
189.00 32.15
190.00 31.51
191.00 31.04
192.00 30.74
193.00 30.60
194.00 30.62
195.00 30.81
196.00 31.15
197.00 31.69
198.00 32.42
199.00 33.39
200.00 34.62
201.00 36.18
202.00 38.14
203.00 40.51
204.00 42.97
205.00 44.10
206.00 42.81
207.00 40.64
208.00 38.71
209.00 37.21
210.00 36.10
211.00 35.32
212.00 34.81
213.00 34.55
214.00 34.49
215.00 34.61
216.00 34.89
217.00 35.29
218.00 35.76
219.00 36.21
220.00 36.58
221.00 36.77
222.00 36.75
223.00 36.55
224.00 36.23
225.00 35.90
226.00 35.62
227.00 35.46
228.00 35.44
229.00 35.60
230.00 35.94
231.00 36.51
232.00 37.31
233.00 38.36
234.00 39.66
235.00 41.14
236.00 42.56
237.00 43.38
238.00 43.11
239.00 41.98
240.00 40.62
241.00 39.37
242.00 38.35
243.00 37.58
244.00 37.03
245.00 36.69
246.00 36.53
247.00 36.52
248.00 36.63
249.00 36.81
250.00 37.01
251.00 37.17
252.00 37.22
253.00 37.12
254.00 36.85
255.00 36.46
256.00 36.00
257.00 35.53
258.00 35.10
259.00 34.75
260.00 34.51
261.00 34.39
262.00 34.43
263.00 34.62
264.00 35.00
265.00 35.56
266.00 36.31
267.00 37.18
268.00 37.99
269.00 38.37
270.00 37.89
271.00 36.56
272.00 34.82
273.00 33.03
274.00 31.36
275.00 29.86
276.00 28.54
277.00 27.38
278.00 26.37
279.00 25.47
280.00 24.69
281.00 24.01
282.00 23.40
283.00 22.86
284.00 22.36
285.00 21.90
286.00 21.45
287.00 20.99
288.00 20.53
289.00 20.03
290.00 19.50
291.00 18.93
292.00 18.32
293.00 17.68
294.00 17.02
295.00 16.36
296.00 15.69
297.00 15.02
298.00 14.37
299.00 13.74
300.00 13.13
301.00 12.54
302.00 11.97
303.00 11.43
304.00 10.91
305.00 10.41
306.00 9.93
307.00 9.46
308.00 9.01
309.00 8.58
310.00 8.15
311.00 7.74
312.00 7.34
313.00 6.94
314.00 6.56
315.00 6.19
316.00 5.83
317.00 5.48
318.00 5.14
319.00 4.81
320.00 4.50
321.00 4.21
322.00 3.93
323.00 3.67
324.00 3.42
325.00 3.19
326.00 2.97
327.00 2.77
328.00 2.58
329.00 2.40
330.00 2.24
331.00 2.09
332.00 1.96
333.00 1.83
334.00 1.70
335.00 1.59
336.00 1.48
337.00 1.37
338.00 1.27
339.00 1.16
340.00 1.06
341.00 0.96
342.00 0.85
343.00 0.75
344.00 0.64
345.00 0.54
346.00 0.44
347.00 0.34
348.00 0.25
349.00 0.17
350.00 0.11
351.00 0.05
352.00 0.02
353.00 0.00
354.00 0.00
355.00 0.03
356.00 0.07
357.00 0.13
358.00 0.21
359.00 0.30
VERTICAL 360
0.00 21.17
1.00 19.18
2.00 18.76
3.00 17.58
4.00 14.40
5.00 9.22
6.00 5.00
7.00 2.12
8.00 0.48
9.00 0.00
10.00 0.74
11.00 3.01
12.00 7.78
13.00 20.74
14.00 15.53
15.00 10.17
16.00 9.80
17.00 12.66
18.00 21.05
19.00 24.25
20.00 16.13
21.00 14.91
22.00 17.44
23.00 26.41
24.00 26.86
25.00 19.64
26.00 19.01
27.00 23.30
28.00 36.03
29.00 21.66
30.00 18.31
31.00 18.82
32.00 22.87
33.00 24.22
34.00 16.97
35.00 12.72
36.00 10.66
37.00 10.25
38.00 11.29
39.00 13.77
40.00 18.00
41.00 25.11
42.00 28.16
43.00 22.76
44.00 20.48
45.00 20.14
46.00 21.28
47.00 24.09
48.00 29.25
49.00 34.34
50.00 31.73
51.00 30.62
52.00 31.64
53.00 33.49
54.00 34.85
55.00 35.23
56.00 35.81
57.00 37.73
58.00 41.85
59.00 47.14
60.00 44.55
61.00 44.30
62.00 49.26
63.00 74.59
64.00 46.57
65.00 38.89
66.00 36.30
67.00 37.65
68.00 43.41
69.00 52.58
70.00 46.21
71.00 40.13
72.00 38.09
73.00 39.49
74.00 42.49
75.00 43.21
76.00 39.19
77.00 35.68
78.00 35.56
79.00 39.74
80.00 50.70
81.00 51.21
82.00 44.83
83.00 36.61
84.00 32.98
85.00 32.83
86.00 36.57
87.00 41.94
88.00 36.78
89.00 35.78
90.00 36.50
91.00 33.96
92.00 32.99
93.00 36.38
94.00 51.04
95.00 40.34
96.00 37.49
97.00 37.70
98.00 35.82
99.00 34.00
100.00 34.14
101.00 35.63
102.00 36.70
103.00 36.06
104.00 34.54
105.00 33.55
106.00 33.60
107.00 33.95
108.00 33.61
109.00 32.69
110.00 31.69
111.00 31.01
112.00 30.82
113.00 30.91
114.00 31.08
115.00 31.28
116.00 31.47
117.00 31.63
118.00 31.92
119.00 32.89
120.00 35.26
121.00 37.95
122.00 36.36
123.00 35.07
124.00 37.14
125.00 40.35
126.00 37.54
127.00 37.10
128.00 41.51
129.00 51.68
130.00 48.54
131.00 45.12
132.00 41.30
133.00 38.21
134.00 34.97
135.00 33.12
136.00 33.58
137.00 36.19
138.00 39.28
139.00 39.46
140.00 37.68
141.00 35.96
142.00 34.45
143.00 33.48
144.00 33.13
145.00 33.01
146.00 33.81
147.00 36.11
148.00 37.48
149.00 37.59
150.00 37.18
151.00 34.82
152.00 34.33
153.00 35.67
154.00 35.48
155.00 36.70
156.00 41.89
157.00 38.68
158.00 37.51
159.00 37.18
160.00 32.94
161.00 31.62
162.00 32.98
163.00 33.41
164.00 32.82
165.00 34.07
166.00 36.79
167.00 37.25
168.00 34.08
169.00 32.16
170.00 32.26
171.00 32.14
172.00 31.09
173.00 31.14
174.00 31.74
175.00 31.65
176.00 32.24
177.00 33.97
178.00 35.92
179.00 40.33
180.00 51.67
181.00 39.73
182.00 36.57
183.00 34.64
184.00 33.40
185.00 34.26
186.00 34.59
187.00 32.56
188.00 32.54
189.00 35.46
190.00 39.18
191.00 38.03
192.00 34.59
193.00 33.02
194.00 31.64
195.00 27.84
196.00 25.14
197.00 24.59
198.00 25.34
199.00 26.25
200.00 27.75
201.00 31.29
202.00 37.23
203.00 39.32
204.00 37.24
205.00 36.28
206.00 36.20
207.00 35.92
208.00 36.98
209.00 42.07
210.00 43.05
211.00 40.75
212.00 44.51
213.00 39.07
214.00 34.27
215.00 32.50
216.00 31.95
217.00 32.38
218.00 34.21
219.00 37.12
220.00 40.18
221.00 41.97
222.00 39.68
223.00 36.07
224.00 33.00
225.00 31.05
226.00 30.36
227.00 30.39
228.00 30.13
229.00 29.10
230.00 28.02
231.00 27.68
232.00 28.34
233.00 29.81
234.00 31.34
235.00 32.28
236.00 33.28
237.00 35.95
238.00 43.34
239.00 46.88
240.00 39.30
241.00 38.80
242.00 43.37
243.00 62.47
244.00 43.62
245.00 40.26
246.00 41.06
247.00 46.91
248.00 53.15
249.00 41.52
250.00 37.44
251.00 35.58
252.00 35.01
253.00 35.41
254.00 36.45
255.00 37.64
256.00 39.19
257.00 42.41
258.00 45.60
259.00 41.81
260.00 39.27
261.00 39.17
262.00 40.88
263.00 44.41
264.00 51.00
265.00 51.64
266.00 43.47
267.00 38.39
268.00 35.55
269.00 34.85
270.00 36.76
271.00 43.10
272.00 41.17
273.00 34.39
274.00 31.19
275.00 29.69
276.00 29.41
277.00 30.37
278.00 32.28
279.00 33.73
280.00 33.70
281.00 33.34
282.00 33.60
283.00 35.10
284.00 38.15
285.00 42.21
286.00 44.17
287.00 41.79
288.00 39.37
289.00 38.62
290.00 39.54
291.00 42.60
292.00 46.45
293.00 43.79
294.00 43.03
295.00 46.84
296.00 48.19
297.00 43.13
298.00 39.62
299.00 37.35
300.00 35.97
301.00 32.78
302.00 27.93
303.00 23.80
304.00 20.66
305.00 18.19
306.00 16.13
307.00 14.32
308.00 12.66
309.00 11.18
310.00 9.98
311.00 9.19
312.00 8.96
313.00 9.38
314.00 10.63
315.00 13.08
316.00 17.73
317.00 30.29
318.00 21.42
319.00 15.50
320.00 13.55
321.00 13.81
322.00 16.17
323.00 21.75
324.00 38.65
325.00 24.69
326.00 20.46
327.00 19.82
328.00 22.12
329.00 30.29
330.00 30.25
331.00 22.87
332.00 21.79
333.00 25.22
334.00 34.80
335.00 23.12
336.00 18.47
337.00 17.54
338.00 20.26
339.00 31.24
340.00 19.77
341.00 13.94
342.00 12.37
343.00 13.22
344.00 16.88
345.00 29.49
346.00 25.46
347.00 19.23
348.00 18.32
349.00 20.40
350.00 24.97
351.00 30.15
352.00 33.42
353.00 43.45
354.00 34.52
355.00 26.69
356.00 24.48
357.00 26.65
358.00 34.81
359.00 26.26
