NAME ATR4518R7_2535_X_CO_P45_03T_yL
FREQUENCY 2535
GAIN 15.60 dBd
TILT	ELECTRICAL
COMMENT DATE 05.08.2013 +45 degrees polarized system Lever position 03T deg
HORIZONTAL 360
0.00 0.04
1.00 0.03
2.00 0.01
3.00 0.01
4.00 0.00
5.00 0.00
6.00 0.01
7.00 0.02
8.00 0.04
9.00 0.06
10.00 0.10
11.00 0.15
12.00 0.21
13.00 0.29
14.00 0.38
15.00 0.48
16.00 0.60
17.00 0.73
18.00 0.89
19.00 1.05
20.00 1.23
21.00 1.43
22.00 1.63
23.00 1.85
24.00 2.07
25.00 2.30
26.00 2.54
27.00 2.77
28.00 3.01
29.00 3.24
30.00 3.46
31.00 3.68
32.00 3.89
33.00 4.09
34.00 4.28
35.00 4.46
36.00 4.64
37.00 4.81
38.00 4.99
39.00 5.16
40.00 5.33
41.00 5.51
42.00 5.70
43.00 5.90
44.00 6.10
45.00 6.32
46.00 6.56
47.00 6.80
48.00 7.07
49.00 7.34
50.00 7.63
51.00 7.94
52.00 8.25
53.00 8.58
54.00 8.92
55.00 9.27
56.00 9.63
57.00 9.99
58.00 10.36
59.00 10.72
60.00 11.09
61.00 11.45
62.00 11.81
63.00 12.17
64.00 12.52
65.00 12.86
66.00 13.19
67.00 13.52
68.00 13.84
69.00 14.14
70.00 14.44
71.00 14.73
72.00 15.00
73.00 15.27
74.00 15.52
75.00 15.76
76.00 16.00
77.00 16.22
78.00 16.43
79.00 16.63
80.00 16.82
81.00 17.01
82.00 17.20
83.00 17.38
84.00 17.57
85.00 17.77
86.00 17.97
87.00 18.19
88.00 18.43
89.00 18.68
90.00 18.96
91.00 19.26
92.00 19.59
93.00 19.94
94.00 20.33
95.00 20.73
96.00 21.17
97.00 21.62
98.00 22.10
99.00 22.59
100.00 23.09
101.00 23.60
102.00 24.12
103.00 24.63
104.00 25.14
105.00 25.64
106.00 26.14
107.00 26.65
108.00 27.16
109.00 27.68
110.00 28.23
111.00 28.81
112.00 29.42
113.00 30.09
114.00 30.80
115.00 31.59
116.00 32.44
117.00 33.36
118.00 34.34
119.00 35.39
120.00 36.47
121.00 37.53
122.00 38.53
123.00 39.36
124.00 39.94
125.00 40.21
126.00 40.20
127.00 39.99
128.00 39.66
129.00 39.29
130.00 38.92
131.00 38.59
132.00 38.28
133.00 38.00
134.00 37.74
135.00 37.47
136.00 37.18
137.00 36.85
138.00 36.46
139.00 36.04
140.00 35.56
141.00 35.06
142.00 34.55
143.00 34.06
144.00 33.60
145.00 33.19
146.00 32.85
147.00 32.58
148.00 32.41
149.00 32.32
150.00 32.33
151.00 32.44
152.00 32.68
153.00 33.02
154.00 33.49
155.00 34.07
156.00 34.78
157.00 35.60
158.00 36.50
159.00 37.42
160.00 38.28
161.00 38.93
162.00 39.24
163.00 39.19
164.00 38.84
165.00 38.35
166.00 37.84
167.00 37.39
168.00 37.04
169.00 36.82
170.00 36.71
171.00 36.74
172.00 36.88
173.00 37.12
174.00 37.47
175.00 37.88
176.00 38.35
177.00 38.85
178.00 39.37
179.00 39.90
180.00 40.45
181.00 41.02
182.00 41.66
183.00 42.41
184.00 43.31
185.00 44.42
186.00 45.69
187.00 46.92
188.00 47.46
189.00 46.62
190.00 44.73
191.00 42.58
192.00 40.59
193.00 38.85
194.00 37.36
195.00 36.09
196.00 35.02
197.00 34.13
198.00 33.40
199.00 32.81
200.00 32.35
201.00 32.03
202.00 31.83
203.00 31.76
204.00 31.81
205.00 32.00
206.00 32.32
207.00 32.79
208.00 33.43
209.00 34.27
210.00 35.34
211.00 36.71
212.00 38.48
213.00 40.83
214.00 44.13
215.00 48.88
216.00 51.80
217.00 47.11
218.00 43.01
219.00 40.19
220.00 38.16
221.00 36.64
222.00 35.49
223.00 34.60
224.00 33.94
225.00 33.47
226.00 33.16
227.00 32.99
228.00 32.97
229.00 33.07
230.00 33.29
231.00 33.64
232.00 34.11
233.00 34.71
234.00 35.42
235.00 36.26
236.00 37.22
237.00 38.28
238.00 39.39
239.00 40.43
240.00 41.19
241.00 41.41
242.00 41.00
243.00 40.06
244.00 38.85
245.00 37.55
246.00 36.28
247.00 35.06
248.00 33.93
249.00 32.86
250.00 31.87
251.00 30.94
252.00 30.08
253.00 29.28
254.00 28.54
255.00 27.85
256.00 27.23
257.00 26.67
258.00 26.16
259.00 25.72
260.00 25.33
261.00 25.00
262.00 24.73
263.00 24.51
264.00 24.36
265.00 24.25
266.00 24.20
267.00 24.18
268.00 24.21
269.00 24.25
270.00 24.30
271.00 24.34
272.00 24.35
273.00 24.30
274.00 24.17
275.00 23.96
276.00 23.65
277.00 23.26
278.00 22.79
279.00 22.28
280.00 21.74
281.00 21.19
282.00 20.64
283.00 20.11
284.00 19.59
285.00 19.10
286.00 18.64
287.00 18.20
288.00 17.79
289.00 17.39
290.00 17.02
291.00 16.65
292.00 16.30
293.00 15.96
294.00 15.62
295.00 15.28
296.00 14.94
297.00 14.60
298.00 14.25
299.00 13.89
300.00 13.54
301.00 13.17
302.00 12.81
303.00 12.44
304.00 12.07
305.00 11.69
306.00 11.32
307.00 10.94
308.00 10.57
309.00 10.19
310.00 9.81
311.00 9.43
312.00 9.06
313.00 8.68
314.00 8.31
315.00 7.93
316.00 7.56
317.00 7.19
318.00 6.84
319.00 6.48
320.00 6.14
321.00 5.81
322.00 5.48
323.00 5.17
324.00 4.88
325.00 4.59
326.00 4.32
327.00 4.07
328.00 3.83
329.00 3.59
330.00 3.38
331.00 3.17
332.00 2.97
333.00 2.77
334.00 2.59
335.00 2.41
336.00 2.24
337.00 2.07
338.00 1.91
339.00 1.75
340.00 1.59
341.00 1.44
342.00 1.30
343.00 1.16
344.00 1.03
345.00 0.91
346.00 0.80
347.00 0.69
348.00 0.60
349.00 0.51
350.00 0.43
351.00 0.37
352.00 0.31
353.00 0.25
354.00 0.21
355.00 0.17
356.00 0.14
357.00 0.11
358.00 0.08
359.00 0.06
VERTICAL 360
0.00 5.99
1.00 2.81
2.00 0.83
3.00 0.00
4.00 0.34
5.00 1.98
6.00 5.42
7.00 12.43
8.00 27.40
9.00 13.43
10.00 11.30
11.00 12.98
12.00 17.47
13.00 17.71
14.00 14.49
15.00 13.87
16.00 15.99
17.00 21.11
18.00 20.85
19.00 16.57
20.00 15.54
21.00 17.72
22.00 25.29
23.00 25.01
24.00 17.80
25.00 15.46
26.00 15.60
27.00 17.99
28.00 23.61
29.00 30.87
30.00 24.69
31.00 22.50
32.00 22.90
33.00 23.70
34.00 23.15
35.00 22.22
36.00 22.28
37.00 24.10
38.00 28.63
39.00 30.88
40.00 25.25
41.00 22.41
42.00 21.79
43.00 22.78
44.00 25.40
45.00 31.30
46.00 47.35
47.00 29.18
48.00 24.76
49.00 23.17
50.00 23.15
51.00 24.28
52.00 26.62
53.00 30.64
54.00 36.19
55.00 36.66
56.00 35.38
57.00 35.82
58.00 36.01
59.00 34.50
60.00 32.42
61.00 31.57
62.00 32.56
63.00 34.70
64.00 35.40
65.00 34.16
66.00 32.90
67.00 31.78
68.00 30.35
69.00 29.00
70.00 28.26
71.00 28.09
72.00 28.29
73.00 28.53
74.00 28.44
75.00 28.13
76.00 28.04
77.00 28.51
78.00 29.92
79.00 32.33
80.00 34.78
81.00 35.95
82.00 37.19
83.00 40.42
84.00 39.67
85.00 34.33
86.00 30.77
87.00 28.17
88.00 26.85
89.00 27.79
90.00 32.25
91.00 41.71
92.00 38.27
93.00 39.67
94.00 45.13
95.00 37.58
96.00 35.90
97.00 37.64
98.00 39.35
99.00 37.30
100.00 34.44
101.00 33.28
102.00 34.19
103.00 36.70
104.00 39.11
105.00 39.02
106.00 37.01
107.00 35.39
108.00 34.92
109.00 35.13
110.00 34.99
111.00 34.01
112.00 32.73
113.00 31.90
114.00 31.83
115.00 32.31
116.00 32.70
117.00 32.39
118.00 31.73
119.00 31.40
120.00 31.51
121.00 31.63
122.00 31.65
123.00 32.10
124.00 33.35
125.00 35.54
126.00 38.83
127.00 42.65
128.00 42.74
129.00 40.80
130.00 39.49
131.00 37.89
132.00 36.63
133.00 36.82
134.00 38.29
135.00 39.62
136.00 40.69
137.00 41.71
138.00 39.46
139.00 36.48
140.00 34.73
141.00 33.90
142.00 33.86
143.00 34.53
144.00 35.26
145.00 35.61
146.00 36.46
147.00 39.05
148.00 43.83
149.00 41.47
150.00 37.48
151.00 36.39
152.00 36.94
153.00 37.16
154.00 35.63
155.00 33.58
156.00 32.54
157.00 33.04
158.00 34.41
159.00 35.18
160.00 35.88
161.00 38.23
162.00 42.62
163.00 46.32
164.00 46.13
165.00 44.86
166.00 43.92
167.00 43.55
168.00 42.99
169.00 43.46
170.00 47.02
171.00 45.45
172.00 41.41
173.00 42.67
174.00 54.75
175.00 45.28
176.00 41.76
177.00 43.84
178.00 48.43
179.00 46.78
180.00 38.79
181.00 34.05
182.00 32.42
183.00 33.47
184.00 37.06
185.00 40.26
186.00 37.39
187.00 35.42
188.00 35.56
189.00 36.45
190.00 36.68
191.00 36.85
192.00 37.31
193.00 37.04
194.00 36.51
195.00 36.99
196.00 37.48
197.00 35.92
198.00 35.11
199.00 37.18
200.00 43.45
201.00 56.92
202.00 45.35
203.00 39.72
204.00 39.14
205.00 46.25
206.00 44.05
207.00 36.36
208.00 34.16
209.00 34.00
210.00 35.63
211.00 40.87
212.00 51.82
213.00 43.66
214.00 43.32
215.00 45.09
216.00 43.19
217.00 41.23
218.00 40.11
219.00 40.58
220.00 43.96
221.00 45.52
222.00 39.70
223.00 36.19
224.00 34.24
225.00 32.78
226.00 31.86
227.00 32.05
228.00 33.51
229.00 35.75
230.00 37.84
231.00 39.66
232.00 41.91
233.00 43.95
234.00 43.85
235.00 44.43
236.00 48.95
237.00 66.87
238.00 52.05
239.00 48.35
240.00 48.01
241.00 49.98
242.00 50.42
243.00 48.64
244.00 50.53
245.00 56.03
246.00 45.86
247.00 39.96
248.00 36.24
249.00 33.88
250.00 33.03
251.00 34.04
252.00 37.03
253.00 40.25
254.00 39.26
255.00 37.31
256.00 36.80
257.00 38.25
258.00 41.80
259.00 46.23
260.00 46.15
261.00 42.62
262.00 40.29
263.00 39.08
264.00 37.65
265.00 35.81
266.00 34.93
267.00 36.71
268.00 43.70
269.00 36.13
270.00 29.67
271.00 26.36
272.00 24.70
273.00 24.34
274.00 25.22
275.00 27.27
276.00 30.52
277.00 35.30
278.00 39.40
279.00 37.26
280.00 34.51
281.00 32.20
282.00 30.61
283.00 29.84
284.00 29.33
285.00 28.73
286.00 28.15
287.00 27.45
288.00 26.14
289.00 24.08
290.00 21.81
291.00 19.87
292.00 18.42
293.00 17.30
294.00 16.29
295.00 15.25
296.00 14.20
297.00 13.28
298.00 12.63
299.00 12.36
300.00 12.56
301.00 13.32
302.00 14.72
303.00 16.92
304.00 20.30
305.00 25.83
306.00 30.32
307.00 24.32
308.00 20.65
309.00 19.13
310.00 19.28
311.00 21.32
312.00 26.41
313.00 30.80
314.00 24.09
315.00 20.92
316.00 20.18
317.00 21.24
318.00 24.62
319.00 33.57
320.00 27.96
321.00 21.65
322.00 19.53
323.00 20.18
324.00 24.23
325.00 33.36
326.00 22.85
327.00 17.56
328.00 15.31
329.00 15.13
330.00 16.97
331.00 21.25
332.00 29.29
333.00 36.49
334.00 31.71
335.00 26.29
336.00 21.28
337.00 18.06
338.00 16.68
339.00 17.22
340.00 20.38
341.00 29.06
342.00 26.79
343.00 20.69
344.00 19.26
345.00 20.88
346.00 26.61
347.00 28.19
348.00 21.13
349.00 18.62
350.00 19.21
351.00 23.62
352.00 32.71
353.00 23.18
354.00 19.85
355.00 19.95
356.00 22.28
357.00 22.53
358.00 16.41
359.00 10.49
