NAME ATR4518R7_0847_X_CO_M45_08T
FREQUENCY 0847
GAIN 14.55 dBd
TILT	ELECTRICAL
COMMENT DATE 05.08.2013 -45 degrees polarized system Lever position 08T deg
HORIZONTAL 360
0.00 0.00
1.00 0.00
2.00 0.01
3.00 0.03
4.00 0.05
5.00 0.08
6.00 0.11
7.00 0.15
8.00 0.20
9.00 0.25
10.00 0.31
11.00 0.38
12.00 0.45
13.00 0.53
14.00 0.61
15.00 0.70
16.00 0.80
17.00 0.90
18.00 1.01
19.00 1.13
20.00 1.25
21.00 1.38
22.00 1.51
23.00 1.65
24.00 1.80
25.00 1.96
26.00 2.12
27.00 2.28
28.00 2.46
29.00 2.63
30.00 2.82
31.00 3.01
32.00 3.21
33.00 3.41
34.00 3.62
35.00 3.84
36.00 4.06
37.00 4.29
38.00 4.53
39.00 4.77
40.00 5.02
41.00 5.27
42.00 5.53
43.00 5.80
44.00 6.07
45.00 6.35
46.00 6.63
47.00 6.92
48.00 7.22
49.00 7.52
50.00 7.82
51.00 8.13
52.00 8.45
53.00 8.77
54.00 9.10
55.00 9.43
56.00 9.77
57.00 10.11
58.00 10.45
59.00 10.80
60.00 11.16
61.00 11.52
62.00 11.88
63.00 12.25
64.00 12.62
65.00 13.00
66.00 13.37
67.00 13.76
68.00 14.15
69.00 14.54
70.00 14.93
71.00 15.33
72.00 15.74
73.00 16.14
74.00 16.56
75.00 16.97
76.00 17.40
77.00 17.82
78.00 18.25
79.00 18.69
80.00 19.14
81.00 19.59
82.00 20.04
83.00 20.50
84.00 20.97
85.00 21.45
86.00 21.93
87.00 22.43
88.00 22.93
89.00 23.44
90.00 23.95
91.00 24.48
92.00 25.01
93.00 25.55
94.00 26.10
95.00 26.66
96.00 27.22
97.00 27.79
98.00 28.36
99.00 28.93
100.00 29.50
101.00 30.07
102.00 30.64
103.00 31.20
104.00 31.74
105.00 32.28
106.00 32.79
107.00 33.30
108.00 33.77
109.00 34.23
110.00 34.67
111.00 35.08
112.00 35.47
113.00 35.85
114.00 36.21
115.00 36.56
116.00 36.90
117.00 37.22
118.00 37.55
119.00 37.88
120.00 38.20
121.00 38.52
122.00 38.86
123.00 39.18
124.00 39.50
125.00 39.82
126.00 40.13
127.00 40.41
128.00 40.67
129.00 40.90
130.00 41.08
131.00 41.20
132.00 41.28
133.00 41.30
134.00 41.26
135.00 41.18
136.00 41.06
137.00 40.90
138.00 40.72
139.00 40.53
140.00 40.33
141.00 40.14
142.00 39.95
143.00 39.78
144.00 39.63
145.00 39.50
146.00 39.39
147.00 39.31
148.00 39.27
149.00 39.25
150.00 39.26
151.00 39.31
152.00 39.39
153.00 39.51
154.00 39.65
155.00 39.84
156.00 40.06
157.00 40.32
158.00 40.60
159.00 40.92
160.00 41.27
161.00 41.64
162.00 42.02
163.00 42.40
164.00 42.78
165.00 43.11
166.00 43.38
167.00 43.57
168.00 43.66
169.00 43.63
170.00 43.48
171.00 43.21
172.00 42.85
173.00 42.42
174.00 41.96
175.00 41.46
176.00 40.96
177.00 40.49
178.00 40.02
179.00 39.57
180.00 39.16
181.00 38.78
182.00 38.43
183.00 38.12
184.00 37.84
185.00 37.60
186.00 37.39
187.00 37.21
188.00 37.07
189.00 36.97
190.00 36.89
191.00 36.85
192.00 36.85
193.00 36.88
194.00 36.95
195.00 37.05
196.00 37.19
197.00 37.37
198.00 37.59
199.00 37.86
200.00 38.17
201.00 38.53
202.00 38.94
203.00 39.41
204.00 39.95
205.00 40.56
206.00 41.24
207.00 42.02
208.00 42.89
209.00 43.89
210.00 44.99
211.00 46.22
212.00 47.53
213.00 48.82
214.00 49.80
215.00 50.11
216.00 49.58
217.00 48.43
218.00 47.05
219.00 45.66
220.00 44.36
221.00 43.19
222.00 42.12
223.00 41.17
224.00 40.29
225.00 39.51
226.00 38.78
227.00 38.11
228.00 37.49
229.00 36.92
230.00 36.38
231.00 35.87
232.00 35.38
233.00 34.92
234.00 34.47
235.00 34.03
236.00 33.60
237.00 33.17
238.00 32.74
239.00 32.32
240.00 31.89
241.00 31.46
242.00 31.03
243.00 30.59
244.00 30.14
245.00 29.69
246.00 29.23
247.00 28.77
248.00 28.30
249.00 27.84
250.00 27.37
251.00 26.90
252.00 26.43
253.00 25.96
254.00 25.49
255.00 25.03
256.00 24.57
257.00 24.12
258.00 23.67
259.00 23.23
260.00 22.79
261.00 22.36
262.00 21.93
263.00 21.51
264.00 21.10
265.00 20.70
266.00 20.30
267.00 19.91
268.00 19.53
269.00 19.15
270.00 18.78
271.00 18.41
272.00 18.05
273.00 17.70
274.00 17.35
275.00 17.01
276.00 16.67
277.00 16.34
278.00 16.01
279.00 15.69
280.00 15.37
281.00 15.05
282.00 14.74
283.00 14.43
284.00 14.13
285.00 13.82
286.00 13.52
287.00 13.22
288.00 12.93
289.00 12.63
290.00 12.34
291.00 12.05
292.00 11.76
293.00 11.48
294.00 11.19
295.00 10.91
296.00 10.63
297.00 10.35
298.00 10.07
299.00 9.79
300.00 9.52
301.00 9.24
302.00 8.97
303.00 8.70
304.00 8.44
305.00 8.17
306.00 7.91
307.00 7.64
308.00 7.39
309.00 7.13
310.00 6.88
311.00 6.63
312.00 6.38
313.00 6.13
314.00 5.89
315.00 5.65
316.00 5.42
317.00 5.19
318.00 4.96
319.00 4.74
320.00 4.52
321.00 4.31
322.00 4.10
323.00 3.89
324.00 3.69
325.00 3.50
326.00 3.30
327.00 3.12
328.00 2.94
329.00 2.76
330.00 2.59
331.00 2.42
332.00 2.26
333.00 2.10
334.00 1.95
335.00 1.80
336.00 1.66
337.00 1.53
338.00 1.40
339.00 1.27
340.00 1.16
341.00 1.04
342.00 0.93
343.00 0.83
344.00 0.74
345.00 0.65
346.00 0.56
347.00 0.48
348.00 0.41
349.00 0.34
350.00 0.28
351.00 0.23
352.00 0.18
353.00 0.13
354.00 0.10
355.00 0.06
356.00 0.04
357.00 0.02
358.00 0.01
359.00 0.00
VERTICAL 360
0.00 13.74
1.00 9.82
2.00 6.86
3.00 4.60
4.00 2.88
5.00 1.61
6.00 0.73
7.00 0.20
8.00 0.00
9.00 0.11
10.00 0.55
11.00 1.33
12.00 2.48
13.00 4.06
14.00 6.13
15.00 8.81
16.00 12.34
17.00 17.19
18.00 24.44
19.00 29.36
20.00 24.79
21.00 22.98
22.00 23.35
23.00 25.71
24.00 31.30
25.00 47.19
26.00 30.25
27.00 24.98
28.00 22.32
29.00 20.98
30.00 20.60
31.00 21.06
32.00 22.32
33.00 24.39
34.00 27.30
35.00 30.99
36.00 35.00
37.00 37.77
38.00 38.83
39.00 39.81
40.00 40.59
41.00 38.17
42.00 33.84
43.00 30.14
44.00 27.37
45.00 25.37
46.00 23.97
47.00 23.00
48.00 22.36
49.00 22.00
50.00 21.94
51.00 22.27
52.00 23.08
53.00 24.47
54.00 26.56
55.00 29.48
56.00 33.66
57.00 40.60
58.00 43.03
59.00 35.16
60.00 30.98
61.00 28.60
62.00 27.34
63.00 26.94
64.00 27.26
65.00 28.03
66.00 28.60
67.00 28.27
68.00 27.45
69.00 26.97
70.00 27.22
71.00 28.32
72.00 30.29
73.00 32.97
74.00 35.36
75.00 35.82
76.00 35.32
77.00 35.68
78.00 37.95
79.00 42.26
80.00 39.20
81.00 34.22
82.00 31.76
83.00 31.05
84.00 31.31
85.00 31.29
86.00 30.22
87.00 28.83
88.00 27.86
89.00 27.47
90.00 27.73
91.00 28.56
92.00 29.52
93.00 29.68
94.00 28.98
95.00 28.32
96.00 28.19
97.00 28.58
98.00 29.41
99.00 30.67
100.00 32.43
101.00 34.52
102.00 36.27
103.00 36.92
104.00 36.67
105.00 36.32
106.00 36.48
107.00 37.49
108.00 39.54
109.00 42.78
110.00 44.64
111.00 40.55
112.00 36.51
113.00 34.00
114.00 32.74
115.00 32.48
116.00 33.08
117.00 34.44
118.00 36.11
119.00 36.44
120.00 34.94
121.00 33.40
122.00 32.69
123.00 32.88
124.00 33.78
125.00 35.01
126.00 35.93
127.00 35.96
128.00 35.38
129.00 34.88
130.00 34.84
131.00 35.29
132.00 36.03
133.00 36.73
134.00 37.08
135.00 37.02
136.00 36.79
137.00 36.64
138.00 36.69
139.00 36.83
140.00 36.86
141.00 36.62
142.00 36.19
143.00 35.76
144.00 35.60
145.00 35.82
146.00 36.45
147.00 37.34
148.00 38.24
149.00 38.91
150.00 39.32
151.00 39.68
152.00 40.18
153.00 40.83
154.00 41.35
155.00 41.33
156.00 40.69
157.00 39.67
158.00 38.67
159.00 38.02
160.00 38.00
161.00 38.72
162.00 39.93
163.00 41.00
164.00 41.39
165.00 41.14
166.00 40.25
167.00 38.95
168.00 37.92
169.00 37.52
170.00 37.78
171.00 38.44
172.00 39.16
173.00 39.37
174.00 39.65
175.00 40.16
176.00 40.72
177.00 40.51
178.00 39.87
179.00 39.23
180.00 39.29
181.00 40.03
182.00 41.04
183.00 41.58
184.00 41.26
185.00 40.58
186.00 40.29
187.00 40.63
188.00 41.32
189.00 41.78
190.00 41.64
191.00 41.03
192.00 40.48
193.00 40.59
194.00 41.70
195.00 43.67
196.00 45.48
197.00 45.80
198.00 45.22
199.00 45.04
200.00 46.24
201.00 49.98
202.00 53.48
203.00 47.71
204.00 43.96
205.00 42.12
206.00 41.11
207.00 40.19
208.00 39.01
209.00 37.76
210.00 36.88
211.00 36.75
212.00 37.45
213.00 38.88
214.00 40.96
215.00 43.53
216.00 45.07
217.00 43.23
218.00 40.25
219.00 37.83
220.00 36.28
221.00 35.72
222.00 36.10
223.00 37.03
224.00 37.77
225.00 37.67
226.00 36.52
227.00 34.94
228.00 33.88
229.00 33.94
230.00 35.20
231.00 37.31
232.00 39.06
233.00 38.86
234.00 36.87
235.00 34.72
236.00 33.45
237.00 33.28
238.00 33.90
239.00 34.57
240.00 34.72
241.00 34.63
242.00 34.89
243.00 35.74
244.00 37.25
245.00 39.13
246.00 40.54
247.00 40.37
248.00 38.83
249.00 37.23
250.00 36.45
251.00 36.77
252.00 38.07
253.00 39.73
254.00 40.72
255.00 40.62
256.00 40.05
257.00 39.96
258.00 40.94
259.00 42.78
260.00 43.68
261.00 42.59
262.00 40.94
263.00 39.45
264.00 38.51
265.00 38.46
266.00 39.20
267.00 39.83
268.00 39.13
269.00 37.51
270.00 36.18
271.00 35.84
272.00 36.79
273.00 39.08
274.00 41.59
275.00 40.65
276.00 37.49
277.00 34.90
278.00 33.40
279.00 33.02
280.00 33.62
281.00 34.70
282.00 35.26
283.00 34.36
284.00 32.59
285.00 31.09
286.00 30.42
287.00 30.74
288.00 32.01
289.00 34.02
290.00 36.17
291.00 36.79
292.00 35.38
293.00 33.96
294.00 33.62
295.00 34.53
296.00 36.75
297.00 40.64
298.00 47.32
299.00 48.90
300.00 43.55
301.00 41.28
302.00 40.58
303.00 40.12
304.00 39.40
305.00 38.84
306.00 38.81
307.00 39.42
308.00 40.62
309.00 42.15
310.00 42.15
311.00 38.19
312.00 33.31
313.00 29.33
314.00 26.32
315.00 24.11
316.00 22.56
317.00 21.53
318.00 20.96
319.00 20.76
320.00 20.88
321.00 21.33
322.00 22.22
323.00 23.78
324.00 26.44
325.00 31.05
326.00 36.17
327.00 30.78
328.00 26.49
329.00 24.25
330.00 23.27
331.00 23.15
332.00 23.65
333.00 24.66
334.00 26.24
335.00 28.66
336.00 32.05
337.00 33.82
338.00 31.11
339.00 28.58
340.00 27.64
341.00 28.36
342.00 30.91
343.00 33.35
344.00 29.35
345.00 24.89
346.00 21.96
347.00 20.21
348.00 19.42
349.00 19.53
350.00 20.61
351.00 22.82
352.00 26.37
353.00 29.96
354.00 29.24
355.00 27.71
356.00 28.86
357.00 37.86
358.00 28.73
359.00 19.27
