NAME ATR4518R7_2140_X_CO_P45_08T_yL
FREQUENCY 2140
GAIN 15.28 dBd
TILT	ELECTRICAL
COMMENT DATE 05.08.2013 +45 degrees polarized system Lever position 08T deg
HORIZONTAL 360
0.00 0.00
1.00 0.01
2.00 0.02
3.00 0.03
4.00 0.05
5.00 0.08
6.00 0.11
7.00 0.14
8.00 0.19
9.00 0.23
10.00 0.28
11.00 0.34
12.00 0.39
13.00 0.45
14.00 0.52
15.00 0.58
16.00 0.65
17.00 0.73
18.00 0.80
19.00 0.88
20.00 0.97
21.00 1.06
22.00 1.16
23.00 1.26
24.00 1.37
25.00 1.49
26.00 1.62
27.00 1.76
28.00 1.91
29.00 2.07
30.00 2.24
31.00 2.42
32.00 2.62
33.00 2.83
34.00 3.05
35.00 3.28
36.00 3.53
37.00 3.79
38.00 4.05
39.00 4.33
40.00 4.62
41.00 4.92
42.00 5.22
43.00 5.53
44.00 5.84
45.00 6.16
46.00 6.48
47.00 6.81
48.00 7.13
49.00 7.46
50.00 7.78
51.00 8.11
52.00 8.42
53.00 8.74
54.00 9.06
55.00 9.37
56.00 9.68
57.00 9.99
58.00 10.30
59.00 10.60
60.00 10.90
61.00 11.21
62.00 11.51
63.00 11.81
64.00 12.11
65.00 12.42
66.00 12.73
67.00 13.04
68.00 13.36
69.00 13.68
70.00 14.01
71.00 14.34
72.00 14.68
73.00 15.02
74.00 15.37
75.00 15.73
76.00 16.09
77.00 16.45
78.00 16.82
79.00 17.19
80.00 17.57
81.00 17.94
82.00 18.31
83.00 18.67
84.00 19.03
85.00 19.38
86.00 19.72
87.00 20.06
88.00 20.38
89.00 20.69
90.00 20.99
91.00 21.29
92.00 21.58
93.00 21.87
94.00 22.16
95.00 22.46
96.00 22.77
97.00 23.09
98.00 23.44
99.00 23.80
100.00 24.19
101.00 24.61
102.00 25.06
103.00 25.54
104.00 26.04
105.00 26.58
106.00 27.13
107.00 27.70
108.00 28.27
109.00 28.83
110.00 29.35
111.00 29.81
112.00 30.18
113.00 30.45
114.00 30.60
115.00 30.64
116.00 30.58
117.00 30.43
118.00 30.24
119.00 30.02
120.00 29.80
121.00 29.58
122.00 29.40
123.00 29.25
124.00 29.15
125.00 29.10
126.00 29.11
127.00 29.17
128.00 29.30
129.00 29.50
130.00 29.76
131.00 30.09
132.00 30.49
133.00 30.96
134.00 31.49
135.00 32.08
136.00 32.70
137.00 33.34
138.00 33.94
139.00 34.45
140.00 34.81
141.00 34.98
142.00 34.92
143.00 34.69
144.00 34.32
145.00 33.88
146.00 33.43
147.00 33.00
148.00 32.61
149.00 32.28
150.00 32.01
151.00 31.82
152.00 31.69
153.00 31.62
154.00 31.62
155.00 31.67
156.00 31.79
157.00 31.95
158.00 32.17
159.00 32.43
160.00 32.74
161.00 33.09
162.00 33.48
163.00 33.93
164.00 34.43
165.00 35.00
166.00 35.64
167.00 36.39
168.00 37.25
169.00 38.27
170.00 39.50
171.00 41.01
172.00 42.93
173.00 45.47
174.00 49.02
175.00 53.70
176.00 53.70
177.00 48.88
178.00 45.18
179.00 42.50
180.00 40.47
181.00 38.85
182.00 37.53
183.00 36.45
184.00 35.54
185.00 34.78
186.00 34.14
187.00 33.61
188.00 33.16
189.00 32.80
190.00 32.51
191.00 32.28
192.00 32.11
193.00 31.99
194.00 31.93
195.00 31.91
196.00 31.94
197.00 32.01
198.00 32.13
199.00 32.30
200.00 32.52
201.00 32.79
202.00 33.12
203.00 33.51
204.00 33.98
205.00 34.52
206.00 35.15
207.00 35.89
208.00 36.74
209.00 37.72
210.00 38.87
211.00 40.21
212.00 41.77
213.00 43.57
214.00 45.53
215.00 47.27
216.00 47.94
217.00 47.08
218.00 45.42
219.00 43.69
220.00 42.15
221.00 40.85
222.00 39.75
223.00 38.83
224.00 38.05
225.00 37.39
226.00 36.83
227.00 36.35
228.00 35.95
229.00 35.60
230.00 35.31
231.00 35.06
232.00 34.85
233.00 34.67
234.00 34.51
235.00 34.38
236.00 34.28
237.00 34.20
238.00 34.13
239.00 34.09
240.00 34.06
241.00 34.04
242.00 34.03
243.00 34.03
244.00 34.02
245.00 34.00
246.00 33.95
247.00 33.86
248.00 33.71
249.00 33.48
250.00 33.17
251.00 32.76
252.00 32.27
253.00 31.69
254.00 31.05
255.00 30.36
256.00 29.65
257.00 28.93
258.00 28.21
259.00 27.51
260.00 26.82
261.00 26.16
262.00 25.53
263.00 24.93
264.00 24.36
265.00 23.82
266.00 23.31
267.00 22.82
268.00 22.37
269.00 21.93
270.00 21.52
271.00 21.13
272.00 20.76
273.00 20.40
274.00 20.06
275.00 19.72
276.00 19.39
277.00 19.07
278.00 18.76
279.00 18.44
280.00 18.13
281.00 17.82
282.00 17.51
283.00 17.19
284.00 16.88
285.00 16.57
286.00 16.25
287.00 15.94
288.00 15.62
289.00 15.30
290.00 14.98
291.00 14.66
292.00 14.34
293.00 14.02
294.00 13.70
295.00 13.38
296.00 13.05
297.00 12.72
298.00 12.39
299.00 12.06
300.00 11.73
301.00 11.39
302.00 11.05
303.00 10.71
304.00 10.37
305.00 10.03
306.00 9.68
307.00 9.33
308.00 8.99
309.00 8.65
310.00 8.31
311.00 7.97
312.00 7.64
313.00 7.31
314.00 6.99
315.00 6.68
316.00 6.37
317.00 6.07
318.00 5.77
319.00 5.49
320.00 5.21
321.00 4.94
322.00 4.67
323.00 4.42
324.00 4.17
325.00 3.93
326.00 3.70
327.00 3.47
328.00 3.25
329.00 3.04
330.00 2.83
331.00 2.64
332.00 2.44
333.00 2.26
334.00 2.09
335.00 1.92
336.00 1.76
337.00 1.60
338.00 1.46
339.00 1.32
340.00 1.19
341.00 1.07
342.00 0.96
343.00 0.85
344.00 0.75
345.00 0.66
346.00 0.58
347.00 0.50
348.00 0.43
349.00 0.36
350.00 0.30
351.00 0.25
352.00 0.20
353.00 0.15
354.00 0.12
355.00 0.08
356.00 0.06
357.00 0.04
358.00 0.02
359.00 0.01
VERTICAL 360
0.00 25.00
1.00 22.45
2.00 16.32
3.00 10.88
4.00 6.74
5.00 3.73
6.00 1.66
7.00 0.44
8.00 0.00
9.00 0.37
10.00 1.63
11.00 4.05
12.00 8.30
13.00 16.88
14.00 24.81
15.00 14.55
16.00 12.48
17.00 13.30
18.00 16.88
19.00 25.46
20.00 21.86
21.00 16.24
22.00 14.49
23.00 15.13
24.00 18.25
25.00 25.88
26.00 30.18
27.00 22.11
28.00 19.95
29.00 20.46
30.00 23.47
31.00 31.89
32.00 32.17
33.00 22.93
34.00 19.29
35.00 17.92
36.00 18.28
37.00 20.46
38.00 24.95
39.00 29.09
40.00 25.57
41.00 23.04
42.00 22.41
43.00 22.93
44.00 24.16
45.00 25.66
46.00 26.14
47.00 24.78
48.00 23.34
49.00 23.08
50.00 24.30
51.00 26.75
52.00 28.71
53.00 28.59
54.00 28.70
55.00 30.84
56.00 36.46
57.00 43.67
58.00 36.56
59.00 34.11
60.00 34.46
61.00 36.64
62.00 40.21
63.00 44.78
64.00 49.00
65.00 47.14
66.00 42.47
67.00 39.12
68.00 37.19
69.00 36.36
70.00 36.20
71.00 36.17
72.00 35.92
73.00 35.50
74.00 35.28
75.00 35.65
76.00 36.75
77.00 38.41
78.00 39.98
79.00 40.55
80.00 39.92
81.00 38.88
82.00 38.13
83.00 37.89
84.00 38.08
85.00 38.54
86.00 39.27
87.00 40.26
88.00 41.29
89.00 41.54
90.00 40.17
91.00 37.92
92.00 35.96
93.00 34.85
94.00 34.90
95.00 36.34
96.00 39.39
97.00 43.62
98.00 45.54
99.00 44.07
100.00 42.56
101.00 42.11
102.00 43.31
103.00 46.17
104.00 48.84
105.00 50.55
106.00 52.79
107.00 48.37
108.00 44.35
109.00 43.12
110.00 43.92
111.00 45.78
112.00 46.90
113.00 45.31
114.00 42.28
115.00 39.94
116.00 38.85
117.00 38.95
118.00 40.04
119.00 41.53
120.00 41.73
121.00 40.11
122.00 38.81
123.00 39.07
124.00 41.32
125.00 44.10
126.00 41.69
127.00 38.69
128.00 37.68
129.00 38.38
130.00 39.35
131.00 37.78
132.00 34.97
133.00 32.95
134.00 31.96
135.00 31.93
136.00 32.79
137.00 34.43
138.00 36.28
139.00 37.51
140.00 38.46
141.00 40.45
142.00 43.79
143.00 45.02
144.00 42.79
145.00 40.53
146.00 38.86
147.00 38.48
148.00 39.69
149.00 40.29
150.00 37.75
151.00 35.63
152.00 35.14
153.00 36.02
154.00 38.21
155.00 42.63
156.00 49.66
157.00 45.42
158.00 44.12
159.00 49.16
160.00 47.98
161.00 42.57
162.00 43.50
163.00 58.05
164.00 44.33
165.00 39.04
166.00 38.73
167.00 41.43
168.00 42.76
169.00 40.90
170.00 41.01
171.00 42.07
172.00 40.47
173.00 39.21
174.00 40.90
175.00 47.57
176.00 60.77
177.00 52.21
178.00 55.48
179.00 45.24
180.00 41.02
181.00 41.04
182.00 44.82
183.00 52.59
184.00 56.08
185.00 48.44
186.00 41.52
187.00 38.05
188.00 36.68
189.00 35.94
190.00 34.86
191.00 34.11
192.00 34.57
193.00 36.53
194.00 39.72
195.00 43.23
196.00 47.55
197.00 52.33
198.00 47.95
199.00 46.53
200.00 45.87
201.00 41.41
202.00 38.27
203.00 36.94
204.00 35.77
205.00 34.21
206.00 33.44
207.00 34.22
208.00 36.55
209.00 39.01
210.00 39.51
211.00 39.93
212.00 42.34
213.00 48.35
214.00 63.53
215.00 50.96
216.00 47.38
217.00 45.24
218.00 43.00
219.00 41.76
220.00 42.64
221.00 46.96
222.00 49.81
223.00 42.58
224.00 39.00
225.00 37.57
226.00 37.45
227.00 38.91
228.00 44.13
229.00 54.43
230.00 39.68
231.00 35.82
232.00 35.55
233.00 38.46
234.00 45.14
235.00 43.20
236.00 39.38
237.00 38.78
238.00 40.27
239.00 43.63
240.00 48.25
241.00 45.01
242.00 40.03
243.00 37.08
244.00 35.46
245.00 34.43
246.00 33.53
247.00 32.83
248.00 32.75
249.00 33.40
250.00 34.43
251.00 35.14
252.00 35.33
253.00 35.78
254.00 37.36
255.00 40.02
256.00 40.68
257.00 38.58
258.00 37.04
259.00 36.30
260.00 35.62
261.00 34.49
262.00 32.92
263.00 31.11
264.00 29.29
265.00 27.64
266.00 26.28
267.00 25.12
268.00 23.94
269.00 22.60
270.00 21.17
271.00 19.84
272.00 18.82
273.00 18.20
274.00 17.91
275.00 17.77
276.00 17.57
277.00 17.25
278.00 16.87
279.00 16.56
280.00 16.32
281.00 16.06
282.00 15.72
283.00 15.30
284.00 14.88
285.00 14.53
286.00 14.28
287.00 14.18
288.00 14.31
289.00 14.71
290.00 15.44
291.00 16.42
292.00 17.54
293.00 18.71
294.00 20.05
295.00 22.03
296.00 25.47
297.00 32.65
298.00 40.44
299.00 29.81
300.00 26.52
301.00 25.43
302.00 25.13
303.00 24.91
304.00 24.86
305.00 25.67
306.00 28.29
307.00 35.41
308.00 37.57
309.00 28.06
310.00 24.17
311.00 22.36
312.00 21.83
313.00 22.48
314.00 24.59
315.00 28.78
316.00 31.67
317.00 27.22
318.00 24.20
319.00 23.11
320.00 23.42
321.00 25.10
322.00 29.16
323.00 31.71
324.00 23.61
325.00 18.80
326.00 16.43
327.00 15.85
328.00 16.90
329.00 19.76
330.00 24.46
331.00 24.60
332.00 20.18
333.00 17.56
334.00 16.63
335.00 17.13
336.00 18.95
337.00 21.78
338.00 24.05
339.00 23.94
340.00 23.38
341.00 24.47
342.00 29.56
343.00 39.34
344.00 24.82
345.00 20.69
346.00 19.87
347.00 21.76
348.00 27.50
349.00 44.64
350.00 28.74
351.00 25.88
352.00 27.16
353.00 30.29
354.00 25.48
355.00 20.96
356.00 19.03
357.00 19.05
358.00 20.61
359.00 23.09
