NAME ATR4518R7_2140_X_CO_P45_00T_yL
FREQUENCY 2140
GAIN 15.52 dBd
TILT	ELECTRICAL
COMMENT DATE 05.08.2013 +45 degrees polarized system Lever position 00T deg
HORIZONTAL 360
0.00 0.00
1.00 0.00
2.00 0.00
3.00 0.00
4.00 0.01
5.00 0.02
6.00 0.04
7.00 0.06
8.00 0.09
9.00 0.12
10.00 0.16
11.00 0.20
12.00 0.25
13.00 0.31
14.00 0.37
15.00 0.44
16.00 0.51
17.00 0.59
18.00 0.68
19.00 0.78
20.00 0.88
21.00 0.99
22.00 1.11
23.00 1.23
24.00 1.37
25.00 1.51
26.00 1.66
27.00 1.82
28.00 1.99
29.00 2.17
30.00 2.36
31.00 2.55
32.00 2.76
33.00 2.98
34.00 3.20
35.00 3.44
36.00 3.68
37.00 3.92
38.00 4.18
39.00 4.44
40.00 4.70
41.00 4.97
42.00 5.24
43.00 5.51
44.00 5.78
45.00 6.05
46.00 6.32
47.00 6.59
48.00 6.85
49.00 7.11
50.00 7.36
51.00 7.61
52.00 7.86
53.00 8.10
54.00 8.34
55.00 8.57
56.00 8.81
57.00 9.05
58.00 9.29
59.00 9.52
60.00 9.77
61.00 10.02
62.00 10.28
63.00 10.54
64.00 10.82
65.00 11.10
66.00 11.40
67.00 11.71
68.00 12.03
69.00 12.37
70.00 12.72
71.00 13.09
72.00 13.47
73.00 13.86
74.00 14.27
75.00 14.69
76.00 15.12
77.00 15.56
78.00 16.00
79.00 16.45
80.00 16.90
81.00 17.34
82.00 17.77
83.00 18.20
84.00 18.61
85.00 19.01
86.00 19.38
87.00 19.75
88.00 20.09
89.00 20.42
90.00 20.74
91.00 21.06
92.00 21.37
93.00 21.69
94.00 22.03
95.00 22.38
96.00 22.77
97.00 23.19
98.00 23.65
99.00 24.16
100.00 24.72
101.00 25.35
102.00 26.05
103.00 26.83
104.00 27.69
105.00 28.65
106.00 29.71
107.00 30.90
108.00 32.22
109.00 33.71
110.00 35.37
111.00 37.26
112.00 39.41
113.00 41.93
114.00 44.96
115.00 48.71
116.00 53.17
117.00 54.89
118.00 51.55
119.00 48.12
120.00 45.44
121.00 43.24
122.00 41.38
123.00 39.77
124.00 38.34
125.00 37.10
126.00 36.01
127.00 35.06
128.00 34.25
129.00 33.56
130.00 33.00
131.00 32.54
132.00 32.19
133.00 31.93
134.00 31.76
135.00 31.65
136.00 31.59
137.00 31.56
138.00 31.54
139.00 31.50
140.00 31.42
141.00 31.29
142.00 31.08
143.00 30.82
144.00 30.51
145.00 30.17
146.00 29.83
147.00 29.50
148.00 29.22
149.00 28.99
150.00 28.82
151.00 28.73
152.00 28.73
153.00 28.81
154.00 28.98
155.00 29.24
156.00 29.60
157.00 30.04
158.00 30.57
159.00 31.15
160.00 31.77
161.00 32.38
162.00 32.90
163.00 33.28
164.00 33.44
165.00 33.38
166.00 33.14
167.00 32.78
168.00 32.38
169.00 32.00
170.00 31.68
171.00 31.45
172.00 31.32
173.00 31.29
174.00 31.40
175.00 31.63
176.00 31.99
177.00 32.49
178.00 33.14
179.00 33.95
180.00 34.91
181.00 36.03
182.00 37.28
183.00 38.58
184.00 39.75
185.00 40.50
186.00 40.61
187.00 40.12
188.00 39.32
189.00 38.46
190.00 37.67
191.00 37.02
192.00 36.52
193.00 36.15
194.00 35.91
195.00 35.77
196.00 35.71
197.00 35.69
198.00 35.70
199.00 35.69
200.00 35.64
201.00 35.53
202.00 35.34
203.00 35.10
204.00 34.80
205.00 34.48
206.00 34.17
207.00 33.88
208.00 33.63
209.00 33.45
210.00 33.34
211.00 33.31
212.00 33.37
213.00 33.53
214.00 33.80
215.00 34.20
216.00 34.73
217.00 35.43
218.00 36.32
219.00 37.46
220.00 38.91
221.00 40.83
222.00 43.44
223.00 47.17
224.00 52.01
225.00 50.82
226.00 45.84
227.00 42.24
228.00 39.65
229.00 37.68
230.00 36.14
231.00 34.90
232.00 33.90
233.00 33.10
234.00 32.46
235.00 31.98
236.00 31.62
237.00 31.40
238.00 31.28
239.00 31.29
240.00 31.40
241.00 31.61
242.00 31.91
243.00 32.28
244.00 32.68
245.00 33.07
246.00 33.38
247.00 33.52
248.00 33.43
249.00 33.08
250.00 32.52
251.00 31.82
252.00 31.05
253.00 30.28
254.00 29.55
255.00 28.87
256.00 28.27
257.00 27.73
258.00 27.26
259.00 26.86
260.00 26.52
261.00 26.22
262.00 25.97
263.00 25.73
264.00 25.52
265.00 25.30
266.00 25.07
267.00 24.81
268.00 24.53
269.00 24.20
270.00 23.84
271.00 23.44
272.00 23.01
273.00 22.56
274.00 22.10
275.00 21.64
276.00 21.17
277.00 20.72
278.00 20.28
279.00 19.85
280.00 19.45
281.00 19.06
282.00 18.70
283.00 18.35
284.00 18.01
285.00 17.70
286.00 17.39
287.00 17.09
288.00 16.80
289.00 16.50
290.00 16.21
291.00 15.91
292.00 15.61
293.00 15.29
294.00 14.97
295.00 14.63
296.00 14.28
297.00 13.92
298.00 13.55
299.00 13.17
300.00 12.79
301.00 12.40
302.00 12.01
303.00 11.61
304.00 11.22
305.00 10.83
306.00 10.44
307.00 10.06
308.00 9.68
309.00 9.30
310.00 8.93
311.00 8.56
312.00 8.19
313.00 7.83
314.00 7.47
315.00 7.11
316.00 6.76
317.00 6.40
318.00 6.06
319.00 5.72
320.00 5.38
321.00 5.05
322.00 4.72
323.00 4.41
324.00 4.10
325.00 3.81
326.00 3.52
327.00 3.25
328.00 2.98
329.00 2.74
330.00 2.50
331.00 2.28
332.00 2.07
333.00 1.87
334.00 1.69
335.00 1.52
336.00 1.36
337.00 1.21
338.00 1.08
339.00 0.96
340.00 0.85
341.00 0.75
342.00 0.65
343.00 0.57
344.00 0.50
345.00 0.43
346.00 0.37
347.00 0.32
348.00 0.27
349.00 0.23
350.00 0.19
351.00 0.16
352.00 0.13
353.00 0.10
354.00 0.08
355.00 0.06
356.00 0.04
357.00 0.02
358.00 0.01
359.00 0.00
VERTICAL 360
0.00 0.00
1.00 0.33
2.00 1.60
3.00 3.99
4.00 8.00
5.00 15.20
6.00 34.69
7.00 17.87
8.00 14.97
9.00 15.49
10.00 18.90
11.00 24.16
12.00 19.73
13.00 16.04
14.00 15.12
15.00 16.39
16.00 20.04
17.00 26.90
18.00 26.33
19.00 21.75
20.00 20.42
21.00 21.91
22.00 27.95
23.00 34.34
24.00 23.17
25.00 19.55
26.00 18.39
27.00 18.41
28.00 18.83
29.00 18.95
30.00 18.34
31.00 17.11
32.00 15.74
33.00 14.55
34.00 13.65
35.00 13.11
36.00 13.07
37.00 13.64
38.00 14.89
39.00 16.93
40.00 20.07
41.00 25.49
42.00 42.95
43.00 29.20
44.00 23.64
45.00 21.74
46.00 21.67
47.00 22.88
48.00 25.10
49.00 28.44
50.00 33.71
51.00 36.55
52.00 31.43
53.00 28.60
54.00 27.85
55.00 28.53
56.00 30.27
57.00 32.78
58.00 35.92
59.00 39.83
60.00 41.64
61.00 37.60
62.00 34.31
63.00 32.81
64.00 32.61
65.00 33.12
66.00 33.69
67.00 33.91
68.00 33.91
69.00 34.19
70.00 35.11
71.00 36.59
72.00 38.11
73.00 39.15
74.00 39.53
75.00 39.45
76.00 39.51
77.00 40.01
78.00 40.54
79.00 40.90
80.00 41.67
81.00 43.06
82.00 44.27
83.00 44.05
84.00 42.42
85.00 40.64
86.00 39.59
87.00 39.50
88.00 40.21
89.00 41.34
90.00 42.48
91.00 43.50
92.00 44.45
93.00 45.37
94.00 46.34
95.00 47.97
96.00 51.56
97.00 59.49
98.00 55.55
99.00 49.48
100.00 46.28
101.00 44.32
102.00 43.19
103.00 42.92
104.00 43.59
105.00 45.10
106.00 46.92
107.00 48.54
108.00 50.03
109.00 50.45
110.00 49.33
111.00 48.90
112.00 50.12
113.00 51.47
114.00 49.63
115.00 46.28
116.00 43.12
117.00 40.58
118.00 38.94
119.00 38.29
120.00 38.55
121.00 39.41
122.00 40.36
123.00 41.12
124.00 42.16
125.00 44.14
126.00 47.35
127.00 50.18
128.00 50.73
129.00 53.67
130.00 66.68
131.00 51.01
132.00 46.99
133.00 47.03
134.00 48.04
135.00 46.20
136.00 44.80
137.00 45.08
138.00 44.22
139.00 41.70
140.00 40.14
141.00 39.88
142.00 40.15
143.00 40.22
144.00 40.22
145.00 40.48
146.00 40.25
147.00 38.93
148.00 37.94
149.00 38.64
150.00 41.47
151.00 43.99
152.00 42.78
153.00 43.21
154.00 47.96
155.00 53.11
156.00 47.34
157.00 45.37
158.00 44.07
159.00 43.14
160.00 44.65
161.00 51.82
162.00 56.02
163.00 46.14
164.00 43.11
165.00 42.10
166.00 43.01
167.00 47.55
168.00 68.04
169.00 48.47
170.00 45.72
171.00 47.99
172.00 56.18
173.00 59.20
174.00 56.88
175.00 59.50
176.00 53.96
177.00 49.11
178.00 44.14
179.00 39.68
180.00 36.65
181.00 34.93
182.00 34.17
183.00 34.02
184.00 34.44
185.00 35.77
186.00 38.43
187.00 41.34
188.00 40.75
189.00 38.77
190.00 37.47
191.00 36.82
192.00 37.20
193.00 38.93
194.00 41.33
195.00 42.98
196.00 46.41
197.00 63.01
198.00 45.10
199.00 40.82
200.00 40.56
201.00 41.28
202.00 39.87
203.00 38.70
204.00 39.69
205.00 42.65
206.00 44.23
207.00 43.64
208.00 45.23
209.00 52.28
210.00 56.60
211.00 45.55
212.00 41.27
213.00 38.54
214.00 36.33
215.00 34.54
216.00 33.48
217.00 33.41
218.00 34.39
219.00 36.37
220.00 39.13
221.00 42.37
222.00 45.82
223.00 49.10
224.00 50.99
225.00 49.69
226.00 46.31
227.00 43.11
228.00 40.68
229.00 39.01
230.00 38.11
231.00 38.10
232.00 39.19
233.00 41.52
234.00 44.25
235.00 44.46
236.00 43.03
237.00 42.31
238.00 42.43
239.00 43.11
240.00 44.04
241.00 44.48
242.00 44.06
243.00 43.74
244.00 44.36
245.00 46.09
246.00 48.57
247.00 51.28
248.00 54.93
249.00 52.43
250.00 46.09
251.00 42.72
252.00 41.82
253.00 43.20
254.00 47.40
255.00 57.76
256.00 60.61
257.00 54.80
258.00 58.75
259.00 55.92
260.00 45.34
261.00 40.29
262.00 37.77
263.00 37.01
264.00 37.63
265.00 39.19
266.00 40.59
267.00 40.52
268.00 39.61
269.00 39.09
270.00 39.30
271.00 40.02
272.00 40.80
273.00 40.65
274.00 38.80
275.00 36.17
276.00 33.82
277.00 32.05
278.00 31.01
279.00 30.75
280.00 31.25
281.00 32.26
282.00 33.32
283.00 33.92
284.00 33.95
285.00 33.80
286.00 33.94
287.00 34.59
288.00 35.79
289.00 37.62
290.00 40.24
291.00 41.43
292.00 37.84
293.00 33.92
294.00 31.27
295.00 29.79
296.00 29.24
297.00 29.12
298.00 28.85
299.00 28.43
300.00 28.48
301.00 29.44
302.00 31.25
303.00 32.56
304.00 31.50
305.00 29.44
306.00 27.86
307.00 27.07
308.00 27.23
309.00 28.63
310.00 31.92
311.00 36.85
312.00 33.33
313.00 28.34
314.00 25.27
315.00 23.27
316.00 21.93
317.00 21.09
318.00 20.64
319.00 20.38
320.00 19.99
321.00 19.23
322.00 18.15
323.00 16.92
324.00 15.68
325.00 14.52
326.00 13.58
327.00 13.01
328.00 12.96
329.00 13.63
330.00 15.25
331.00 18.38
332.00 24.82
333.00 38.31
334.00 23.73
335.00 19.91
336.00 19.14
337.00 20.70
338.00 25.60
339.00 55.88
340.00 26.36
341.00 21.54
342.00 20.39
343.00 22.07
344.00 28.78
345.00 33.82
346.00 22.59
347.00 19.29
348.00 18.97
349.00 21.32
350.00 28.26
351.00 37.67
352.00 27.65
353.00 28.40
354.00 22.03
355.00 13.37
356.00 7.89
357.00 4.27
358.00 1.90
359.00 0.51
