NAME ATR4518R7_2535_X_CO_M45_10T_yL
FREQUENCY 2535
GAIN 15.00 dBd
TILT	ELECTRICAL
COMMENT DATE 05.08.2013 -45 degrees polarized system Lever position 10T deg
HORIZONTAL 360
0.00 0.02
1.00 0.03
2.00 0.06
3.00 0.09
4.00 0.14
5.00 0.19
6.00 0.24
7.00 0.31
8.00 0.39
9.00 0.47
10.00 0.57
11.00 0.67
12.00 0.78
13.00 0.89
14.00 1.02
15.00 1.15
16.00 1.29
17.00 1.43
18.00 1.58
19.00 1.73
20.00 1.89
21.00 2.05
22.00 2.22
23.00 2.39
24.00 2.57
25.00 2.75
26.00 2.94
27.00 3.13
28.00 3.32
29.00 3.52
30.00 3.72
31.00 3.93
32.00 4.14
33.00 4.35
34.00 4.56
35.00 4.77
36.00 4.99
37.00 5.20
38.00 5.41
39.00 5.62
40.00 5.83
41.00 6.04
42.00 6.25
43.00 6.46
44.00 6.67
45.00 6.88
46.00 7.10
47.00 7.32
48.00 7.54
49.00 7.77
50.00 8.01
51.00 8.25
52.00 8.51
53.00 8.77
54.00 9.03
55.00 9.31
56.00 9.59
57.00 9.88
58.00 10.17
59.00 10.46
60.00 10.76
61.00 11.07
62.00 11.37
63.00 11.67
64.00 11.97
65.00 12.27
66.00 12.57
67.00 12.87
68.00 13.16
69.00 13.45
70.00 13.74
71.00 14.01
72.00 14.29
73.00 14.56
74.00 14.83
75.00 15.10
76.00 15.36
77.00 15.63
78.00 15.89
79.00 16.15
80.00 16.42
81.00 16.69
82.00 16.97
83.00 17.26
84.00 17.57
85.00 17.89
86.00 18.24
87.00 18.60
88.00 18.99
89.00 19.40
90.00 19.84
91.00 20.30
92.00 20.79
93.00 21.29
94.00 21.82
95.00 22.36
96.00 22.90
97.00 23.44
98.00 23.97
99.00 24.49
100.00 24.97
101.00 25.43
102.00 25.86
103.00 26.27
104.00 26.65
105.00 27.04
106.00 27.43
107.00 27.84
108.00 28.29
109.00 28.79
110.00 29.37
111.00 30.03
112.00 30.79
113.00 31.66
114.00 32.66
115.00 33.81
116.00 35.10
117.00 36.54
118.00 38.08
119.00 39.52
120.00 40.60
121.00 40.95
122.00 40.57
123.00 39.75
124.00 38.84
125.00 38.01
126.00 37.33
127.00 36.82
128.00 36.46
129.00 36.25
130.00 36.18
131.00 36.25
132.00 36.44
133.00 36.75
134.00 37.19
135.00 37.75
136.00 38.44
137.00 39.28
138.00 40.30
139.00 41.54
140.00 43.04
141.00 44.95
142.00 47.46
143.00 51.01
144.00 56.94
145.00 66.54
146.00 56.32
147.00 51.02
148.00 47.88
149.00 45.76
150.00 44.21
151.00 43.09
152.00 42.27
153.00 41.71
154.00 41.34
155.00 41.17
156.00 41.14
157.00 41.24
158.00 41.42
159.00 41.59
160.00 41.66
161.00 41.52
162.00 41.07
163.00 40.32
164.00 39.36
165.00 38.28
166.00 37.19
167.00 36.14
168.00 35.18
169.00 34.33
170.00 33.58
171.00 32.95
172.00 32.44
173.00 32.04
174.00 31.78
175.00 31.64
176.00 31.65
177.00 31.79
178.00 32.10
179.00 32.59
180.00 33.27
181.00 34.18
182.00 35.35
183.00 36.76
184.00 38.32
185.00 39.62
186.00 39.87
187.00 38.79
188.00 37.06
189.00 35.32
190.00 33.82
191.00 32.59
192.00 31.62
193.00 30.89
194.00 30.38
195.00 30.09
196.00 30.00
197.00 30.12
198.00 30.46
199.00 31.06
200.00 31.94
201.00 33.19
202.00 34.93
203.00 37.40
204.00 41.20
205.00 48.01
206.00 50.45
207.00 42.43
208.00 38.06
209.00 35.28
210.00 33.34
211.00 31.93
212.00 30.92
213.00 30.21
214.00 29.75
215.00 29.53
216.00 29.52
217.00 29.72
218.00 30.12
219.00 30.72
220.00 31.51
221.00 32.48
222.00 33.57
223.00 34.60
224.00 35.30
225.00 35.34
226.00 34.71
227.00 33.67
228.00 32.54
229.00 31.48
230.00 30.57
231.00 29.83
232.00 29.26
233.00 28.83
234.00 28.53
235.00 28.36
236.00 28.29
237.00 28.31
238.00 28.41
239.00 28.55
240.00 28.72
241.00 28.90
242.00 29.05
243.00 29.15
244.00 29.19
245.00 29.16
246.00 29.06
247.00 28.92
248.00 28.73
249.00 28.53
250.00 28.32
251.00 28.12
252.00 27.93
253.00 27.76
254.00 27.60
255.00 27.44
256.00 27.29
257.00 27.12
258.00 26.92
259.00 26.70
260.00 26.44
261.00 26.14
262.00 25.80
263.00 25.44
264.00 25.05
265.00 24.66
266.00 24.27
267.00 23.89
268.00 23.52
269.00 23.18
270.00 22.88
271.00 22.60
272.00 22.35
273.00 22.13
274.00 21.93
275.00 21.76
276.00 21.59
277.00 21.43
278.00 21.26
279.00 21.07
280.00 20.86
281.00 20.62
282.00 20.34
283.00 20.03
284.00 19.68
285.00 19.31
286.00 18.90
287.00 18.49
288.00 18.06
289.00 17.62
290.00 17.19
291.00 16.76
292.00 16.34
293.00 15.92
294.00 15.51
295.00 15.10
296.00 14.70
297.00 14.30
298.00 13.90
299.00 13.50
300.00 13.09
301.00 12.68
302.00 12.27
303.00 11.84
304.00 11.41
305.00 10.98
306.00 10.54
307.00 10.10
308.00 9.66
309.00 9.23
310.00 8.79
311.00 8.36
312.00 7.94
313.00 7.54
314.00 7.13
315.00 6.74
316.00 6.36
317.00 5.99
318.00 5.63
319.00 5.28
320.00 4.95
321.00 4.62
322.00 4.31
323.00 4.01
324.00 3.72
325.00 3.45
326.00 3.19
327.00 2.94
328.00 2.71
329.00 2.49
330.00 2.28
331.00 2.09
332.00 1.90
333.00 1.74
334.00 1.58
335.00 1.44
336.00 1.30
337.00 1.18
338.00 1.06
339.00 0.96
340.00 0.86
341.00 0.77
342.00 0.68
343.00 0.60
344.00 0.53
345.00 0.46
346.00 0.40
347.00 0.34
348.00 0.28
349.00 0.23
350.00 0.18
351.00 0.14
352.00 0.11
353.00 0.07
354.00 0.05
355.00 0.03
356.00 0.01
357.00 0.00
358.00 0.00
359.00 0.00
VERTICAL 360
0.00 20.28
1.00 20.67
2.00 21.66
3.00 20.93
4.00 16.72
5.00 11.49
6.00 7.08
7.00 3.77
8.00 1.51
9.00 0.25
10.00 0.01
11.00 0.86
12.00 3.09
13.00 7.46
14.00 17.53
15.00 19.28
16.00 11.89
17.00 10.75
18.00 12.50
19.00 17.00
20.00 20.90
21.00 17.12
22.00 15.35
23.00 16.79
24.00 22.81
25.00 34.74
26.00 22.09
27.00 19.65
28.00 20.68
29.00 25.79
30.00 34.81
31.00 22.99
32.00 20.21
33.00 22.33
34.00 33.04
35.00 21.69
36.00 15.60
37.00 12.51
38.00 10.77
39.00 10.04
40.00 10.38
41.00 11.83
42.00 14.42
43.00 18.19
44.00 23.85
45.00 35.43
46.00 29.72
47.00 24.77
48.00 23.61
49.00 24.16
50.00 25.27
51.00 26.26
52.00 27.12
53.00 28.01
54.00 29.46
55.00 32.51
56.00 38.74
57.00 79.98
58.00 39.12
59.00 33.37
60.00 30.86
61.00 30.38
62.00 31.41
63.00 33.66
64.00 35.94
65.00 35.12
66.00 33.77
67.00 34.39
68.00 36.68
69.00 39.65
70.00 44.74
71.00 46.34
72.00 41.52
73.00 41.89
74.00 43.72
75.00 41.70
76.00 43.11
77.00 57.63
78.00 44.35
79.00 40.95
80.00 43.37
81.00 47.91
82.00 44.75
83.00 44.16
84.00 48.18
85.00 55.03
86.00 44.66
87.00 40.43
88.00 39.79
89.00 42.02
90.00 46.24
91.00 49.82
92.00 53.57
93.00 53.26
94.00 50.57
95.00 50.34
96.00 49.68
97.00 47.40
98.00 44.74
99.00 43.19
100.00 43.07
101.00 43.74
102.00 45.30
103.00 48.65
104.00 52.43
105.00 57.30
106.00 55.61
107.00 48.87
108.00 47.61
109.00 45.25
110.00 41.40
111.00 39.52
112.00 39.06
113.00 38.98
114.00 38.44
115.00 37.28
116.00 37.03
117.00 39.20
118.00 43.80
119.00 42.36
120.00 37.88
121.00 34.89
122.00 33.35
123.00 32.96
124.00 32.98
125.00 33.29
126.00 34.67
127.00 37.52
128.00 41.11
129.00 43.18
130.00 42.72
131.00 42.48
132.00 44.33
133.00 47.97
134.00 49.50
135.00 45.22
136.00 40.33
137.00 36.42
138.00 33.16
139.00 30.87
140.00 30.01
141.00 30.68
142.00 32.61
143.00 34.50
144.00 35.03
145.00 35.01
146.00 34.93
147.00 35.08
148.00 36.48
149.00 40.18
150.00 45.86
151.00 45.93
152.00 45.10
153.00 45.15
154.00 43.13
155.00 41.22
156.00 40.85
157.00 42.36
158.00 46.27
159.00 46.43
160.00 41.15
161.00 38.06
162.00 36.72
163.00 36.82
164.00 38.63
165.00 42.66
166.00 44.45
167.00 38.90
168.00 34.75
169.00 32.49
170.00 31.86
171.00 32.69
172.00 35.02
173.00 40.14
174.00 61.20
175.00 41.94
176.00 38.40
177.00 38.81
178.00 40.26
179.00 41.65
180.00 43.04
181.00 38.41
182.00 34.41
183.00 32.63
184.00 31.99
185.00 32.21
186.00 34.23
187.00 40.29
188.00 50.70
189.00 39.94
190.00 38.18
191.00 39.74
192.00 42.95
193.00 44.63
194.00 42.43
195.00 40.18
196.00 38.95
197.00 37.92
198.00 37.12
199.00 37.17
200.00 37.64
201.00 37.81
202.00 38.26
203.00 38.37
204.00 36.71
205.00 35.32
206.00 35.56
207.00 37.35
208.00 39.61
209.00 39.61
210.00 37.30
211.00 35.12
212.00 34.10
213.00 34.68
214.00 37.40
215.00 42.84
216.00 46.15
217.00 42.88
218.00 39.85
219.00 37.58
220.00 36.92
221.00 38.10
222.00 40.91
223.00 46.35
224.00 50.14
225.00 38.09
226.00 32.75
227.00 30.25
228.00 29.60
229.00 30.36
230.00 32.09
231.00 34.02
232.00 34.91
233.00 34.56
234.00 34.13
235.00 34.32
236.00 35.09
237.00 35.87
238.00 36.13
239.00 36.01
240.00 36.21
241.00 37.26
242.00 39.27
243.00 41.71
244.00 43.03
245.00 41.60
246.00 38.85
247.00 36.56
248.00 35.23
249.00 34.76
250.00 34.64
251.00 34.28
252.00 33.71
253.00 33.55
254.00 34.34
255.00 36.23
256.00 38.98
257.00 41.70
258.00 43.46
259.00 43.73
260.00 39.98
261.00 35.81
262.00 33.74
263.00 33.72
264.00 35.04
265.00 36.27
266.00 36.46
267.00 36.36
268.00 36.96
269.00 39.46
270.00 45.50
271.00 43.42
272.00 37.76
273.00 35.60
274.00 36.00
275.00 39.22
276.00 48.12
277.00 49.35
278.00 41.08
279.00 37.92
280.00 36.59
281.00 36.37
282.00 36.48
283.00 36.15
284.00 35.62
285.00 35.80
286.00 37.46
287.00 41.61
288.00 50.53
289.00 46.49
290.00 42.07
291.00 40.87
292.00 40.05
293.00 38.01
294.00 35.83
295.00 34.56
296.00 34.50
297.00 36.14
298.00 40.61
299.00 38.49
300.00 31.00
301.00 25.90
302.00 22.04
303.00 18.90
304.00 16.32
305.00 14.25
306.00 12.69
307.00 11.54
308.00 10.79
309.00 10.43
310.00 10.48
311.00 11.07
312.00 12.34
313.00 14.50
314.00 17.87
315.00 22.63
316.00 24.34
317.00 20.27
318.00 17.88
319.00 17.45
320.00 18.86
321.00 22.37
322.00 26.60
323.00 24.52
324.00 21.86
325.00 21.47
326.00 23.69
327.00 30.83
328.00 34.66
329.00 25.85
330.00 23.80
331.00 25.15
332.00 31.34
333.00 35.70
334.00 24.79
335.00 21.34
336.00 21.61
337.00 27.61
338.00 28.50
339.00 18.77
340.00 14.53
341.00 12.56
342.00 12.20
343.00 13.38
344.00 16.55
345.00 23.30
346.00 41.95
347.00 23.71
348.00 21.02
349.00 20.71
350.00 20.18
351.00 19.13
352.00 18.88
353.00 20.12
354.00 23.09
355.00 28.38
356.00 42.47
357.00 32.40
358.00 24.88
359.00 21.47
