NAME ATR4518R7_0806_X_CO_P45_04T
FREQUENCY 0806
GAIN 14.15 dBd
TILT	ELECTRICAL
COMMENT DATE 05.08.2013 +45 degrees polarized system Lever position 04T deg
HORIZONTAL 360
0.00 0.01
1.00 0.02
2.00 0.04
3.00 0.07
4.00 0.10
5.00 0.13
6.00 0.17
7.00 0.22
8.00 0.27
9.00 0.33
10.00 0.40
11.00 0.47
12.00 0.54
13.00 0.62
14.00 0.71
15.00 0.80
16.00 0.89
17.00 0.99
18.00 1.10
19.00 1.21
20.00 1.33
21.00 1.45
22.00 1.58
23.00 1.72
24.00 1.86
25.00 2.00
26.00 2.15
27.00 2.30
28.00 2.47
29.00 2.63
30.00 2.80
31.00 2.98
32.00 3.16
33.00 3.35
34.00 3.54
35.00 3.73
36.00 3.93
37.00 4.14
38.00 4.35
39.00 4.57
40.00 4.79
41.00 5.02
42.00 5.25
43.00 5.48
44.00 5.72
45.00 5.97
46.00 6.22
47.00 6.47
48.00 6.73
49.00 7.00
50.00 7.26
51.00 7.53
52.00 7.81
53.00 8.09
54.00 8.38
55.00 8.67
56.00 8.96
57.00 9.26
58.00 9.56
59.00 9.86
60.00 10.17
61.00 10.49
62.00 10.80
63.00 11.12
64.00 11.44
65.00 11.77
66.00 12.10
67.00 12.44
68.00 12.77
69.00 13.12
70.00 13.46
71.00 13.81
72.00 14.17
73.00 14.52
74.00 14.88
75.00 15.25
76.00 15.62
77.00 15.99
78.00 16.37
79.00 16.75
80.00 17.14
81.00 17.53
82.00 17.93
83.00 18.34
84.00 18.75
85.00 19.17
86.00 19.59
87.00 20.02
88.00 20.46
89.00 20.91
90.00 21.36
91.00 21.82
92.00 22.29
93.00 22.77
94.00 23.25
95.00 23.75
96.00 24.25
97.00 24.75
98.00 25.26
99.00 25.77
100.00 26.28
101.00 26.79
102.00 27.29
103.00 27.78
104.00 28.24
105.00 28.68
106.00 29.08
107.00 29.44
108.00 29.75
109.00 30.00
110.00 30.19
111.00 30.33
112.00 30.39
113.00 30.41
114.00 30.37
115.00 30.29
116.00 30.18
117.00 30.04
118.00 29.88
119.00 29.71
120.00 29.53
121.00 29.35
122.00 29.17
123.00 29.00
124.00 28.83
125.00 28.68
126.00 28.54
127.00 28.40
128.00 28.28
129.00 28.17
130.00 28.08
131.00 27.99
132.00 27.92
133.00 27.86
134.00 27.82
135.00 27.79
136.00 27.77
137.00 27.76
138.00 27.76
139.00 27.78
140.00 27.80
141.00 27.84
142.00 27.89
143.00 27.96
144.00 28.02
145.00 28.11
146.00 28.21
147.00 28.31
148.00 28.42
149.00 28.55
150.00 28.69
151.00 28.83
152.00 28.99
153.00 29.16
154.00 29.34
155.00 29.53
156.00 29.73
157.00 29.94
158.00 30.16
159.00 30.40
160.00 30.64
161.00 30.90
162.00 31.17
163.00 31.46
164.00 31.76
165.00 32.07
166.00 32.40
167.00 32.74
168.00 33.11
169.00 33.49
170.00 33.89
171.00 34.31
172.00 34.75
173.00 35.22
174.00 35.72
175.00 36.24
176.00 36.80
177.00 37.39
178.00 38.01
179.00 38.68
180.00 39.40
181.00 40.17
182.00 41.00
183.00 41.89
184.00 42.86
185.00 43.90
186.00 45.01
187.00 46.19
188.00 47.38
189.00 48.50
190.00 49.40
191.00 49.86
192.00 49.78
193.00 49.21
194.00 48.35
195.00 47.37
196.00 46.39
197.00 45.45
198.00 44.59
199.00 43.80
200.00 43.09
201.00 42.44
202.00 41.86
203.00 41.34
204.00 40.87
205.00 40.44
206.00 40.05
207.00 39.70
208.00 39.39
209.00 39.11
210.00 38.87
211.00 38.65
212.00 38.46
213.00 38.29
214.00 38.16
215.00 38.04
216.00 37.95
217.00 37.88
218.00 37.83
219.00 37.79
220.00 37.79
221.00 37.79
222.00 37.82
223.00 37.85
224.00 37.90
225.00 37.95
226.00 38.01
227.00 38.07
228.00 38.11
229.00 38.15
230.00 38.14
231.00 38.11
232.00 38.02
233.00 37.87
234.00 37.65
235.00 37.36
236.00 36.98
237.00 36.54
238.00 36.03
239.00 35.47
240.00 34.86
241.00 34.23
242.00 33.57
243.00 32.90
244.00 32.22
245.00 31.54
246.00 30.87
247.00 30.21
248.00 29.56
249.00 28.92
250.00 28.29
251.00 27.68
252.00 27.09
253.00 26.51
254.00 25.94
255.00 25.39
256.00 24.85
257.00 24.33
258.00 23.82
259.00 23.32
260.00 22.84
261.00 22.37
262.00 21.91
263.00 21.46
264.00 21.02
265.00 20.59
266.00 20.17
267.00 19.76
268.00 19.36
269.00 18.97
270.00 18.58
271.00 18.21
272.00 17.84
273.00 17.47
274.00 17.11
275.00 16.76
276.00 16.41
277.00 16.07
278.00 15.73
279.00 15.40
280.00 15.07
281.00 14.74
282.00 14.42
283.00 14.10
284.00 13.78
285.00 13.46
286.00 13.15
287.00 12.84
288.00 12.53
289.00 12.23
290.00 11.92
291.00 11.62
292.00 11.32
293.00 11.02
294.00 10.73
295.00 10.43
296.00 10.13
297.00 9.84
298.00 9.56
299.00 9.27
300.00 8.99
301.00 8.70
302.00 8.42
303.00 8.15
304.00 7.87
305.00 7.60
306.00 7.34
307.00 7.07
308.00 6.81
309.00 6.55
310.00 6.30
311.00 6.05
312.00 5.81
313.00 5.57
314.00 5.33
315.00 5.10
316.00 4.87
317.00 4.64
318.00 4.42
319.00 4.21
320.00 4.00
321.00 3.79
322.00 3.60
323.00 3.40
324.00 3.21
325.00 3.03
326.00 2.85
327.00 2.67
328.00 2.50
329.00 2.34
330.00 2.18
331.00 2.03
332.00 1.88
333.00 1.74
334.00 1.60
335.00 1.47
336.00 1.35
337.00 1.23
338.00 1.11
339.00 1.00
340.00 0.90
341.00 0.80
342.00 0.71
343.00 0.62
344.00 0.54
345.00 0.47
346.00 0.40
347.00 0.33
348.00 0.27
349.00 0.22
350.00 0.17
351.00 0.13
352.00 0.10
353.00 0.07
354.00 0.04
355.00 0.02
356.00 0.01
357.00 0.00
358.00 0.00
359.00 0.00
VERTICAL 360
0.00 2.49
1.00 1.39
2.00 0.62
3.00 0.16
4.00 0.00
5.00 0.14
6.00 0.59
7.00 1.37
8.00 2.50
9.00 4.02
10.00 6.00
11.00 8.54
12.00 11.85
13.00 16.35
14.00 23.30
15.00 39.56
16.00 28.95
17.00 25.31
18.00 25.22
19.00 27.78
20.00 35.56
21.00 37.77
22.00 27.27
23.00 23.06
24.00 20.85
25.00 19.81
26.00 19.64
27.00 20.24
28.00 21.61
29.00 23.83
30.00 27.08
31.00 31.09
32.00 32.75
33.00 30.75
34.00 29.06
35.00 28.58
36.00 29.38
37.00 31.77
38.00 36.88
39.00 39.03
40.00 31.46
41.00 26.77
42.00 23.76
43.00 21.69
44.00 20.26
45.00 19.31
46.00 18.74
47.00 18.49
48.00 18.52
49.00 18.80
50.00 19.32
51.00 20.07
52.00 21.06
53.00 22.29
54.00 23.77
55.00 25.52
56.00 27.54
57.00 29.78
58.00 32.14
59.00 34.30
60.00 35.69
61.00 35.83
62.00 35.03
63.00 33.97
64.00 33.00
65.00 32.20
66.00 31.58
67.00 31.19
68.00 31.11
69.00 31.42
70.00 32.09
71.00 33.07
72.00 34.18
73.00 35.18
74.00 35.74
75.00 35.33
76.00 33.95
77.00 32.33
78.00 31.07
79.00 30.40
80.00 30.33
81.00 30.72
82.00 31.27
83.00 31.58
84.00 31.41
85.00 30.84
86.00 30.13
87.00 29.50
88.00 29.13
89.00 29.12
90.00 29.56
91.00 30.42
92.00 31.58
93.00 32.70
94.00 33.33
95.00 33.26
96.00 32.73
97.00 32.11
98.00 31.72
99.00 31.68
100.00 32.05
101.00 32.73
102.00 33.54
103.00 34.33
104.00 35.10
105.00 36.01
106.00 37.15
107.00 38.37
108.00 39.21
109.00 39.17
110.00 38.27
111.00 36.95
112.00 35.72
113.00 34.91
114.00 34.68
115.00 35.07
116.00 36.06
117.00 37.51
118.00 39.22
119.00 40.85
120.00 42.07
121.00 42.83
122.00 43.58
123.00 45.11
124.00 48.67
125.00 55.19
126.00 48.80
127.00 43.13
128.00 40.06
129.00 38.39
130.00 37.58
131.00 37.29
132.00 37.28
133.00 37.38
134.00 37.62
135.00 38.14
136.00 39.19
137.00 41.17
138.00 44.26
139.00 45.45
140.00 41.47
141.00 37.76
142.00 35.34
143.00 33.91
144.00 33.27
145.00 33.28
146.00 33.88
147.00 35.09
148.00 36.93
149.00 39.28
150.00 40.95
151.00 39.99
152.00 37.71
153.00 35.82
154.00 34.61
155.00 34.03
156.00 33.96
157.00 34.27
158.00 34.82
159.00 35.42
160.00 35.95
161.00 36.39
162.00 36.90
163.00 37.69
164.00 39.05
165.00 41.38
166.00 45.63
167.00 56.97
168.00 51.50
169.00 43.43
170.00 39.57
171.00 37.32
172.00 36.08
173.00 35.71
174.00 35.72
175.00 36.64
176.00 38.01
177.00 38.76
178.00 37.23
179.00 35.29
180.00 33.95
181.00 33.26
182.00 33.14
183.00 33.28
184.00 33.67
185.00 34.45
186.00 35.69
187.00 37.55
188.00 40.27
189.00 44.15
190.00 46.92
191.00 43.52
192.00 39.83
193.00 37.48
194.00 36.18
195.00 35.66
196.00 35.70
197.00 36.07
198.00 36.51
199.00 36.76
200.00 36.73
201.00 36.48
202.00 36.20
203.00 36.05
204.00 36.13
205.00 36.44
206.00 36.89
207.00 37.46
208.00 38.28
209.00 39.63
210.00 41.80
211.00 44.83
212.00 47.02
213.00 46.04
214.00 44.46
215.00 43.87
216.00 44.24
217.00 45.13
218.00 45.83
219.00 45.65
220.00 44.63
221.00 43.39
222.00 42.47
223.00 42.23
224.00 42.94
225.00 44.93
226.00 48.93
227.00 55.13
228.00 50.50
229.00 45.09
230.00 41.75
231.00 39.53
232.00 38.07
233.00 37.25
234.00 37.02
235.00 37.32
236.00 37.99
237.00 38.76
238.00 39.25
239.00 39.11
240.00 38.36
241.00 37.31
242.00 36.35
243.00 35.75
244.00 35.71
245.00 36.33
246.00 37.71
247.00 39.80
248.00 42.26
249.00 44.18
250.00 44.94
251.00 45.12
252.00 44.99
253.00 44.35
254.00 43.61
255.00 43.50
256.00 44.65
257.00 47.88
258.00 56.88
259.00 55.84
260.00 46.67
261.00 42.68
262.00 40.47
263.00 39.35
264.00 39.11
265.00 39.62
266.00 40.56
267.00 40.99
268.00 40.08
269.00 38.54
270.00 37.27
271.00 36.53
272.00 36.25
273.00 36.27
274.00 36.51
275.00 36.95
276.00 37.60
277.00 38.45
278.00 39.41
279.00 40.35
280.00 41.28
281.00 42.38
282.00 43.74
283.00 45.06
284.00 45.57
285.00 44.90
286.00 43.63
287.00 42.20
288.00 40.71
289.00 39.26
290.00 38.01
291.00 37.13
292.00 36.67
293.00 36.64
294.00 36.97
295.00 37.60
296.00 38.49
297.00 39.69
298.00 41.46
299.00 43.72
300.00 43.02
301.00 37.96
302.00 33.16
303.00 29.36
304.00 26.37
305.00 24.01
306.00 22.17
307.00 20.75
308.00 19.69
309.00 18.93
310.00 18.40
311.00 18.06
312.00 17.85
313.00 17.76
314.00 17.78
315.00 17.95
316.00 18.33
317.00 19.01
318.00 20.07
319.00 21.64
320.00 23.89
321.00 27.12
322.00 31.91
323.00 38.19
324.00 37.13
325.00 33.75
326.00 32.51
327.00 32.95
328.00 34.97
329.00 38.96
330.00 46.30
331.00 50.66
332.00 46.24
333.00 46.62
334.00 48.92
335.00 42.39
336.00 36.38
337.00 32.32
338.00 29.39
339.00 27.19
340.00 25.55
341.00 24.45
342.00 23.95
343.00 24.17
344.00 25.39
345.00 28.22
346.00 34.58
347.00 37.44
348.00 28.74
349.00 24.83
350.00 23.26
351.00 23.68
352.00 27.01
353.00 33.42
354.00 22.56
355.00 15.89
356.00 11.52
357.00 8.32
358.00 5.87
359.00 3.96
