NAME ATR4518R7_2140_X_CO_P45_00T_yyR
FREQUENCY 2140
GAIN 15.43 dBd
TILT	ELECTRICAL
COMMENT DATE 05.08.2013 +45 degrees polarized system Lever position 00T deg
HORIZONTAL 360
0.00 0.21
1.00 0.17
2.00 0.14
3.00 0.10
4.00 0.07
5.00 0.05
6.00 0.03
7.00 0.02
8.00 0.01
9.00 0.00
10.00 0.01
11.00 0.02
12.00 0.03
13.00 0.06
14.00 0.09
15.00 0.14
16.00 0.19
17.00 0.25
18.00 0.33
19.00 0.42
20.00 0.51
21.00 0.63
22.00 0.75
23.00 0.89
24.00 1.05
25.00 1.21
26.00 1.40
27.00 1.59
28.00 1.81
29.00 2.03
30.00 2.28
31.00 2.53
32.00 2.80
33.00 3.08
34.00 3.38
35.00 3.69
36.00 4.00
37.00 4.33
38.00 4.67
39.00 5.01
40.00 5.37
41.00 5.73
42.00 6.09
43.00 6.46
44.00 6.83
45.00 7.21
46.00 7.60
47.00 7.99
48.00 8.38
49.00 8.78
50.00 9.19
51.00 9.60
52.00 10.03
53.00 10.47
54.00 10.91
55.00 11.38
56.00 11.85
57.00 12.34
58.00 12.85
59.00 13.37
60.00 13.90
61.00 14.45
62.00 15.01
63.00 15.58
64.00 16.15
65.00 16.73
66.00 17.30
67.00 17.87
68.00 18.42
69.00 18.95
70.00 19.47
71.00 19.96
72.00 20.43
73.00 20.88
74.00 21.32
75.00 21.74
76.00 22.15
77.00 22.57
78.00 23.00
79.00 23.45
80.00 23.92
81.00 24.42
82.00 24.96
83.00 25.54
84.00 26.16
85.00 26.84
86.00 27.58
87.00 28.37
88.00 29.22
89.00 30.14
90.00 31.12
91.00 32.16
92.00 33.27
93.00 34.43
94.00 35.63
95.00 36.84
96.00 38.03
97.00 39.16
98.00 40.16
99.00 40.98
100.00 41.56
101.00 41.91
102.00 42.02
103.00 41.93
104.00 41.68
105.00 41.31
106.00 40.85
107.00 40.33
108.00 39.79
109.00 39.26
110.00 38.76
111.00 38.31
112.00 37.94
113.00 37.66
114.00 37.49
115.00 37.43
116.00 37.50
117.00 37.73
118.00 38.12
119.00 38.71
120.00 39.54
121.00 40.68
122.00 42.21
123.00 44.36
124.00 47.53
125.00 52.97
126.00 67.08
127.00 54.07
128.00 47.88
129.00 44.38
130.00 42.02
131.00 40.32
132.00 39.06
133.00 38.15
134.00 37.51
135.00 37.12
136.00 36.96
137.00 37.03
138.00 37.35
139.00 37.92
140.00 38.81
141.00 40.10
142.00 41.94
143.00 44.66
144.00 49.05
145.00 56.41
146.00 51.89
147.00 45.74
148.00 41.99
149.00 39.39
150.00 37.45
151.00 35.94
152.00 34.76
153.00 33.83
154.00 33.10
155.00 32.56
156.00 32.17
157.00 31.92
158.00 31.81
159.00 31.83
160.00 31.99
161.00 32.26
162.00 32.67
163.00 33.21
164.00 33.91
165.00 34.75
166.00 35.78
167.00 37.01
168.00 38.48
169.00 40.22
170.00 42.27
171.00 44.55
172.00 46.60
173.00 47.31
174.00 46.27
175.00 44.55
176.00 42.90
177.00 41.53
178.00 40.43
179.00 39.56
180.00 38.86
181.00 38.32
182.00 37.89
183.00 37.55
184.00 37.29
185.00 37.09
186.00 36.94
187.00 36.84
188.00 36.77
189.00 36.74
190.00 36.75
191.00 36.80
192.00 36.88
193.00 37.01
194.00 37.17
195.00 37.38
196.00 37.64
197.00 37.94
198.00 38.29
199.00 38.68
200.00 39.11
201.00 39.57
202.00 40.07
203.00 40.58
204.00 41.11
205.00 41.65
206.00 42.19
207.00 42.75
208.00 43.32
209.00 43.91
210.00 44.55
211.00 45.26
212.00 46.07
213.00 47.02
214.00 48.17
215.00 49.62
216.00 51.48
217.00 53.97
218.00 57.51
219.00 62.12
220.00 61.65
221.00 56.82
222.00 53.16
223.00 50.52
224.00 48.51
225.00 46.95
226.00 45.70
227.00 44.71
228.00 43.91
229.00 43.30
230.00 42.84
231.00 42.54
232.00 42.36
233.00 42.32
234.00 42.40
235.00 42.60
236.00 42.90
237.00 43.26
238.00 43.64
239.00 43.93
240.00 43.99
241.00 43.72
242.00 43.06
243.00 42.07
244.00 40.91
245.00 39.67
246.00 38.44
247.00 37.27
248.00 36.17
249.00 35.16
250.00 34.21
251.00 33.34
252.00 32.55
253.00 31.81
254.00 31.14
255.00 30.52
256.00 29.95
257.00 29.42
258.00 28.94
259.00 28.49
260.00 28.08
261.00 27.69
262.00 27.34
263.00 27.01
264.00 26.70
265.00 26.41
266.00 26.14
267.00 25.87
268.00 25.62
269.00 25.38
270.00 25.14
271.00 24.89
272.00 24.64
273.00 24.38
274.00 24.11
275.00 23.81
276.00 23.49
277.00 23.15
278.00 22.78
279.00 22.38
280.00 21.96
281.00 21.51
282.00 21.04
283.00 20.55
284.00 20.05
285.00 19.54
286.00 19.02
287.00 18.51
288.00 17.99
289.00 17.48
290.00 16.98
291.00 16.49
292.00 16.01
293.00 15.55
294.00 15.10
295.00 14.66
296.00 14.24
297.00 13.84
298.00 13.44
299.00 13.07
300.00 12.70
301.00 12.34
302.00 12.00
303.00 11.66
304.00 11.34
305.00 11.02
306.00 10.71
307.00 10.39
308.00 10.09
309.00 9.79
310.00 9.49
311.00 9.19
312.00 8.89
313.00 8.59
314.00 8.30
315.00 8.00
316.00 7.71
317.00 7.41
318.00 7.12
319.00 6.83
320.00 6.54
321.00 6.25
322.00 5.97
323.00 5.69
324.00 5.42
325.00 5.15
326.00 4.88
327.00 4.63
328.00 4.38
329.00 4.13
330.00 3.90
331.00 3.67
332.00 3.45
333.00 3.24
334.00 3.03
335.00 2.84
336.00 2.65
337.00 2.48
338.00 2.31
339.00 2.15
340.00 1.99
341.00 1.85
342.00 1.71
343.00 1.58
344.00 1.46
345.00 1.34
346.00 1.23
347.00 1.12
348.00 1.02
349.00 0.93
350.00 0.84
351.00 0.76
352.00 0.68
353.00 0.61
354.00 0.54
355.00 0.48
356.00 0.42
357.00 0.36
358.00 0.31
359.00 0.26
VERTICAL 360
0.00 0.00
1.00 0.59
2.00 2.14
3.00 4.97
4.00 9.93
5.00 21.63
6.00 22.96
7.00 14.90
8.00 13.96
9.00 16.20
10.00 21.73
11.00 21.95
12.00 16.84
13.00 14.75
14.00 15.15
15.00 18.20
16.00 26.36
17.00 28.10
18.00 20.07
19.00 17.19
20.00 16.39
21.00 17.06
22.00 19.46
23.00 24.46
24.00 27.56
25.00 23.27
26.00 20.83
27.00 20.09
28.00 19.76
29.00 19.39
30.00 19.05
31.00 18.68
32.00 18.17
33.00 17.59
34.00 17.06
35.00 16.64
36.00 16.52
37.00 16.96
38.00 18.18
39.00 20.32
40.00 23.71
41.00 29.13
42.00 33.60
43.00 28.28
44.00 24.07
45.00 22.18
46.00 22.11
47.00 23.73
48.00 27.14
49.00 32.55
50.00 40.13
51.00 41.48
52.00 36.81
53.00 34.08
54.00 32.52
55.00 31.82
56.00 32.35
57.00 33.97
58.00 34.33
59.00 32.27
60.00 30.24
61.00 29.02
62.00 28.28
63.00 27.74
64.00 27.37
65.00 27.35
66.00 27.83
67.00 28.79
68.00 29.91
69.00 30.84
70.00 31.47
71.00 31.83
72.00 31.74
73.00 31.01
74.00 29.99
75.00 29.17
76.00 28.66
77.00 28.20
78.00 27.51
79.00 26.65
80.00 25.94
81.00 25.65
82.00 25.79
83.00 26.15
84.00 26.58
85.00 27.28
86.00 28.71
87.00 31.26
88.00 34.59
89.00 36.88
90.00 34.89
91.00 30.77
92.00 28.49
93.00 28.88
94.00 32.52
95.00 41.01
96.00 46.43
97.00 46.68
98.00 41.74
99.00 37.50
100.00 38.52
101.00 46.47
102.00 52.71
103.00 48.22
104.00 50.34
105.00 47.10
106.00 49.11
107.00 56.95
108.00 48.25
109.00 49.80
110.00 53.40
111.00 45.16
112.00 44.02
113.00 47.41
114.00 50.06
115.00 49.14
116.00 47.80
117.00 48.17
118.00 51.65
119.00 44.53
120.00 39.39
121.00 37.76
122.00 37.48
123.00 36.99
124.00 36.49
125.00 36.78
126.00 38.03
127.00 39.90
128.00 41.01
129.00 40.23
130.00 38.78
131.00 38.11
132.00 38.98
133.00 41.48
134.00 43.34
135.00 42.16
136.00 40.20
137.00 38.47
138.00 37.04
139.00 36.26
140.00 36.77
141.00 38.92
142.00 40.71
143.00 39.72
144.00 39.10
145.00 39.47
146.00 39.55
147.00 40.17
148.00 43.07
149.00 50.52
150.00 49.18
151.00 41.85
152.00 39.50
153.00 40.52
154.00 44.58
155.00 52.25
156.00 50.21
157.00 41.91
158.00 39.07
159.00 40.42
160.00 47.43
161.00 59.61
162.00 52.34
163.00 47.04
164.00 43.61
165.00 45.98
166.00 55.58
167.00 46.48
168.00 45.77
169.00 52.93
170.00 46.31
171.00 44.01
172.00 48.34
173.00 45.01
174.00 39.67
175.00 37.23
176.00 35.37
177.00 33.97
178.00 33.50
179.00 34.31
180.00 36.74
181.00 41.50
182.00 47.99
183.00 52.32
184.00 46.34
185.00 43.39
186.00 44.81
187.00 53.73
188.00 55.31
189.00 44.27
190.00 40.52
191.00 39.63
192.00 41.12
193.00 42.88
194.00 42.86
195.00 43.25
196.00 42.66
197.00 41.49
198.00 43.40
199.00 51.50
200.00 49.58
201.00 43.67
202.00 40.50
203.00 38.82
204.00 39.53
205.00 42.64
206.00 43.26
207.00 39.35
208.00 36.26
209.00 35.12
210.00 36.10
211.00 38.11
212.00 38.23
213.00 37.53
214.00 37.52
215.00 37.81
216.00 40.14
217.00 47.78
218.00 41.08
219.00 35.58
220.00 34.31
221.00 35.33
222.00 37.51
223.00 39.52
224.00 40.53
225.00 41.06
226.00 42.26
227.00 44.71
228.00 47.18
229.00 45.30
230.00 40.78
231.00 36.89
232.00 34.43
233.00 33.68
234.00 34.83
235.00 37.90
236.00 42.20
237.00 46.74
238.00 56.98
239.00 56.64
240.00 48.34
241.00 47.32
242.00 46.84
243.00 43.17
244.00 39.62
245.00 38.36
246.00 39.71
247.00 43.13
248.00 45.56
249.00 47.58
250.00 49.53
251.00 45.65
252.00 44.78
253.00 50.62
254.00 61.46
255.00 49.51
256.00 50.89
257.00 65.52
258.00 60.29
259.00 54.86
260.00 50.85
261.00 48.38
262.00 47.46
263.00 46.82
264.00 46.64
265.00 44.50
266.00 40.59
267.00 38.21
268.00 38.02
269.00 40.12
270.00 43.19
271.00 41.06
272.00 37.49
273.00 35.58
274.00 34.54
275.00 33.90
276.00 33.98
277.00 35.28
278.00 38.12
279.00 42.96
280.00 49.12
281.00 47.62
282.00 44.36
283.00 42.74
284.00 41.23
285.00 39.21
286.00 37.25
287.00 36.11
288.00 35.94
289.00 36.23
290.00 36.27
291.00 36.08
292.00 35.77
293.00 34.91
294.00 33.48
295.00 31.95
296.00 30.65
297.00 29.62
298.00 28.85
299.00 28.41
300.00 28.42
301.00 28.98
302.00 30.26
303.00 32.73
304.00 37.87
305.00 44.55
306.00 37.10
307.00 32.70
308.00 31.46
309.00 32.65
310.00 38.00
311.00 43.89
312.00 30.63
313.00 24.59
314.00 21.09
315.00 19.04
316.00 18.06
317.00 17.90
318.00 18.37
319.00 19.31
320.00 20.48
321.00 21.58
322.00 22.18
323.00 22.07
324.00 21.47
325.00 20.63
326.00 19.68
327.00 18.72
328.00 17.94
329.00 17.65
330.00 18.25
331.00 20.41
332.00 25.94
333.00 37.51
334.00 26.04
335.00 21.61
336.00 21.04
337.00 23.53
338.00 32.40
339.00 34.19
340.00 24.09
341.00 21.18
342.00 20.72
343.00 21.91
344.00 23.76
345.00 23.35
346.00 20.84
347.00 19.22
348.00 19.56
349.00 22.74
350.00 30.94
351.00 28.16
352.00 24.50
353.00 28.08
354.00 21.42
355.00 12.30
356.00 6.99
357.00 3.59
358.00 1.45
359.00 0.29
