NAME ATR4518R7_0847_X_CO_P45_00T
FREQUENCY 0847
GAIN 14.33 dBd
TILT	ELECTRICAL
COMMENT DATE 05.08.2013 +45 degrees polarized system Lever position 00T deg
HORIZONTAL 360
0.00 0.01
1.00 0.02
2.00 0.03
3.00 0.05
4.00 0.08
5.00 0.11
6.00 0.15
7.00 0.20
8.00 0.25
9.00 0.30
10.00 0.36
11.00 0.43
12.00 0.51
13.00 0.58
14.00 0.67
15.00 0.76
16.00 0.86
17.00 0.96
18.00 1.07
19.00 1.18
20.00 1.30
21.00 1.43
22.00 1.56
23.00 1.70
24.00 1.84
25.00 1.99
26.00 2.15
27.00 2.31
28.00 2.47
29.00 2.65
30.00 2.82
31.00 3.01
32.00 3.20
33.00 3.39
34.00 3.60
35.00 3.80
36.00 4.01
37.00 4.23
38.00 4.46
39.00 4.69
40.00 4.92
41.00 5.16
42.00 5.41
43.00 5.66
44.00 5.92
45.00 6.19
46.00 6.46
47.00 6.73
48.00 7.01
49.00 7.30
50.00 7.59
51.00 7.90
52.00 8.20
53.00 8.51
54.00 8.82
55.00 9.15
56.00 9.48
57.00 9.81
58.00 10.15
59.00 10.50
60.00 10.85
61.00 11.21
62.00 11.57
63.00 11.94
64.00 12.32
65.00 12.71
66.00 13.09
67.00 13.49
68.00 13.89
69.00 14.30
70.00 14.71
71.00 15.13
72.00 15.56
73.00 16.00
74.00 16.43
75.00 16.88
76.00 17.32
77.00 17.78
78.00 18.23
79.00 18.69
80.00 19.15
81.00 19.61
82.00 20.07
83.00 20.53
84.00 20.98
85.00 21.43
86.00 21.86
87.00 22.29
88.00 22.70
89.00 23.10
90.00 23.47
91.00 23.82
92.00 24.15
93.00 24.46
94.00 24.73
95.00 24.98
96.00 25.20
97.00 25.39
98.00 25.56
99.00 25.70
100.00 25.82
101.00 25.93
102.00 26.02
103.00 26.09
104.00 26.16
105.00 26.22
106.00 26.28
107.00 26.33
108.00 26.39
109.00 26.45
110.00 26.51
111.00 26.58
112.00 26.65
113.00 26.73
114.00 26.82
115.00 26.92
116.00 27.03
117.00 27.14
118.00 27.27
119.00 27.41
120.00 27.55
121.00 27.71
122.00 27.88
123.00 28.05
124.00 28.24
125.00 28.44
126.00 28.64
127.00 28.86
128.00 29.08
129.00 29.32
130.00 29.56
131.00 29.81
132.00 30.07
133.00 30.34
134.00 30.61
135.00 30.90
136.00 31.18
137.00 31.47
138.00 31.76
139.00 32.06
140.00 32.36
141.00 32.66
142.00 32.97
143.00 33.27
144.00 33.58
145.00 33.88
146.00 34.17
147.00 34.47
148.00 34.76
149.00 35.05
150.00 35.33
151.00 35.60
152.00 35.86
153.00 36.12
154.00 36.36
155.00 36.59
156.00 36.82
157.00 37.02
158.00 37.22
159.00 37.40
160.00 37.56
161.00 37.72
162.00 37.85
163.00 37.97
164.00 38.07
165.00 38.15
166.00 38.22
167.00 38.27
168.00 38.31
169.00 38.33
170.00 38.35
171.00 38.34
172.00 38.33
173.00 38.31
174.00 38.29
175.00 38.26
176.00 38.23
177.00 38.20
178.00 38.16
179.00 38.15
180.00 38.12
181.00 38.10
182.00 38.08
183.00 38.08
184.00 38.08
185.00 38.10
186.00 38.13
187.00 38.17
188.00 38.22
189.00 38.29
190.00 38.37
191.00 38.46
192.00 38.57
193.00 38.70
194.00 38.84
195.00 38.99
196.00 39.15
197.00 39.33
198.00 39.52
199.00 39.71
200.00 39.91
201.00 40.12
202.00 40.31
203.00 40.49
204.00 40.67
205.00 40.81
206.00 40.92
207.00 41.00
208.00 41.02
209.00 41.00
210.00 40.92
211.00 40.79
212.00 40.60
213.00 40.38
214.00 40.10
215.00 39.80
216.00 39.48
217.00 39.13
218.00 38.78
219.00 38.41
220.00 38.05
221.00 37.68
222.00 37.33
223.00 36.98
224.00 36.63
225.00 36.30
226.00 35.97
227.00 35.65
228.00 35.34
229.00 35.04
230.00 34.74
231.00 34.45
232.00 34.15
233.00 33.86
234.00 33.57
235.00 33.27
236.00 32.97
237.00 32.67
238.00 32.35
239.00 32.03
240.00 31.70
241.00 31.35
242.00 31.00
243.00 30.63
244.00 30.25
245.00 29.85
246.00 29.45
247.00 29.04
248.00 28.62
249.00 28.20
250.00 27.77
251.00 27.33
252.00 26.89
253.00 26.45
254.00 26.01
255.00 25.57
256.00 25.13
257.00 24.70
258.00 24.26
259.00 23.84
260.00 23.41
261.00 22.99
262.00 22.58
263.00 22.17
264.00 21.77
265.00 21.37
266.00 20.98
267.00 20.60
268.00 20.22
269.00 19.84
270.00 19.47
271.00 19.11
272.00 18.75
273.00 18.40
274.00 18.05
275.00 17.71
276.00 17.36
277.00 17.03
278.00 16.69
279.00 16.36
280.00 16.03
281.00 15.71
282.00 15.38
283.00 15.06
284.00 14.74
285.00 14.42
286.00 14.11
287.00 13.79
288.00 13.48
289.00 13.16
290.00 12.85
291.00 12.54
292.00 12.23
293.00 11.92
294.00 11.61
295.00 11.31
296.00 11.00
297.00 10.70
298.00 10.39
299.00 10.09
300.00 9.79
301.00 9.50
302.00 9.20
303.00 8.91
304.00 8.62
305.00 8.33
306.00 8.04
307.00 7.76
308.00 7.49
309.00 7.21
310.00 6.94
311.00 6.67
312.00 6.41
313.00 6.15
314.00 5.89
315.00 5.64
316.00 5.40
317.00 5.15
318.00 4.92
319.00 4.69
320.00 4.46
321.00 4.24
322.00 4.02
323.00 3.81
324.00 3.60
325.00 3.40
326.00 3.21
327.00 3.02
328.00 2.83
329.00 2.65
330.00 2.48
331.00 2.31
332.00 2.15
333.00 1.99
334.00 1.85
335.00 1.70
336.00 1.56
337.00 1.43
338.00 1.30
339.00 1.18
340.00 1.07
341.00 0.96
342.00 0.85
343.00 0.76
344.00 0.66
345.00 0.58
346.00 0.50
347.00 0.43
348.00 0.36
349.00 0.30
350.00 0.24
351.00 0.19
352.00 0.15
353.00 0.11
354.00 0.08
355.00 0.05
356.00 0.03
357.00 0.02
358.00 0.01
359.00 0.00
VERTICAL 360
0.00 0.00
1.00 0.19
2.00 0.71
3.00 1.57
4.00 2.81
5.00 4.50
6.00 6.71
7.00 9.63
8.00 13.58
9.00 19.30
10.00 29.28
11.00 30.39
12.00 25.44
13.00 24.89
14.00 27.16
15.00 31.49
16.00 28.39
17.00 23.30
18.00 20.31
19.00 18.73
20.00 18.18
21.00 18.48
22.00 19.59
23.00 21.67
24.00 25.15
25.00 31.28
26.00 37.77
27.00 30.88
28.00 27.70
29.00 27.02
30.00 28.13
31.00 30.23
32.00 29.60
33.00 25.58
34.00 21.80
35.00 18.80
36.00 16.46
37.00 14.69
38.00 13.47
39.00 12.74
40.00 12.49
41.00 12.63
42.00 13.06
43.00 13.69
44.00 14.43
45.00 15.29
46.00 16.36
47.00 17.77
48.00 19.60
49.00 21.86
50.00 24.40
51.00 26.93
52.00 29.26
53.00 31.66
54.00 34.47
55.00 36.03
56.00 34.31
57.00 32.71
58.00 32.90
59.00 35.24
60.00 39.72
61.00 41.18
62.00 37.14
63.00 33.71
64.00 31.55
65.00 30.97
66.00 32.36
67.00 36.06
68.00 38.62
69.00 35.44
70.00 33.40
71.00 32.96
72.00 33.27
73.00 34.13
74.00 35.58
75.00 35.98
76.00 33.73
77.00 31.19
78.00 29.46
79.00 28.49
80.00 28.19
81.00 28.52
82.00 29.15
83.00 29.44
84.00 29.20
85.00 29.02
86.00 29.29
87.00 29.79
88.00 30.06
89.00 30.16
90.00 30.70
91.00 32.14
92.00 34.46
93.00 36.90
94.00 38.10
95.00 37.55
96.00 35.92
97.00 34.31
98.00 33.38
99.00 33.14
100.00 33.46
101.00 34.40
102.00 36.38
103.00 40.03
104.00 46.47
105.00 58.25
106.00 57.07
107.00 53.03
108.00 50.16
109.00 49.33
110.00 51.62
111.00 60.66
112.00 56.23
113.00 48.67
114.00 45.94
115.00 46.00
116.00 48.90
117.00 55.49
118.00 55.23
119.00 47.33
120.00 41.44
121.00 37.45
122.00 35.05
123.00 33.81
124.00 33.22
125.00 32.70
126.00 31.88
127.00 30.81
128.00 29.81
129.00 29.28
130.00 29.46
131.00 30.42
132.00 32.05
133.00 33.99
134.00 35.63
135.00 36.30
136.00 35.86
137.00 34.73
138.00 33.47
139.00 32.52
140.00 32.16
141.00 32.38
142.00 32.99
143.00 33.80
144.00 34.96
145.00 36.84
146.00 39.11
147.00 39.57
148.00 38.12
149.00 37.07
150.00 37.02
151.00 37.66
152.00 38.27
153.00 38.10
154.00 37.39
155.00 36.93
156.00 37.00
157.00 37.44
158.00 38.03
159.00 38.97
160.00 41.00
161.00 45.54
162.00 52.91
163.00 45.62
164.00 41.30
165.00 39.55
166.00 39.12
167.00 39.36
168.00 40.07
169.00 41.61
170.00 45.33
171.00 59.14
172.00 46.35
173.00 39.89
174.00 37.24
175.00 36.57
176.00 37.05
177.00 37.59
178.00 37.47
179.00 37.39
180.00 38.15
181.00 39.27
182.00 40.88
183.00 41.62
184.00 41.09
185.00 39.88
186.00 39.10
187.00 38.84
188.00 38.60
189.00 37.78
190.00 36.42
191.00 34.91
192.00 33.54
193.00 32.42
194.00 31.55
195.00 30.92
196.00 30.53
197.00 30.43
198.00 30.78
199.00 31.72
200.00 33.39
201.00 35.75
202.00 38.38
203.00 40.14
204.00 40.09
205.00 38.97
206.00 38.17
207.00 38.47
208.00 40.33
209.00 44.05
210.00 46.79
211.00 43.25
212.00 40.02
213.00 38.29
214.00 37.51
215.00 37.04
216.00 36.28
217.00 35.24
218.00 34.36
219.00 33.84
220.00 33.44
221.00 32.69
222.00 31.47
223.00 30.19
224.00 29.23
225.00 28.66
226.00 28.34
227.00 28.06
228.00 27.72
229.00 27.42
230.00 27.37
231.00 27.70
232.00 28.44
233.00 29.38
234.00 30.09
235.00 30.15
236.00 29.62
237.00 28.94
238.00 28.51
239.00 28.49
240.00 28.96
241.00 29.92
242.00 31.29
243.00 32.91
244.00 34.53
245.00 35.82
246.00 36.04
247.00 34.78
248.00 33.20
249.00 32.35
250.00 32.51
251.00 33.60
252.00 35.34
253.00 37.09
254.00 38.03
255.00 37.89
256.00 37.15
257.00 36.38
258.00 35.85
259.00 35.69
260.00 36.13
261.00 37.73
262.00 41.62
263.00 49.19
264.00 42.90
265.00 37.95
266.00 35.58
267.00 34.27
268.00 33.69
269.00 34.33
270.00 36.87
271.00 39.31
272.00 35.59
273.00 32.24
274.00 30.84
275.00 30.84
276.00 31.87
277.00 33.92
278.00 37.06
279.00 38.78
280.00 36.34
281.00 34.32
282.00 33.98
283.00 35.18
284.00 38.06
285.00 43.67
286.00 49.95
287.00 44.09
288.00 42.13
289.00 42.76
290.00 40.92
291.00 36.64
292.00 33.47
293.00 31.54
294.00 30.54
295.00 30.28
296.00 30.58
297.00 31.04
298.00 30.99
299.00 29.87
300.00 27.91
301.00 25.73
302.00 23.69
303.00 21.96
304.00 20.51
305.00 19.26
306.00 18.13
307.00 17.06
308.00 16.07
309.00 15.24
310.00 14.66
311.00 14.38
312.00 14.41
313.00 14.73
314.00 15.26
315.00 15.89
316.00 16.52
317.00 17.15
318.00 17.88
319.00 18.87
320.00 20.26
321.00 22.21
322.00 24.80
323.00 27.99
324.00 31.46
325.00 34.49
326.00 36.49
327.00 37.58
328.00 37.84
329.00 36.84
330.00 34.54
331.00 31.76
332.00 29.18
333.00 26.97
334.00 25.14
335.00 23.68
336.00 22.63
337.00 22.05
338.00 22.08
339.00 22.85
340.00 24.61
341.00 27.98
342.00 34.83
343.00 35.86
344.00 28.19
345.00 24.51
346.00 22.92
347.00 23.07
348.00 25.37
349.00 28.89
350.00 22.79
351.00 16.52
352.00 12.15
353.00 8.88
354.00 6.32
355.00 4.29
356.00 2.69
357.00 1.48
358.00 0.64
359.00 0.15
