NAME ATR4518R7_2655_X_CO_P45_08T_yL
FREQUENCY 2655
GAIN 15.50 dBd
TILT	ELECTRICAL
COMMENT DATE 05.08.2013 +45 degrees polarized system Lever position 08T deg
HORIZONTAL 360
0.00 0.00
1.00 0.02
2.00 0.05
3.00 0.10
4.00 0.14
5.00 0.20
6.00 0.27
7.00 0.33
8.00 0.40
9.00 0.48
10.00 0.56
11.00 0.64
12.00 0.72
13.00 0.81
14.00 0.90
15.00 0.99
16.00 1.08
17.00 1.18
18.00 1.28
19.00 1.39
20.00 1.50
21.00 1.62
22.00 1.75
23.00 1.87
24.00 2.01
25.00 2.16
26.00 2.30
27.00 2.45
28.00 2.61
29.00 2.77
30.00 2.94
31.00 3.11
32.00 3.29
33.00 3.47
34.00 3.65
35.00 3.83
36.00 4.02
37.00 4.21
38.00 4.40
39.00 4.58
40.00 4.78
41.00 4.97
42.00 5.17
43.00 5.37
44.00 5.57
45.00 5.76
46.00 5.96
47.00 6.17
48.00 6.38
49.00 6.58
50.00 6.80
51.00 7.03
52.00 7.24
53.00 7.47
54.00 7.71
55.00 7.93
56.00 8.17
57.00 8.40
58.00 8.65
59.00 8.89
60.00 9.15
61.00 9.41
62.00 9.66
63.00 9.92
64.00 10.17
65.00 10.44
66.00 10.69
67.00 10.94
68.00 11.20
69.00 11.47
70.00 11.73
71.00 12.00
72.00 12.28
73.00 12.56
74.00 12.85
75.00 13.16
76.00 13.46
77.00 13.79
78.00 14.13
79.00 14.48
80.00 14.85
81.00 15.22
82.00 15.62
83.00 16.03
84.00 16.45
85.00 16.90
86.00 17.35
87.00 17.82
88.00 18.30
89.00 18.79
90.00 19.28
91.00 19.78
92.00 20.29
93.00 20.79
94.00 21.29
95.00 21.78
96.00 22.25
97.00 22.73
98.00 23.19
99.00 23.64
100.00 24.09
101.00 24.53
102.00 24.98
103.00 25.44
104.00 25.92
105.00 26.41
106.00 26.92
107.00 27.47
108.00 28.03
109.00 28.63
110.00 29.24
111.00 29.86
112.00 30.48
113.00 31.07
114.00 31.62
115.00 32.10
116.00 32.47
117.00 32.72
118.00 32.83
119.00 32.80
120.00 32.66
121.00 32.43
122.00 32.15
123.00 31.85
124.00 31.55
125.00 31.27
126.00 31.04
127.00 30.88
128.00 30.78
129.00 30.77
130.00 30.85
131.00 31.03
132.00 31.30
133.00 31.69
134.00 32.17
135.00 32.75
136.00 33.41
137.00 34.10
138.00 34.78
139.00 35.35
140.00 35.75
141.00 35.91
142.00 35.86
143.00 35.67
144.00 35.42
145.00 35.23
146.00 35.12
147.00 35.17
148.00 35.40
149.00 35.85
150.00 36.52
151.00 37.45
152.00 38.65
153.00 40.06
154.00 41.41
155.00 42.11
156.00 41.59
157.00 40.19
158.00 38.56
159.00 37.08
160.00 35.85
161.00 34.87
162.00 34.12
163.00 33.59
164.00 33.24
165.00 33.05
166.00 33.01
167.00 33.07
168.00 33.21
169.00 33.38
170.00 33.53
171.00 33.59
172.00 33.52
173.00 33.30
174.00 32.95
175.00 32.51
176.00 32.04
177.00 31.59
178.00 31.18
179.00 30.86
180.00 30.64
181.00 30.52
182.00 30.52
183.00 30.64
184.00 30.89
185.00 31.27
186.00 31.78
187.00 32.42
188.00 33.19
189.00 34.05
190.00 34.96
191.00 35.82
192.00 36.50
193.00 36.84
194.00 36.80
195.00 36.46
196.00 35.96
197.00 35.43
198.00 34.98
199.00 34.65
200.00 34.47
201.00 34.44
202.00 34.57
203.00 34.85
204.00 35.26
205.00 35.77
206.00 36.33
207.00 36.84
208.00 37.19
209.00 37.29
210.00 37.11
211.00 36.71
212.00 36.20
213.00 35.69
214.00 35.25
215.00 34.93
216.00 34.76
217.00 34.76
218.00 34.94
219.00 35.32
220.00 35.91
221.00 36.74
222.00 37.83
223.00 39.21
224.00 40.87
225.00 42.69
226.00 44.15
227.00 44.30
228.00 43.02
229.00 41.19
230.00 39.43
231.00 37.89
232.00 36.57
233.00 35.45
234.00 34.45
235.00 33.58
236.00 32.78
237.00 32.05
238.00 31.38
239.00 30.77
240.00 30.21
241.00 29.70
242.00 29.26
243.00 28.88
244.00 28.56
245.00 28.32
246.00 28.14
247.00 28.04
248.00 28.00
249.00 28.02
250.00 28.10
251.00 28.21
252.00 28.33
253.00 28.46
254.00 28.54
255.00 28.55
256.00 28.47
257.00 28.27
258.00 27.96
259.00 27.57
260.00 27.11
261.00 26.61
262.00 26.12
263.00 25.64
264.00 25.19
265.00 24.79
266.00 24.44
267.00 24.13
268.00 23.88
269.00 23.66
270.00 23.47
271.00 23.32
272.00 23.16
273.00 23.02
274.00 22.85
275.00 22.65
276.00 22.44
277.00 22.18
278.00 21.90
279.00 21.59
280.00 21.27
281.00 20.95
282.00 20.65
283.00 20.36
284.00 20.11
285.00 19.88
286.00 19.70
287.00 19.55
288.00 19.44
289.00 19.36
290.00 19.30
291.00 19.27
292.00 19.23
293.00 19.17
294.00 19.10
295.00 18.98
296.00 18.81
297.00 18.57
298.00 18.28
299.00 17.92
300.00 17.50
301.00 17.05
302.00 16.56
303.00 16.04
304.00 15.51
305.00 14.97
306.00 14.42
307.00 13.87
308.00 13.36
309.00 12.84
310.00 12.33
311.00 11.82
312.00 11.31
313.00 10.80
314.00 10.30
315.00 9.80
316.00 9.31
317.00 8.84
318.00 8.39
319.00 7.95
320.00 7.52
321.00 7.13
322.00 6.75
323.00 6.39
324.00 6.06
325.00 5.74
326.00 5.45
327.00 5.17
328.00 4.91
329.00 4.67
330.00 4.44
331.00 4.20
332.00 3.99
333.00 3.79
334.00 3.59
335.00 3.38
336.00 3.19
337.00 2.99
338.00 2.80
339.00 2.60
340.00 2.40
341.00 2.21
342.00 2.01
343.00 1.82
344.00 1.63
345.00 1.44
346.00 1.26
347.00 1.09
348.00 0.92
349.00 0.77
350.00 0.62
351.00 0.49
352.00 0.38
353.00 0.28
354.00 0.19
355.00 0.12
356.00 0.07
357.00 0.03
358.00 0.00
359.00 0.00
VERTICAL 360
0.00 19.21
1.00 19.84
2.00 19.35
3.00 14.02
4.00 8.56
5.00 4.56
6.00 1.86
7.00 0.35
8.00 0.00
9.00 0.92
10.00 3.45
11.00 8.62
12.00 23.88
13.00 14.75
14.00 9.85
15.00 9.45
16.00 12.13
17.00 19.78
18.00 26.01
19.00 17.31
20.00 16.30
21.00 19.45
22.00 29.89
23.00 23.95
24.00 19.37
25.00 19.72
26.00 25.24
27.00 36.02
28.00 22.03
29.00 18.92
30.00 19.29
31.00 23.23
32.00 33.11
33.00 22.11
34.00 16.98
35.00 14.96
36.00 14.89
37.00 16.55
38.00 20.14
39.00 26.96
40.00 45.84
41.00 27.13
42.00 22.81
43.00 21.66
44.00 22.67
45.00 25.47
46.00 29.63
47.00 34.94
48.00 48.82
49.00 37.38
50.00 31.22
51.00 29.81
52.00 31.02
53.00 33.01
54.00 34.23
55.00 34.82
56.00 33.67
57.00 32.85
58.00 33.77
59.00 35.18
60.00 36.18
61.00 37.59
62.00 38.85
63.00 39.71
64.00 39.52
65.00 37.97
66.00 36.65
67.00 35.91
68.00 36.21
69.00 37.53
70.00 38.83
71.00 40.51
72.00 42.85
73.00 43.99
74.00 46.06
75.00 49.49
76.00 50.27
77.00 47.02
78.00 43.33
79.00 43.05
80.00 45.36
81.00 48.05
82.00 48.72
83.00 45.56
84.00 46.58
85.00 54.66
86.00 51.36
87.00 54.88
88.00 39.98
89.00 35.22
90.00 35.29
91.00 38.90
92.00 41.24
93.00 42.42
94.00 41.05
95.00 36.23
96.00 35.22
97.00 37.74
98.00 43.02
99.00 47.26
100.00 46.91
101.00 45.68
102.00 44.57
103.00 43.34
104.00 44.39
105.00 47.12
106.00 45.82
107.00 44.77
108.00 43.52
109.00 41.84
110.00 41.77
111.00 42.05
112.00 41.57
113.00 41.59
114.00 41.88
115.00 41.26
116.00 39.66
117.00 38.22
118.00 38.04
119.00 39.51
120.00 42.14
121.00 43.15
122.00 42.22
123.00 42.02
124.00 42.36
125.00 42.42
126.00 41.94
127.00 41.14
128.00 41.76
129.00 45.76
130.00 45.29
131.00 40.60
132.00 39.75
133.00 38.81
134.00 35.42
135.00 33.52
136.00 33.68
137.00 34.68
138.00 34.81
139.00 34.02
140.00 32.97
141.00 32.04
142.00 31.61
143.00 32.03
144.00 33.45
145.00 35.45
146.00 36.38
147.00 34.69
148.00 32.91
149.00 32.84
150.00 33.91
151.00 34.58
152.00 35.57
153.00 37.32
154.00 36.51
155.00 35.00
156.00 34.65
157.00 34.95
158.00 35.79
159.00 35.07
160.00 32.45
161.00 31.15
162.00 31.94
163.00 34.18
164.00 36.21
165.00 38.26
166.00 43.51
167.00 54.23
168.00 38.75
169.00 32.89
170.00 30.20
171.00 29.73
172.00 30.86
173.00 32.88
174.00 34.86
175.00 35.00
176.00 34.20
177.00 35.01
178.00 38.06
179.00 42.36
180.00 44.12
181.00 42.09
182.00 39.89
183.00 39.16
184.00 41.01
185.00 47.55
186.00 47.20
187.00 44.16
188.00 48.42
189.00 44.47
190.00 36.83
191.00 32.97
192.00 31.66
193.00 32.71
194.00 34.74
195.00 34.04
196.00 32.68
197.00 32.47
198.00 32.89
199.00 33.53
200.00 33.74
201.00 33.56
202.00 34.38
203.00 36.70
204.00 39.72
205.00 41.53
206.00 40.13
207.00 39.00
208.00 40.76
209.00 41.77
210.00 37.52
211.00 35.31
212.00 35.51
213.00 36.94
214.00 38.11
215.00 39.09
216.00 40.85
217.00 43.23
218.00 44.67
219.00 43.44
220.00 41.88
221.00 41.60
222.00 41.81
223.00 40.74
224.00 38.15
225.00 35.72
226.00 34.72
227.00 35.70
228.00 38.69
229.00 41.00
230.00 39.76
231.00 39.58
232.00 41.76
233.00 44.18
234.00 42.68
235.00 41.57
236.00 43.02
237.00 47.63
238.00 52.62
239.00 49.57
240.00 49.66
241.00 56.18
242.00 55.64
243.00 49.99
244.00 48.40
245.00 45.47
246.00 42.89
247.00 42.14
248.00 42.48
249.00 44.32
250.00 51.43
251.00 48.38
252.00 42.85
253.00 43.50
254.00 49.08
255.00 50.81
256.00 48.39
257.00 43.34
258.00 40.54
259.00 42.42
260.00 49.66
261.00 45.05
262.00 43.07
263.00 43.39
264.00 41.96
265.00 41.57
266.00 42.61
267.00 44.53
268.00 49.04
269.00 44.80
270.00 40.34
271.00 38.43
272.00 36.16
273.00 34.02
274.00 33.54
275.00 35.00
276.00 37.99
277.00 41.69
278.00 44.04
279.00 40.71
280.00 38.53
281.00 39.49
282.00 42.36
283.00 43.66
284.00 43.46
285.00 41.65
286.00 39.80
287.00 38.88
288.00 37.12
289.00 33.85
290.00 30.72
291.00 28.93
292.00 28.68
293.00 29.56
294.00 30.78
295.00 31.82
296.00 32.86
297.00 34.17
298.00 34.71
299.00 33.10
300.00 31.06
301.00 29.43
302.00 27.60
303.00 24.59
304.00 20.91
305.00 17.62
306.00 15.04
307.00 13.02
308.00 11.36
309.00 10.07
310.00 9.25
311.00 9.02
312.00 9.53
313.00 11.02
314.00 13.98
315.00 20.06
316.00 27.92
317.00 16.90
318.00 13.13
319.00 12.03
320.00 12.86
321.00 15.93
322.00 23.17
323.00 23.44
324.00 17.14
325.00 15.23
326.00 16.11
327.00 20.27
328.00 35.77
329.00 22.90
330.00 17.93
331.00 17.40
332.00 20.82
333.00 35.24
334.00 21.81
335.00 16.78
336.00 15.62
337.00 17.05
338.00 21.64
339.00 28.75
340.00 22.37
341.00 19.55
342.00 20.60
343.00 26.66
344.00 29.68
345.00 21.67
346.00 19.49
347.00 20.58
348.00 25.45
349.00 36.83
350.00 28.84
351.00 27.49
352.00 33.06
353.00 39.08
354.00 28.88
355.00 27.85
356.00 34.13
357.00 33.58
358.00 23.69
359.00 20.17
