NAME ATR4518R7_0880_X_CO_P45_01T
FREQUENCY 0880
GAIN 14.58 dBd
TILT	ELECTRICAL
COMMENT DATE 05.08.2013 +45 degrees polarized system Lever position 01T deg
HORIZONTAL 360
0.00 0.02
1.00 0.01
2.00 0.00
3.00 0.01
4.00 0.01
5.00 0.03
6.00 0.05
7.00 0.08
8.00 0.11
9.00 0.15
10.00 0.20
11.00 0.25
12.00 0.31
13.00 0.38
14.00 0.45
15.00 0.53
16.00 0.61
17.00 0.71
18.00 0.80
19.00 0.91
20.00 1.02
21.00 1.14
22.00 1.26
23.00 1.39
24.00 1.53
25.00 1.67
26.00 1.82
27.00 1.98
28.00 2.14
29.00 2.31
30.00 2.48
31.00 2.66
32.00 2.85
33.00 3.05
34.00 3.25
35.00 3.45
36.00 3.67
37.00 3.88
38.00 4.11
39.00 4.34
40.00 4.58
41.00 4.82
42.00 5.07
43.00 5.33
44.00 5.59
45.00 5.85
46.00 6.13
47.00 6.40
48.00 6.69
49.00 6.98
50.00 7.28
51.00 7.58
52.00 7.88
53.00 8.20
54.00 8.52
55.00 8.84
56.00 9.17
57.00 9.50
58.00 9.84
59.00 10.19
60.00 10.54
61.00 10.90
62.00 11.26
63.00 11.63
64.00 12.00
65.00 12.38
66.00 12.76
67.00 13.16
68.00 13.56
69.00 13.96
70.00 14.37
71.00 14.78
72.00 15.20
73.00 15.63
74.00 16.06
75.00 16.51
76.00 16.95
77.00 17.40
78.00 17.86
79.00 18.33
80.00 18.80
81.00 19.27
82.00 19.75
83.00 20.23
84.00 20.72
85.00 21.20
86.00 21.69
87.00 22.18
88.00 22.66
89.00 23.13
90.00 23.60
91.00 24.05
92.00 24.48
93.00 24.90
94.00 25.29
95.00 25.65
96.00 25.99
97.00 26.29
98.00 26.56
99.00 26.79
100.00 26.98
101.00 27.14
102.00 27.27
103.00 27.37
104.00 27.45
105.00 27.50
106.00 27.54
107.00 27.56
108.00 27.58
109.00 27.58
110.00 27.59
111.00 27.59
112.00 27.59
113.00 27.60
114.00 27.61
115.00 27.63
116.00 27.66
117.00 27.70
118.00 27.75
119.00 27.80
120.00 27.87
121.00 27.95
122.00 28.05
123.00 28.15
124.00 28.27
125.00 28.40
126.00 28.55
127.00 28.71
128.00 28.89
129.00 29.08
130.00 29.28
131.00 29.51
132.00 29.75
133.00 30.01
134.00 30.29
135.00 30.59
136.00 30.91
137.00 31.25
138.00 31.62
139.00 32.01
140.00 32.43
141.00 32.87
142.00 33.35
143.00 33.86
144.00 34.39
145.00 34.97
146.00 35.58
147.00 36.23
148.00 36.91
149.00 37.63
150.00 38.37
151.00 39.12
152.00 39.86
153.00 40.54
154.00 41.12
155.00 41.53
156.00 41.72
157.00 41.67
158.00 41.38
159.00 40.92
160.00 40.34
161.00 39.70
162.00 39.04
163.00 38.38
164.00 37.75
165.00 37.15
166.00 36.58
167.00 36.06
168.00 35.58
169.00 35.13
170.00 34.72
171.00 34.34
172.00 33.99
173.00 33.68
174.00 33.39
175.00 33.14
176.00 32.91
177.00 32.70
178.00 32.52
179.00 32.36
180.00 32.23
181.00 32.12
182.00 32.03
183.00 31.96
184.00 31.90
185.00 31.87
186.00 31.86
187.00 31.86
188.00 31.88
189.00 31.92
190.00 31.97
191.00 32.05
192.00 32.13
193.00 32.23
194.00 32.35
195.00 32.48
196.00 32.62
197.00 32.77
198.00 32.94
199.00 33.11
200.00 33.30
201.00 33.49
202.00 33.69
203.00 33.89
204.00 34.10
205.00 34.31
206.00 34.52
207.00 34.72
208.00 34.93
209.00 35.12
210.00 35.30
211.00 35.47
212.00 35.63
213.00 35.77
214.00 35.90
215.00 36.00
216.00 36.08
217.00 36.14
218.00 36.18
219.00 36.19
220.00 36.18
221.00 36.14
222.00 36.08
223.00 36.00
224.00 35.90
225.00 35.78
226.00 35.63
227.00 35.48
228.00 35.30
229.00 35.11
230.00 34.91
231.00 34.69
232.00 34.47
233.00 34.23
234.00 33.98
235.00 33.73
236.00 33.47
237.00 33.21
238.00 32.94
239.00 32.67
240.00 32.39
241.00 32.11
242.00 31.83
243.00 31.55
244.00 31.27
245.00 30.98
246.00 30.70
247.00 30.41
248.00 30.11
249.00 29.81
250.00 29.51
251.00 29.21
252.00 28.89
253.00 28.57
254.00 28.25
255.00 27.92
256.00 27.57
257.00 27.23
258.00 26.87
259.00 26.50
260.00 26.13
261.00 25.74
262.00 25.35
263.00 24.96
264.00 24.55
265.00 24.14
266.00 23.73
267.00 23.31
268.00 22.89
269.00 22.47
270.00 22.04
271.00 21.61
272.00 21.19
273.00 20.76
274.00 20.34
275.00 19.92
276.00 19.50
277.00 19.09
278.00 18.67
279.00 18.27
280.00 17.86
281.00 17.46
282.00 17.07
283.00 16.68
284.00 16.29
285.00 15.91
286.00 15.53
287.00 15.16
288.00 14.80
289.00 14.43
290.00 14.08
291.00 13.72
292.00 13.38
293.00 13.03
294.00 12.69
295.00 12.36
296.00 12.03
297.00 11.70
298.00 11.38
299.00 11.06
300.00 10.74
301.00 10.43
302.00 10.13
303.00 9.82
304.00 9.53
305.00 9.23
306.00 8.94
307.00 8.65
308.00 8.37
309.00 8.08
310.00 7.81
311.00 7.53
312.00 7.26
313.00 6.99
314.00 6.74
315.00 6.48
316.00 6.22
317.00 5.97
318.00 5.73
319.00 5.49
320.00 5.25
321.00 5.02
322.00 4.79
323.00 4.56
324.00 4.34
325.00 4.13
326.00 3.92
327.00 3.71
328.00 3.51
329.00 3.32
330.00 3.13
331.00 2.94
332.00 2.76
333.00 2.59
334.00 2.42
335.00 2.25
336.00 2.09
337.00 1.94
338.00 1.79
339.00 1.65
340.00 1.51
341.00 1.38
342.00 1.26
343.00 1.14
344.00 1.02
345.00 0.92
346.00 0.81
347.00 0.72
348.00 0.63
349.00 0.54
350.00 0.47
351.00 0.39
352.00 0.33
353.00 0.27
354.00 0.21
355.00 0.17
356.00 0.12
357.00 0.09
358.00 0.06
359.00 0.04
VERTICAL 360
0.00 0.22
1.00 0.00
2.00 0.15
3.00 0.67
4.00 1.61
5.00 3.00
6.00 4.92
7.00 7.50
8.00 11.03
9.00 16.19
10.00 25.38
11.00 30.12
12.00 22.83
13.00 21.29
14.00 22.57
15.00 27.22
16.00 47.78
17.00 27.99
18.00 22.39
19.00 19.87
20.00 18.81
21.00 18.78
22.00 19.73
23.00 21.90
24.00 26.08
25.00 34.48
26.00 31.86
27.00 26.30
28.00 24.35
29.00 24.54
30.00 26.78
31.00 32.39
32.00 37.13
33.00 27.22
34.00 21.86
35.00 18.31
36.00 15.76
37.00 13.93
38.00 12.71
39.00 12.02
40.00 11.77
41.00 11.90
42.00 12.35
43.00 13.09
44.00 14.14
45.00 15.56
46.00 17.41
47.00 19.75
48.00 22.60
49.00 25.88
50.00 29.42
51.00 33.02
52.00 36.01
53.00 36.92
54.00 36.43
55.00 36.03
56.00 35.75
57.00 35.07
58.00 33.74
59.00 32.31
60.00 31.56
61.00 31.99
62.00 33.86
63.00 37.29
64.00 42.31
65.00 43.58
66.00 37.38
67.00 33.12
68.00 31.01
69.00 30.67
70.00 31.88
71.00 34.43
72.00 37.66
73.00 39.41
74.00 38.19
75.00 36.19
76.00 34.77
77.00 33.98
78.00 33.25
79.00 32.01
80.00 30.50
81.00 29.37
82.00 29.03
83.00 29.57
84.00 30.67
85.00 31.42
86.00 30.92
87.00 29.52
88.00 28.14
89.00 27.31
90.00 27.21
91.00 27.80
92.00 28.80
93.00 29.69
94.00 30.12
95.00 30.23
96.00 30.43
97.00 31.01
98.00 32.00
99.00 33.20
100.00 34.30
101.00 35.08
102.00 35.19
103.00 34.67
104.00 34.24
105.00 34.42
106.00 35.18
107.00 36.00
108.00 36.13
109.00 35.38
110.00 34.40
111.00 33.88
112.00 34.17
113.00 35.24
114.00 36.48
115.00 36.55
116.00 35.26
117.00 33.92
118.00 33.22
119.00 33.23
120.00 33.85
121.00 34.85
122.00 35.78
123.00 36.03
124.00 35.88
125.00 36.25
126.00 37.43
127.00 38.55
128.00 38.57
129.00 38.43
130.00 39.20
131.00 40.79
132.00 42.27
133.00 42.56
134.00 41.89
135.00 41.58
136.00 42.40
137.00 42.69
138.00 39.67
139.00 36.20
140.00 33.73
141.00 32.08
142.00 31.02
143.00 30.52
144.00 30.59
145.00 31.14
146.00 32.02
147.00 33.07
148.00 34.24
149.00 35.66
150.00 37.50
151.00 39.54
152.00 40.57
153.00 39.67
154.00 37.84
155.00 36.01
156.00 34.68
157.00 34.18
158.00 34.62
159.00 35.85
160.00 37.38
161.00 38.28
162.00 38.07
163.00 37.42
164.00 37.09
165.00 37.42
166.00 38.44
167.00 40.23
168.00 43.27
169.00 49.05
170.00 52.11
171.00 44.74
172.00 40.78
173.00 38.54
174.00 37.10
175.00 35.88
176.00 34.68
177.00 33.58
178.00 32.67
179.00 31.99
180.00 31.62
181.00 31.56
182.00 31.88
183.00 32.63
184.00 33.80
185.00 35.22
186.00 36.58
187.00 37.60
188.00 38.62
189.00 40.14
190.00 41.02
191.00 38.90
192.00 35.96
193.00 33.77
194.00 32.30
195.00 31.34
196.00 30.71
197.00 30.38
198.00 30.41
199.00 30.98
200.00 32.23
201.00 34.25
202.00 37.20
203.00 41.67
204.00 50.23
205.00 47.19
206.00 40.60
207.00 37.69
208.00 36.72
209.00 37.28
210.00 39.40
211.00 43.49
212.00 49.17
213.00 48.50
214.00 46.03
215.00 45.84
216.00 47.39
217.00 49.30
218.00 49.29
219.00 49.03
220.00 52.07
221.00 64.43
222.00 47.29
223.00 41.03
224.00 37.51
225.00 35.23
226.00 33.65
227.00 32.57
228.00 31.85
229.00 31.27
230.00 30.53
231.00 29.63
232.00 28.89
233.00 28.60
234.00 28.90
235.00 29.73
236.00 31.05
237.00 32.80
238.00 34.25
239.00 33.87
240.00 32.47
241.00 31.84
242.00 32.55
243.00 34.70
244.00 38.34
245.00 43.72
246.00 54.20
247.00 52.35
248.00 43.13
249.00 38.88
250.00 36.61
251.00 35.75
252.00 36.01
253.00 36.88
254.00 37.59
255.00 37.75
256.00 37.40
257.00 36.58
258.00 35.85
259.00 35.93
260.00 36.96
261.00 38.42
262.00 39.97
263.00 42.01
264.00 42.35
265.00 39.18
266.00 36.72
267.00 35.54
268.00 34.71
269.00 33.86
270.00 33.57
271.00 34.40
272.00 36.23
273.00 37.78
274.00 37.21
275.00 35.29
276.00 33.41
277.00 32.29
278.00 32.25
279.00 33.37
280.00 35.39
281.00 37.37
282.00 37.60
283.00 36.13
284.00 34.68
285.00 34.17
286.00 34.82
287.00 36.39
288.00 37.91
289.00 38.29
290.00 38.01
291.00 38.00
292.00 38.48
293.00 38.68
294.00 37.08
295.00 34.55
296.00 32.64
297.00 31.68
298.00 31.55
299.00 32.05
300.00 33.02
301.00 34.50
302.00 36.90
303.00 40.86
304.00 39.06
305.00 32.55
306.00 28.09
307.00 25.06
308.00 22.91
309.00 21.30
310.00 20.05
311.00 18.99
312.00 18.01
313.00 17.06
314.00 16.17
315.00 15.45
316.00 14.99
317.00 14.87
318.00 15.11
319.00 15.72
320.00 16.60
321.00 17.64
322.00 18.68
323.00 19.70
324.00 20.86
325.00 22.36
326.00 24.45
327.00 27.28
328.00 30.71
329.00 33.77
330.00 35.32
331.00 36.06
332.00 36.76
333.00 36.70
334.00 34.41
335.00 30.77
336.00 27.48
337.00 25.00
338.00 23.30
339.00 22.32
340.00 22.02
341.00 22.46
342.00 23.79
343.00 26.56
344.00 32.44
345.00 38.17
346.00 28.43
347.00 24.08
348.00 22.21
349.00 22.20
350.00 24.41
351.00 27.36
352.00 20.86
353.00 14.68
354.00 10.40
355.00 7.25
356.00 4.88
357.00 3.08
358.00 1.74
359.00 0.80
