NAME ATR4518R7_2655_X_CO_P45_10T_yyR
FREQUENCY 2655
GAIN 15.06 dBd
TILT	ELECTRICAL
COMMENT DATE 05.08.2013 +45 degrees polarized system Lever position 10T deg
HORIZONTAL 360
0.00 0.01
1.00 0.03
2.00 0.05
3.00 0.08
4.00 0.13
5.00 0.18
6.00 0.23
7.00 0.30
8.00 0.38
9.00 0.47
10.00 0.56
11.00 0.67
12.00 0.79
13.00 0.91
14.00 1.05
15.00 1.19
16.00 1.34
17.00 1.49
18.00 1.65
19.00 1.82
20.00 1.98
21.00 2.15
22.00 2.32
23.00 2.50
24.00 2.67
25.00 2.84
26.00 3.01
27.00 3.18
28.00 3.36
29.00 3.53
30.00 3.70
31.00 3.88
32.00 4.06
33.00 4.24
34.00 4.43
35.00 4.63
36.00 4.84
37.00 5.05
38.00 5.28
39.00 5.52
40.00 5.77
41.00 6.03
42.00 6.30
43.00 6.59
44.00 6.90
45.00 7.21
46.00 7.54
47.00 7.89
48.00 8.25
49.00 8.63
50.00 9.01
51.00 9.41
52.00 9.83
53.00 10.25
54.00 10.70
55.00 11.16
56.00 11.63
57.00 12.11
58.00 12.61
59.00 13.12
60.00 13.65
61.00 14.20
62.00 14.75
63.00 15.33
64.00 15.91
65.00 16.51
66.00 17.13
67.00 17.75
68.00 18.39
69.00 19.04
70.00 19.70
71.00 20.37
72.00 21.05
73.00 21.74
74.00 22.45
75.00 23.18
76.00 23.92
77.00 24.69
78.00 25.48
79.00 26.29
80.00 27.12
81.00 27.94
82.00 28.75
83.00 29.51
84.00 30.17
85.00 30.70
86.00 31.06
87.00 31.25
88.00 31.30
89.00 31.24
90.00 31.14
91.00 31.04
92.00 30.99
93.00 31.00
94.00 31.11
95.00 31.32
96.00 31.67
97.00 32.16
98.00 32.79
99.00 33.60
100.00 34.56
101.00 35.64
102.00 36.76
103.00 37.66
104.00 38.00
105.00 37.59
106.00 36.60
107.00 35.37
108.00 34.16
109.00 33.07
110.00 32.15
111.00 31.40
112.00 30.82
113.00 30.39
114.00 30.11
115.00 29.99
116.00 30.00
117.00 30.17
118.00 30.49
119.00 30.98
120.00 31.64
121.00 32.49
122.00 33.54
123.00 34.82
124.00 36.30
125.00 37.90
126.00 39.28
127.00 39.87
128.00 39.35
129.00 38.13
130.00 36.77
131.00 35.55
132.00 34.55
133.00 33.77
134.00 33.20
135.00 32.83
136.00 32.63
137.00 32.61
138.00 32.75
139.00 33.06
140.00 33.52
141.00 34.14
142.00 34.94
143.00 35.92
144.00 37.10
145.00 38.50
146.00 40.13
147.00 42.04
148.00 44.22
149.00 46.63
150.00 49.00
151.00 50.73
152.00 51.31
153.00 51.05
154.00 50.64
155.00 50.38
156.00 50.26
157.00 50.10
158.00 49.59
159.00 48.54
160.00 47.07
161.00 45.43
162.00 43.82
163.00 42.36
164.00 41.07
165.00 39.96
166.00 39.02
167.00 38.24
168.00 37.61
169.00 37.12
170.00 36.75
171.00 36.52
172.00 36.40
173.00 36.41
174.00 36.54
175.00 36.79
176.00 37.18
177.00 37.72
178.00 38.42
179.00 39.31
180.00 40.43
181.00 41.84
182.00 43.65
183.00 46.04
184.00 49.41
185.00 54.76
186.00 62.24
187.00 55.45
188.00 50.29
189.00 47.21
190.00 45.16
191.00 43.73
192.00 42.74
193.00 42.10
194.00 41.75
195.00 41.66
196.00 41.83
197.00 42.22
198.00 42.83
199.00 43.57
200.00 44.24
201.00 44.46
202.00 43.88
203.00 42.57
204.00 40.91
205.00 39.22
206.00 37.66
207.00 36.27
208.00 35.06
209.00 34.02
210.00 33.12
211.00 32.37
212.00 31.74
213.00 31.23
214.00 30.84
215.00 30.55
216.00 30.36
217.00 30.26
218.00 30.26
219.00 30.36
220.00 30.55
221.00 30.82
222.00 31.19
223.00 31.64
224.00 32.16
225.00 32.76
226.00 33.41
227.00 34.06
228.00 34.66
229.00 35.13
230.00 35.37
231.00 35.32
232.00 35.00
233.00 34.45
234.00 33.76
235.00 33.02
236.00 32.28
237.00 31.59
238.00 30.95
239.00 30.37
240.00 29.87
241.00 29.43
242.00 29.07
243.00 28.76
244.00 28.51
245.00 28.32
246.00 28.18
247.00 28.08
248.00 28.02
249.00 27.99
250.00 28.00
251.00 28.02
252.00 28.07
253.00 28.12
254.00 28.19
255.00 28.26
256.00 28.32
257.00 28.37
258.00 28.41
259.00 28.42
260.00 28.39
261.00 28.32
262.00 28.20
263.00 28.02
264.00 27.76
265.00 27.44
266.00 27.05
267.00 26.60
268.00 26.10
269.00 25.55
270.00 24.98
271.00 24.39
272.00 23.79
273.00 23.20
274.00 22.61
275.00 22.05
276.00 21.50
277.00 20.97
278.00 20.46
279.00 19.98
280.00 19.52
281.00 19.08
282.00 18.66
283.00 18.26
284.00 17.87
285.00 17.50
286.00 17.13
287.00 16.78
288.00 16.42
289.00 16.07
290.00 15.72
291.00 15.37
292.00 15.01
293.00 14.64
294.00 14.27
295.00 13.90
296.00 13.53
297.00 13.14
298.00 12.77
299.00 12.38
300.00 12.00
301.00 11.63
302.00 11.25
303.00 10.88
304.00 10.51
305.00 10.15
306.00 9.80
307.00 9.45
308.00 9.11
309.00 8.78
310.00 8.45
311.00 8.13
312.00 7.81
313.00 7.51
314.00 7.21
315.00 6.91
316.00 6.62
317.00 6.34
318.00 6.06
319.00 5.78
320.00 5.51
321.00 5.24
322.00 4.98
323.00 4.72
324.00 4.46
325.00 4.21
326.00 3.97
327.00 3.73
328.00 3.49
329.00 3.26
330.00 3.04
331.00 2.82
332.00 2.61
333.00 2.40
334.00 2.21
335.00 2.02
336.00 1.83
337.00 1.66
338.00 1.49
339.00 1.34
340.00 1.19
341.00 1.05
342.00 0.93
343.00 0.81
344.00 0.70
345.00 0.60
346.00 0.50
347.00 0.42
348.00 0.35
349.00 0.28
350.00 0.22
351.00 0.17
352.00 0.12
353.00 0.09
354.00 0.06
355.00 0.03
356.00 0.01
357.00 0.00
358.00 0.00
359.00 0.00
VERTICAL 360
0.00 31.15
1.00 28.54
2.00 26.13
3.00 30.17
4.00 29.06
5.00 14.93
6.00 8.32
7.00 4.17
8.00 1.55
9.00 0.21
10.00 0.10
11.00 1.34
12.00 4.25
13.00 9.91
14.00 21.87
15.00 15.66
16.00 11.40
17.00 11.79
18.00 16.65
19.00 30.59
20.00 17.48
21.00 14.11
22.00 14.68
23.00 18.67
24.00 27.86
25.00 21.74
26.00 17.25
27.00 17.68
28.00 23.82
29.00 32.15
30.00 20.87
31.00 18.71
32.00 19.61
33.00 23.16
34.00 27.83
35.00 22.08
36.00 18.22
37.00 17.34
38.00 17.50
39.00 17.11
40.00 17.00
41.00 18.34
42.00 20.42
43.00 21.48
44.00 23.05
45.00 27.46
46.00 27.64
47.00 23.41
48.00 22.71
49.00 25.38
50.00 29.89
51.00 27.74
52.00 25.78
53.00 26.06
54.00 24.85
55.00 23.22
56.00 23.93
57.00 27.37
58.00 31.08
59.00 31.03
60.00 32.26
61.00 39.03
62.00 46.08
63.00 37.66
64.00 39.48
65.00 47.55
66.00 41.97
67.00 39.54
68.00 40.80
69.00 43.84
70.00 38.65
71.00 34.91
72.00 35.05
73.00 37.96
74.00 44.39
75.00 39.09
76.00 32.51
77.00 31.31
78.00 34.27
79.00 38.75
80.00 38.49
81.00 40.47
82.00 38.23
83.00 33.86
84.00 33.21
85.00 35.60
86.00 39.56
87.00 38.57
88.00 32.86
89.00 28.77
90.00 27.00
91.00 26.88
92.00 27.19
93.00 27.35
94.00 27.85
95.00 28.27
96.00 28.52
97.00 30.06
98.00 33.91
99.00 36.76
100.00 32.78
101.00 29.19
102.00 27.86
103.00 28.87
104.00 31.69
105.00 34.22
106.00 35.99
107.00 38.09
108.00 38.72
109.00 38.58
110.00 37.27
111.00 36.48
112.00 37.51
113.00 36.38
114.00 33.83
115.00 33.24
116.00 34.82
117.00 38.18
118.00 38.02
119.00 36.41
120.00 42.34
121.00 42.55
122.00 33.13
123.00 32.36
124.00 37.82
125.00 54.94
126.00 46.65
127.00 47.19
128.00 37.58
129.00 37.79
130.00 47.88
131.00 41.89
132.00 44.21
133.00 45.48
134.00 35.39
135.00 35.10
136.00 37.02
137.00 34.17
138.00 32.76
139.00 33.25
140.00 33.94
141.00 33.05
142.00 30.26
143.00 29.12
144.00 30.78
145.00 34.54
146.00 37.06
147.00 36.63
148.00 35.25
149.00 35.43
150.00 39.19
151.00 40.27
152.00 34.18
153.00 32.14
154.00 33.17
155.00 34.85
156.00 35.18
157.00 36.70
158.00 37.15
159.00 34.55
160.00 33.64
161.00 34.31
162.00 35.13
163.00 35.12
164.00 34.25
165.00 33.85
166.00 35.32
167.00 40.29
168.00 47.87
169.00 42.00
170.00 39.27
171.00 37.65
172.00 36.80
173.00 37.72
174.00 40.71
175.00 49.63
176.00 43.37
177.00 35.92
178.00 33.98
179.00 35.09
180.00 38.47
181.00 43.75
182.00 51.10
183.00 49.24
184.00 42.33
185.00 38.73
186.00 37.32
187.00 37.13
188.00 35.79
189.00 33.00
190.00 31.33
191.00 31.75
192.00 34.86
193.00 42.46
194.00 38.95
195.00 33.63
196.00 33.18
197.00 35.51
198.00 37.37
199.00 38.26
200.00 40.31
201.00 41.13
202.00 41.21
203.00 38.09
204.00 34.67
205.00 33.34
206.00 33.11
207.00 33.98
208.00 37.31
209.00 45.38
210.00 62.31
211.00 56.76
212.00 45.70
213.00 41.52
214.00 39.99
215.00 38.55
216.00 37.59
217.00 38.14
218.00 39.86
219.00 40.22
220.00 37.53
221.00 35.25
222.00 34.65
223.00 33.53
224.00 30.96
225.00 29.45
226.00 29.53
227.00 30.29
228.00 30.80
229.00 30.98
230.00 31.32
231.00 32.66
232.00 35.03
233.00 36.87
234.00 38.40
235.00 41.54
236.00 46.16
237.00 45.06
238.00 39.49
239.00 36.50
240.00 35.47
241.00 36.09
242.00 38.82
243.00 44.49
244.00 54.96
245.00 41.73
246.00 35.16
247.00 32.64
248.00 32.39
249.00 33.09
250.00 33.60
251.00 34.29
252.00 36.78
253.00 44.02
254.00 44.48
255.00 38.56
256.00 38.73
257.00 44.59
258.00 51.96
259.00 40.38
260.00 37.02
261.00 36.96
262.00 38.68
263.00 38.51
264.00 36.63
265.00 36.51
266.00 39.01
267.00 44.60
268.00 52.55
269.00 48.45
270.00 40.18
271.00 35.87
272.00 34.57
273.00 36.20
274.00 43.08
275.00 48.14
276.00 36.86
277.00 33.97
278.00 34.97
279.00 40.93
280.00 49.48
281.00 40.12
282.00 37.27
283.00 35.99
284.00 34.50
285.00 32.61
286.00 31.54
287.00 31.68
288.00 31.92
289.00 31.34
290.00 30.39
291.00 29.42
292.00 29.06
293.00 29.84
294.00 31.44
295.00 33.02
296.00 34.74
297.00 37.09
298.00 35.23
299.00 31.11
300.00 29.30
301.00 29.35
302.00 29.86
303.00 29.96
304.00 30.54
305.00 32.37
306.00 31.40
307.00 24.95
308.00 19.50
309.00 15.54
310.00 12.58
311.00 10.40
312.00 9.01
313.00 8.44
314.00 8.79
315.00 10.13
316.00 12.66
317.00 17.11
318.00 26.80
319.00 25.32
320.00 17.79
321.00 15.31
322.00 15.13
323.00 17.12
324.00 23.31
325.00 37.48
326.00 20.91
327.00 17.86
328.00 18.75
329.00 23.91
330.00 28.67
331.00 20.46
332.00 17.51
333.00 18.31
334.00 25.06
335.00 31.23
336.00 19.06
337.00 16.49
338.00 18.03
339.00 28.90
340.00 24.22
341.00 16.28
342.00 12.84
343.00 11.75
344.00 12.52
345.00 15.04
346.00 19.26
347.00 23.09
348.00 19.10
349.00 17.17
350.00 18.82
351.00 24.96
352.00 41.68
353.00 26.55
354.00 23.11
355.00 22.37
356.00 22.97
357.00 24.44
358.00 26.54
359.00 29.29
