NAME ATR4518R7_1850_X_CO_M45_07T_yyR
FREQUENCY 1850
GAIN 15.09 dBd
TILT	ELECTRICAL
COMMENT DATE 05.08.2013 -45 degrees polarized system Lever position 07T deg
HORIZONTAL 360
0.00 0.13
1.00 0.10
2.00 0.07
3.00 0.05
4.00 0.03
5.00 0.01
6.00 0.00
7.00 0.00
8.00 0.00
9.00 0.01
10.00 0.02
11.00 0.04
12.00 0.07
13.00 0.10
14.00 0.15
15.00 0.19
16.00 0.25
17.00 0.31
18.00 0.39
19.00 0.47
20.00 0.56
21.00 0.65
22.00 0.76
23.00 0.88
24.00 1.01
25.00 1.14
26.00 1.29
27.00 1.44
28.00 1.61
29.00 1.79
30.00 1.97
31.00 2.17
32.00 2.38
33.00 2.59
34.00 2.82
35.00 3.06
36.00 3.31
37.00 3.56
38.00 3.83
39.00 4.11
40.00 4.39
41.00 4.69
42.00 4.99
43.00 5.30
44.00 5.62
45.00 5.95
46.00 6.29
47.00 6.64
48.00 7.00
49.00 7.36
50.00 7.73
51.00 8.11
52.00 8.49
53.00 8.89
54.00 9.29
55.00 9.69
56.00 10.11
57.00 10.53
58.00 10.95
59.00 11.39
60.00 11.82
61.00 12.27
62.00 12.72
63.00 13.17
64.00 13.62
65.00 14.09
66.00 14.55
67.00 15.01
68.00 15.48
69.00 15.95
70.00 16.42
71.00 16.89
72.00 17.36
73.00 17.84
74.00 18.31
75.00 18.78
76.00 19.26
77.00 19.74
78.00 20.23
79.00 20.72
80.00 21.22
81.00 21.73
82.00 22.25
83.00 22.79
84.00 23.35
85.00 23.93
86.00 24.54
87.00 25.17
88.00 25.84
89.00 26.54
90.00 27.29
91.00 28.07
92.00 28.90
93.00 29.76
94.00 30.66
95.00 31.59
96.00 32.50
97.00 33.39
98.00 34.17
99.00 34.79
100.00 35.19
101.00 35.35
102.00 35.28
103.00 35.04
104.00 34.68
105.00 34.28
106.00 33.87
107.00 33.47
108.00 33.11
109.00 32.80
110.00 32.54
111.00 32.32
112.00 32.15
113.00 32.03
114.00 31.93
115.00 31.87
116.00 31.84
117.00 31.83
118.00 31.84
119.00 31.86
120.00 31.89
121.00 31.93
122.00 31.97
123.00 32.01
124.00 32.05
125.00 32.09
126.00 32.14
127.00 32.20
128.00 32.28
129.00 32.37
130.00 32.48
131.00 32.63
132.00 32.81
133.00 33.03
134.00 33.29
135.00 33.60
136.00 33.97
137.00 34.40
138.00 34.88
139.00 35.42
140.00 36.01
141.00 36.65
142.00 37.31
143.00 37.97
144.00 38.57
145.00 39.05
146.00 39.34
147.00 39.41
148.00 39.25
149.00 38.90
150.00 38.42
151.00 37.90
152.00 37.37
153.00 36.86
154.00 36.42
155.00 36.03
156.00 35.72
157.00 35.48
158.00 35.32
159.00 35.24
160.00 35.24
161.00 35.31
162.00 35.46
163.00 35.69
164.00 36.00
165.00 36.38
166.00 36.86
167.00 37.42
168.00 38.07
169.00 38.81
170.00 39.66
171.00 40.62
172.00 41.68
173.00 42.86
174.00 44.16
175.00 45.57
176.00 47.01
177.00 48.41
178.00 49.55
179.00 50.21
180.00 50.24
181.00 49.74
182.00 48.93
183.00 47.99
184.00 47.01
185.00 46.06
186.00 45.13
187.00 44.21
188.00 43.33
189.00 42.47
190.00 41.65
191.00 40.86
192.00 40.12
193.00 39.43
194.00 38.80
195.00 38.21
196.00 37.69
197.00 37.23
198.00 36.82
199.00 36.47
200.00 36.19
201.00 35.96
202.00 35.78
203.00 35.66
204.00 35.59
205.00 35.56
206.00 35.56
207.00 35.60
208.00 35.65
209.00 35.70
210.00 35.75
211.00 35.76
212.00 35.73
213.00 35.64
214.00 35.48
215.00 35.25
216.00 34.96
217.00 34.61
218.00 34.22
219.00 33.80
220.00 33.38
221.00 32.96
222.00 32.55
223.00 32.16
224.00 31.80
225.00 31.46
226.00 31.16
227.00 30.90
228.00 30.66
229.00 30.46
230.00 30.29
231.00 30.15
232.00 30.04
233.00 29.96
234.00 29.89
235.00 29.84
236.00 29.81
237.00 29.78
238.00 29.77
239.00 29.75
240.00 29.72
241.00 29.69
242.00 29.64
243.00 29.57
244.00 29.48
245.00 29.36
246.00 29.22
247.00 29.06
248.00 28.87
249.00 28.65
250.00 28.42
251.00 28.17
252.00 27.90
253.00 27.62
254.00 27.34
255.00 27.04
256.00 26.74
257.00 26.44
258.00 26.13
259.00 25.82
260.00 25.51
261.00 25.20
262.00 24.89
263.00 24.57
264.00 24.26
265.00 23.94
266.00 23.63
267.00 23.31
268.00 22.99
269.00 22.66
270.00 22.33
271.00 22.00
272.00 21.67
273.00 21.33
274.00 20.99
275.00 20.65
276.00 20.30
277.00 19.96
278.00 19.61
279.00 19.26
280.00 18.91
281.00 18.56
282.00 18.21
283.00 17.86
284.00 17.52
285.00 17.18
286.00 16.84
287.00 16.50
288.00 16.16
289.00 15.83
290.00 15.50
291.00 15.17
292.00 14.85
293.00 14.53
294.00 14.20
295.00 13.89
296.00 13.57
297.00 13.26
298.00 12.94
299.00 12.63
300.00 12.32
301.00 12.01
302.00 11.70
303.00 11.38
304.00 11.07
305.00 10.77
306.00 10.46
307.00 10.14
308.00 9.83
309.00 9.53
310.00 9.22
311.00 8.91
312.00 8.60
313.00 8.30
314.00 7.99
315.00 7.70
316.00 7.40
317.00 7.10
318.00 6.81
319.00 6.52
320.00 6.24
321.00 5.96
322.00 5.69
323.00 5.42
324.00 5.15
325.00 4.90
326.00 4.65
327.00 4.40
328.00 4.16
329.00 3.93
330.00 3.71
331.00 3.49
332.00 3.28
333.00 3.08
334.00 2.88
335.00 2.69
336.00 2.51
337.00 2.34
338.00 2.17
339.00 2.01
340.00 1.86
341.00 1.72
342.00 1.58
343.00 1.45
344.00 1.33
345.00 1.21
346.00 1.10
347.00 1.00
348.00 0.90
349.00 0.81
350.00 0.72
351.00 0.64
352.00 0.56
353.00 0.49
354.00 0.43
355.00 0.37
356.00 0.31
357.00 0.26
358.00 0.21
359.00 0.17
VERTICAL 360
0.00 24.19
1.00 14.18
2.00 8.60
3.00 4.96
4.00 2.52
5.00 0.97
6.00 0.15
7.00 0.01
8.00 0.54
9.00 1.83
10.00 4.07
11.00 7.73
12.00 14.35
13.00 29.26
14.00 16.80
15.00 12.61
16.00 11.60
17.00 12.47
18.00 15.20
19.00 20.36
20.00 23.15
21.00 18.14
22.00 15.29
23.00 14.59
24.00 15.70
25.00 19.04
26.00 26.74
27.00 29.50
28.00 21.58
29.00 18.84
30.00 18.36
31.00 19.46
32.00 22.07
33.00 26.12
34.00 27.23
35.00 23.07
36.00 19.85
37.00 18.14
38.00 17.70
39.00 18.49
40.00 20.66
41.00 24.79
42.00 33.08
43.00 39.35
44.00 30.48
45.00 27.60
46.00 26.63
47.00 26.70
48.00 27.80
49.00 30.60
50.00 36.04
51.00 34.05
52.00 27.66
53.00 24.23
54.00 22.53
55.00 22.00
56.00 22.35
57.00 23.45
58.00 25.20
59.00 27.54
60.00 30.19
61.00 32.19
62.00 32.15
63.00 30.80
64.00 29.69
65.00 29.35
66.00 29.79
67.00 30.76
68.00 31.81
69.00 32.52
70.00 32.88
71.00 33.14
72.00 33.26
73.00 33.00
74.00 32.33
75.00 31.50
76.00 30.83
77.00 30.52
78.00 30.51
79.00 30.61
80.00 30.66
81.00 30.66
82.00 30.54
83.00 30.21
84.00 29.87
85.00 29.82
86.00 30.11
87.00 30.42
88.00 30.45
89.00 30.20
90.00 29.75
91.00 29.10
92.00 28.44
93.00 27.99
94.00 27.92
95.00 28.28
96.00 29.01
97.00 29.98
98.00 30.96
99.00 31.86
100.00 32.77
101.00 33.82
102.00 35.14
103.00 36.78
104.00 38.52
105.00 39.97
106.00 41.05
107.00 41.99
108.00 42.99
109.00 44.22
110.00 45.28
111.00 44.88
112.00 43.63
113.00 43.20
114.00 43.77
115.00 44.41
116.00 44.04
117.00 42.68
118.00 41.03
119.00 39.79
120.00 39.28
121.00 39.37
122.00 39.55
123.00 39.24
124.00 38.29
125.00 37.20
126.00 36.53
127.00 36.45
128.00 36.83
129.00 37.50
130.00 38.46
131.00 39.55
132.00 40.28
133.00 41.06
134.00 43.63
135.00 55.12
136.00 50.07
137.00 41.08
138.00 37.69
139.00 36.35
140.00 36.08
141.00 36.21
142.00 36.28
143.00 36.30
144.00 36.65
145.00 37.56
146.00 38.66
147.00 39.25
148.00 39.98
149.00 43.18
150.00 53.67
151.00 43.27
152.00 36.90
153.00 34.34
154.00 33.61
155.00 34.03
156.00 35.27
157.00 37.16
158.00 38.79
159.00 38.86
160.00 38.75
161.00 40.29
162.00 42.09
163.00 39.32
164.00 36.06
165.00 34.52
166.00 34.21
167.00 34.39
168.00 34.65
169.00 35.34
170.00 37.12
171.00 40.29
172.00 43.52
173.00 44.20
174.00 44.46
175.00 45.18
176.00 44.95
177.00 44.46
178.00 43.30
179.00 40.60
180.00 38.44
181.00 37.97
182.00 39.23
183.00 41.90
184.00 44.89
185.00 45.85
186.00 44.08
187.00 42.38
188.00 42.72
189.00 46.89
190.00 52.19
191.00 41.98
192.00 37.08
193.00 34.81
194.00 34.13
195.00 34.55
196.00 35.65
197.00 37.09
198.00 38.77
199.00 40.34
200.00 40.53
201.00 38.93
202.00 36.77
203.00 34.91
204.00 33.92
205.00 34.28
206.00 36.54
207.00 41.58
208.00 44.96
209.00 39.79
210.00 36.76
211.00 35.35
212.00 34.68
213.00 34.57
214.00 35.26
215.00 37.00
216.00 39.96
217.00 43.75
218.00 46.42
219.00 46.35
220.00 45.80
221.00 46.78
222.00 51.20
223.00 52.27
224.00 43.60
225.00 39.00
226.00 36.61
227.00 35.56
228.00 35.38
229.00 35.74
230.00 36.49
231.00 37.63
232.00 39.10
233.00 40.45
234.00 41.00
235.00 40.72
236.00 40.19
237.00 39.74
238.00 39.19
239.00 38.53
240.00 38.24
241.00 38.85
242.00 40.52
243.00 42.65
244.00 43.60
245.00 43.07
246.00 42.37
247.00 41.93
248.00 41.39
249.00 40.45
250.00 39.70
251.00 39.95
252.00 41.52
253.00 43.65
254.00 43.60
255.00 41.52
256.00 39.81
257.00 39.00
258.00 38.87
259.00 38.84
260.00 38.49
261.00 38.33
262.00 38.92
263.00 40.20
264.00 41.27
265.00 40.44
266.00 37.61
267.00 34.71
268.00 32.82
269.00 32.08
270.00 32.37
271.00 33.40
272.00 34.63
273.00 35.40
274.00 35.47
275.00 35.28
276.00 35.36
277.00 35.87
278.00 36.60
279.00 36.98
280.00 36.64
281.00 35.83
282.00 35.14
283.00 35.11
284.00 36.19
285.00 38.97
286.00 45.36
287.00 66.54
288.00 42.84
289.00 37.08
290.00 33.39
291.00 30.58
292.00 28.42
293.00 26.86
294.00 25.85
295.00 25.36
296.00 25.33
297.00 25.73
298.00 26.61
299.00 28.23
300.00 31.00
301.00 33.80
302.00 30.94
303.00 26.50
304.00 23.59
305.00 21.91
306.00 21.07
307.00 20.75
308.00 20.74
309.00 20.90
310.00 21.24
311.00 21.87
312.00 22.85
313.00 23.93
314.00 24.25
315.00 23.12
316.00 21.32
317.00 19.83
318.00 19.03
319.00 19.03
320.00 19.85
321.00 21.45
322.00 23.72
323.00 26.25
324.00 28.05
325.00 28.21
326.00 27.22
327.00 25.79
328.00 24.08
329.00 22.20
330.00 20.50
331.00 19.36
332.00 19.07
333.00 19.84
334.00 22.00
335.00 25.82
336.00 27.91
337.00 23.69
338.00 19.98
339.00 17.77
340.00 16.70
341.00 16.59
342.00 17.46
343.00 19.43
344.00 22.62
345.00 25.83
346.00 25.92
347.00 25.34
348.00 27.48
349.00 32.16
350.00 25.94
351.00 20.35
352.00 17.69
353.00 16.98
354.00 18.12
355.00 21.77
356.00 32.39
357.00 32.78
358.00 26.64
359.00 30.71
