NAME ATR4518R7_2140_X_CO_M45_02T_yyR
FREQUENCY 2140
GAIN 15.77 dBd
TILT	ELECTRICAL
COMMENT DATE 05.08.2013 -45 degrees polarized system Lever position 02T deg
HORIZONTAL 360
0.00 0.01
1.00 0.00
2.00 0.00
3.00 0.01
4.00 0.01
5.00 0.03
6.00 0.04
7.00 0.06
8.00 0.08
9.00 0.10
10.00 0.13
11.00 0.17
12.00 0.21
13.00 0.25
14.00 0.31
15.00 0.37
16.00 0.44
17.00 0.52
18.00 0.61
19.00 0.72
20.00 0.83
21.00 0.96
22.00 1.11
23.00 1.27
24.00 1.45
25.00 1.64
26.00 1.85
27.00 2.08
28.00 2.33
29.00 2.60
30.00 2.89
31.00 3.20
32.00 3.52
33.00 3.87
34.00 4.24
35.00 4.63
36.00 5.04
37.00 5.47
38.00 5.92
39.00 6.40
40.00 6.89
41.00 7.40
42.00 7.93
43.00 8.47
44.00 9.04
45.00 9.61
46.00 10.20
47.00 10.80
48.00 11.40
49.00 12.01
50.00 12.61
51.00 13.22
52.00 13.81
53.00 14.40
54.00 14.96
55.00 15.51
56.00 16.04
57.00 16.53
58.00 17.00
59.00 17.44
60.00 17.85
61.00 18.23
62.00 18.58
63.00 18.91
64.00 19.21
65.00 19.50
66.00 19.77
67.00 20.02
68.00 20.26
69.00 20.50
70.00 20.72
71.00 20.95
72.00 21.17
73.00 21.39
74.00 21.61
75.00 21.83
76.00 22.06
77.00 22.30
78.00 22.54
79.00 22.80
80.00 23.06
81.00 23.34
82.00 23.63
83.00 23.94
84.00 24.27
85.00 24.61
86.00 24.97
87.00 25.35
88.00 25.74
89.00 26.16
90.00 26.58
91.00 27.02
92.00 27.48
93.00 27.93
94.00 28.39
95.00 28.84
96.00 29.27
97.00 29.69
98.00 30.07
99.00 30.41
100.00 30.71
101.00 30.96
102.00 31.16
103.00 31.32
104.00 31.43
105.00 31.50
106.00 31.55
107.00 31.58
108.00 31.59
109.00 31.61
110.00 31.63
111.00 31.66
112.00 31.70
113.00 31.77
114.00 31.86
115.00 31.98
116.00 32.13
117.00 32.31
118.00 32.52
119.00 32.77
120.00 33.06
121.00 33.39
122.00 33.75
123.00 34.14
124.00 34.57
125.00 35.00
126.00 35.42
127.00 35.83
128.00 36.17
129.00 36.42
130.00 36.56
131.00 36.55
132.00 36.40
133.00 36.14
134.00 35.79
135.00 35.39
136.00 34.98
137.00 34.58
138.00 34.22
139.00 33.91
140.00 33.67
141.00 33.50
142.00 33.41
143.00 33.41
144.00 33.51
145.00 33.70
146.00 34.00
147.00 34.42
148.00 34.98
149.00 35.68
150.00 36.55
151.00 37.61
152.00 38.88
153.00 40.36
154.00 41.93
155.00 43.28
156.00 43.77
157.00 43.04
158.00 41.58
159.00 39.98
160.00 38.52
161.00 37.26
162.00 36.22
163.00 35.37
164.00 34.69
165.00 34.17
166.00 33.78
167.00 33.53
168.00 33.40
169.00 33.38
170.00 33.49
171.00 33.70
172.00 34.03
173.00 34.47
174.00 35.02
175.00 35.69
176.00 36.47
177.00 37.37
178.00 38.35
179.00 39.38
180.00 40.40
181.00 41.31
182.00 41.97
183.00 42.32
184.00 42.35
185.00 42.16
186.00 41.87
187.00 41.58
188.00 41.36
189.00 41.24
190.00 41.22
191.00 41.30
192.00 41.43
193.00 41.57
194.00 41.64
195.00 41.56
196.00 41.27
197.00 40.77
198.00 40.09
199.00 39.31
200.00 38.50
201.00 37.71
202.00 36.99
203.00 36.35
204.00 35.80
205.00 35.37
206.00 35.03
207.00 34.80
208.00 34.69
209.00 34.67
210.00 34.76
211.00 34.97
212.00 35.28
213.00 35.71
214.00 36.25
215.00 36.89
216.00 37.64
217.00 38.45
218.00 39.27
219.00 40.01
220.00 40.54
221.00 40.75
222.00 40.57
223.00 40.08
224.00 39.42
225.00 38.70
226.00 38.01
227.00 37.39
228.00 36.86
229.00 36.44
230.00 36.11
231.00 35.88
232.00 35.74
233.00 35.69
234.00 35.72
235.00 35.82
236.00 35.98
237.00 36.19
238.00 36.42
239.00 36.68
240.00 36.92
241.00 37.12
242.00 37.26
243.00 37.30
244.00 37.24
245.00 37.06
246.00 36.77
247.00 36.39
248.00 35.94
249.00 35.44
250.00 34.91
251.00 34.35
252.00 33.79
253.00 33.23
254.00 32.67
255.00 32.13
256.00 31.59
257.00 31.05
258.00 30.53
259.00 30.01
260.00 29.51
261.00 29.00
262.00 28.51
263.00 28.02
264.00 27.54
265.00 27.05
266.00 26.57
267.00 26.10
268.00 25.62
269.00 25.14
270.00 24.67
271.00 24.19
272.00 23.71
273.00 23.23
274.00 22.75
275.00 22.27
276.00 21.80
277.00 21.32
278.00 20.85
279.00 20.38
280.00 19.92
281.00 19.45
282.00 19.00
283.00 18.55
284.00 18.10
285.00 17.67
286.00 17.24
287.00 16.81
288.00 16.40
289.00 15.99
290.00 15.58
291.00 15.18
292.00 14.79
293.00 14.41
294.00 14.04
295.00 13.67
296.00 13.30
297.00 12.95
298.00 12.60
299.00 12.25
300.00 11.92
301.00 11.58
302.00 11.25
303.00 10.93
304.00 10.62
305.00 10.31
306.00 10.00
307.00 9.70
308.00 9.41
309.00 9.11
310.00 8.83
311.00 8.55
312.00 8.27
313.00 8.00
314.00 7.73
315.00 7.46
316.00 7.20
317.00 6.94
318.00 6.68
319.00 6.43
320.00 6.17
321.00 5.92
322.00 5.67
323.00 5.42
324.00 5.17
325.00 4.93
326.00 4.69
327.00 4.44
328.00 4.20
329.00 3.97
330.00 3.73
331.00 3.50
332.00 3.27
333.00 3.05
334.00 2.83
335.00 2.61
336.00 2.41
337.00 2.21
338.00 2.01
339.00 1.83
340.00 1.65
341.00 1.48
342.00 1.32
343.00 1.17
344.00 1.02
345.00 0.89
346.00 0.77
347.00 0.66
348.00 0.56
349.00 0.46
350.00 0.38
351.00 0.31
352.00 0.24
353.00 0.19
354.00 0.14
355.00 0.10
356.00 0.07
357.00 0.05
358.00 0.03
359.00 0.01
VERTICAL 360
0.00 1.67
1.00 0.41
2.00 0.00
3.00 0.46
4.00 1.90
5.00 4.60
6.00 9.21
7.00 17.26
8.00 18.96
9.00 14.05
10.00 12.94
11.00 14.34
12.00 17.95
13.00 21.24
14.00 19.24
15.00 17.37
16.00 18.05
17.00 22.37
18.00 34.05
19.00 23.56
20.00 18.08
21.00 16.41
22.00 16.86
23.00 19.30
24.00 24.43
25.00 29.44
26.00 24.47
27.00 21.03
28.00 19.95
29.00 20.42
30.00 21.95
31.00 23.91
32.00 25.51
33.00 26.76
34.00 28.48
35.00 30.68
36.00 30.60
37.00 27.56
38.00 24.80
39.00 23.18
40.00 22.66
41.00 23.18
42.00 24.78
43.00 27.73
44.00 32.80
45.00 37.91
46.00 33.33
47.00 29.41
48.00 27.81
49.00 27.73
50.00 28.79
51.00 30.72
52.00 33.35
53.00 36.73
54.00 40.69
55.00 41.49
56.00 38.41
57.00 36.39
58.00 36.05
59.00 37.04
60.00 39.31
61.00 43.68
62.00 55.41
63.00 53.44
64.00 44.92
65.00 41.40
66.00 39.59
67.00 39.11
68.00 39.85
69.00 42.05
70.00 46.33
71.00 51.94
72.00 53.86
73.00 48.72
74.00 42.32
75.00 38.53
76.00 36.23
77.00 34.42
78.00 32.87
79.00 31.50
80.00 30.17
81.00 29.17
82.00 28.90
83.00 29.37
84.00 30.28
85.00 31.13
86.00 31.38
87.00 31.43
88.00 32.66
89.00 36.47
90.00 41.00
91.00 37.35
92.00 33.80
93.00 31.83
94.00 30.85
95.00 31.20
96.00 33.22
97.00 37.02
98.00 41.58
99.00 42.79
100.00 41.10
101.00 40.67
102.00 42.84
103.00 48.79
104.00 54.02
105.00 49.34
106.00 46.70
107.00 44.66
108.00 42.98
109.00 42.43
110.00 43.54
111.00 46.52
112.00 50.92
113.00 54.12
114.00 53.47
115.00 51.81
116.00 52.92
117.00 60.21
118.00 61.57
119.00 56.43
120.00 61.84
121.00 62.82
122.00 50.59
123.00 45.39
124.00 42.41
125.00 41.26
126.00 41.96
127.00 44.27
128.00 47.14
129.00 48.77
130.00 48.92
131.00 48.19
132.00 47.62
133.00 47.83
134.00 47.53
135.00 44.59
136.00 40.86
137.00 38.32
138.00 37.28
139.00 37.60
140.00 39.07
141.00 41.47
142.00 44.53
143.00 47.28
144.00 47.83
145.00 45.75
146.00 42.82
147.00 40.26
148.00 38.35
149.00 37.25
150.00 37.13
151.00 38.03
152.00 39.76
153.00 41.94
154.00 44.29
155.00 47.26
156.00 49.07
157.00 43.57
158.00 38.66
159.00 36.30
160.00 35.90
161.00 36.86
162.00 37.99
163.00 37.92
164.00 36.92
165.00 36.07
166.00 35.78
167.00 36.16
168.00 37.25
169.00 38.99
170.00 40.66
171.00 41.03
172.00 40.08
173.00 38.71
174.00 37.65
175.00 37.48
176.00 38.42
177.00 40.20
178.00 41.68
179.00 41.88
180.00 41.69
181.00 41.74
182.00 41.77
183.00 41.34
184.00 40.82
185.00 41.10
186.00 42.89
187.00 46.32
188.00 48.90
189.00 46.65
190.00 43.16
191.00 41.06
192.00 40.59
193.00 40.92
194.00 40.92
195.00 41.25
196.00 43.28
197.00 47.23
198.00 50.01
199.00 48.33
200.00 46.29
201.00 46.41
202.00 48.67
203.00 47.89
204.00 44.86
205.00 43.22
206.00 41.26
207.00 38.88
208.00 37.37
209.00 36.88
210.00 36.76
211.00 35.96
212.00 34.21
213.00 32.43
214.00 31.24
215.00 30.83
216.00 31.40
217.00 33.43
218.00 37.81
219.00 45.63
220.00 45.45
221.00 40.64
222.00 37.89
223.00 36.21
224.00 35.98
225.00 37.66
226.00 41.81
227.00 48.52
228.00 51.57
229.00 54.35
230.00 63.75
231.00 52.60
232.00 50.67
233.00 52.59
234.00 51.09
235.00 48.67
236.00 48.81
237.00 49.18
238.00 46.93
239.00 43.98
240.00 41.57
241.00 39.69
242.00 38.51
243.00 38.51
244.00 40.23
245.00 44.21
246.00 47.81
247.00 45.25
248.00 42.71
249.00 41.64
250.00 41.49
251.00 42.13
252.00 43.12
253.00 42.62
254.00 40.35
255.00 38.60
256.00 38.23
257.00 39.09
258.00 40.65
259.00 41.91
260.00 41.86
261.00 40.75
262.00 39.11
263.00 37.05
264.00 35.19
265.00 34.03
266.00 33.50
267.00 33.14
268.00 32.49
269.00 31.43
270.00 30.32
271.00 29.58
272.00 29.40
273.00 29.70
274.00 30.23
275.00 30.70
276.00 31.00
277.00 31.16
278.00 31.20
279.00 31.06
280.00 30.67
281.00 30.13
282.00 29.68
283.00 29.55
284.00 29.83
285.00 30.42
286.00 31.06
287.00 31.49
288.00 31.61
289.00 31.53
290.00 31.42
291.00 31.40
292.00 31.37
293.00 31.09
294.00 30.43
295.00 29.61
296.00 29.01
297.00 28.94
298.00 29.32
299.00 29.71
300.00 29.76
301.00 29.63
302.00 29.80
303.00 30.72
304.00 32.90
305.00 37.31
306.00 42.32
307.00 36.40
308.00 31.26
309.00 28.67
310.00 27.88
311.00 28.80
312.00 32.03
313.00 40.71
314.00 37.70
315.00 28.93
316.00 24.39
317.00 21.42
318.00 19.38
319.00 18.06
320.00 17.36
321.00 17.21
322.00 17.55
323.00 18.34
324.00 19.49
325.00 20.82
326.00 21.97
327.00 22.39
328.00 21.72
329.00 20.37
330.00 19.18
331.00 18.80
332.00 19.69
333.00 22.58
334.00 30.43
335.00 38.14
336.00 24.62
337.00 20.89
338.00 19.74
339.00 20.45
340.00 23.47
341.00 31.81
342.00 32.55
343.00 24.27
344.00 21.99
345.00 22.95
346.00 27.93
347.00 31.99
348.00 24.13
349.00 20.42
350.00 19.36
351.00 20.13
352.00 22.25
353.00 24.60
354.00 27.35
355.00 30.45
356.00 19.81
357.00 12.08
358.00 7.17
359.00 3.86
