NAME ATR4518R7_2140_X_CO_P45_10T_yyR
FREQUENCY 2140
GAIN 14.84 dBd
TILT	ELECTRICAL
COMMENT DATE 05.08.2013 +45 degrees polarized system Lever position 10T deg
HORIZONTAL 360
0.00 0.11
1.00 0.07
2.00 0.05
3.00 0.03
4.00 0.01
5.00 0.00
6.00 0.00
7.00 0.01
8.00 0.02
9.00 0.04
10.00 0.07
11.00 0.10
12.00 0.15
13.00 0.20
14.00 0.26
15.00 0.33
16.00 0.41
17.00 0.50
18.00 0.60
19.00 0.70
20.00 0.82
21.00 0.95
22.00 1.08
23.00 1.23
24.00 1.39
25.00 1.55
26.00 1.73
27.00 1.92
28.00 2.11
29.00 2.32
30.00 2.54
31.00 2.76
32.00 3.00
33.00 3.25
34.00 3.50
35.00 3.77
36.00 4.04
37.00 4.33
38.00 4.62
39.00 4.92
40.00 5.22
41.00 5.54
42.00 5.86
43.00 6.19
44.00 6.52
45.00 6.86
46.00 7.20
47.00 7.54
48.00 7.89
49.00 8.23
50.00 8.57
51.00 8.92
52.00 9.26
53.00 9.60
54.00 9.93
55.00 10.26
56.00 10.59
57.00 10.90
58.00 11.22
59.00 11.53
60.00 11.83
61.00 12.13
62.00 12.43
63.00 12.72
64.00 13.01
65.00 13.31
66.00 13.60
67.00 13.90
68.00 14.19
69.00 14.49
70.00 14.80
71.00 15.10
72.00 15.42
73.00 15.74
74.00 16.06
75.00 16.39
76.00 16.72
77.00 17.06
78.00 17.40
79.00 17.75
80.00 18.09
81.00 18.44
82.00 18.79
83.00 19.15
84.00 19.50
85.00 19.86
86.00 20.22
87.00 20.58
88.00 20.95
89.00 21.33
90.00 21.71
91.00 22.11
92.00 22.52
93.00 22.93
94.00 23.37
95.00 23.82
96.00 24.29
97.00 24.77
98.00 25.28
99.00 25.80
100.00 26.33
101.00 26.88
102.00 27.44
103.00 28.00
104.00 28.56
105.00 29.12
106.00 29.66
107.00 30.19
108.00 30.68
109.00 31.15
110.00 31.58
111.00 31.97
112.00 32.32
113.00 32.62
114.00 32.87
115.00 33.08
116.00 33.22
117.00 33.30
118.00 33.31
119.00 33.25
120.00 33.13
121.00 32.95
122.00 32.73
123.00 32.47
124.00 32.20
125.00 31.93
126.00 31.68
127.00 31.46
128.00 31.28
129.00 31.14
130.00 31.07
131.00 31.06
132.00 31.12
133.00 31.26
134.00 31.47
135.00 31.77
136.00 32.15
137.00 32.60
138.00 33.11
139.00 33.67
140.00 34.24
141.00 34.76
142.00 35.16
143.00 35.37
144.00 35.35
145.00 35.09
146.00 34.66
147.00 34.14
148.00 33.58
149.00 33.05
150.00 32.59
151.00 32.20
152.00 31.91
153.00 31.73
154.00 31.65
155.00 31.69
156.00 31.85
157.00 32.14
158.00 32.56
159.00 33.13
160.00 33.87
161.00 34.80
162.00 35.95
163.00 37.36
164.00 39.06
165.00 41.02
166.00 43.02
167.00 44.19
168.00 43.63
169.00 41.95
170.00 40.11
171.00 38.52
172.00 37.23
173.00 36.20
174.00 35.42
175.00 34.83
176.00 34.42
177.00 34.18
178.00 34.09
179.00 34.14
180.00 34.35
181.00 34.69
182.00 35.19
183.00 35.85
184.00 36.69
185.00 37.75
186.00 39.07
187.00 40.72
188.00 42.85
189.00 45.67
190.00 49.65
191.00 54.76
192.00 53.69
193.00 48.88
194.00 45.47
195.00 43.06
196.00 41.26
197.00 39.86
198.00 38.73
199.00 37.80
200.00 37.02
201.00 36.36
202.00 35.80
203.00 35.32
204.00 34.89
205.00 34.52
206.00 34.20
207.00 33.92
208.00 33.68
209.00 33.47
210.00 33.31
211.00 33.18
212.00 33.08
213.00 33.02
214.00 32.99
215.00 33.00
216.00 33.05
217.00 33.12
218.00 33.24
219.00 33.38
220.00 33.55
221.00 33.75
222.00 33.96
223.00 34.20
224.00 34.46
225.00 34.73
226.00 35.02
227.00 35.32
228.00 35.63
229.00 35.95
230.00 36.28
231.00 36.63
232.00 37.00
233.00 37.39
234.00 37.80
235.00 38.24
236.00 38.71
237.00 39.22
238.00 39.77
239.00 40.36
240.00 40.99
241.00 41.67
242.00 42.39
243.00 43.16
244.00 43.93
245.00 44.72
246.00 45.43
247.00 46.00
248.00 46.31
249.00 46.33
250.00 45.95
251.00 45.26
252.00 44.33
253.00 43.28
254.00 42.19
255.00 41.10
256.00 40.03
257.00 39.00
258.00 38.01
259.00 37.07
260.00 36.17
261.00 35.31
262.00 34.49
263.00 33.71
264.00 32.95
265.00 32.22
266.00 31.52
267.00 30.84
268.00 30.18
269.00 29.54
270.00 28.90
271.00 28.28
272.00 27.67
273.00 27.07
274.00 26.47
275.00 25.88
276.00 25.30
277.00 24.72
278.00 24.14
279.00 23.57
280.00 23.01
281.00 22.44
282.00 21.89
283.00 21.34
284.00 20.80
285.00 20.27
286.00 19.74
287.00 19.23
288.00 18.73
289.00 18.23
290.00 17.75
291.00 17.28
292.00 16.83
293.00 16.38
294.00 15.94
295.00 15.52
296.00 15.11
297.00 14.71
298.00 14.32
299.00 13.93
300.00 13.56
301.00 13.19
302.00 12.83
303.00 12.48
304.00 12.14
305.00 11.79
306.00 11.46
307.00 11.13
308.00 10.79
309.00 10.47
310.00 10.14
311.00 9.82
312.00 9.50
313.00 9.18
314.00 8.86
315.00 8.55
316.00 8.23
317.00 7.93
318.00 7.61
319.00 7.31
320.00 7.00
321.00 6.70
322.00 6.41
323.00 6.11
324.00 5.82
325.00 5.54
326.00 5.26
327.00 4.99
328.00 4.72
329.00 4.46
330.00 4.20
331.00 3.95
332.00 3.72
333.00 3.48
334.00 3.26
335.00 3.04
336.00 2.83
337.00 2.63
338.00 2.44
339.00 2.26
340.00 2.08
341.00 1.91
342.00 1.76
343.00 1.60
344.00 1.46
345.00 1.33
346.00 1.20
347.00 1.08
348.00 0.97
349.00 0.86
350.00 0.76
351.00 0.67
352.00 0.58
353.00 0.50
354.00 0.43
355.00 0.36
356.00 0.30
357.00 0.24
358.00 0.19
359.00 0.15
VERTICAL 360
0.00 22.03
1.00 22.23
2.00 20.59
3.00 16.69
4.00 12.46
5.00 8.74
6.00 5.66
7.00 3.24
8.00 1.48
9.00 0.40
10.00 0.00
11.00 0.37
12.00 1.66
13.00 4.08
14.00 8.17
15.00 15.65
16.00 30.15
17.00 17.47
18.00 14.46
19.00 14.77
20.00 18.02
21.00 24.74
22.00 20.66
23.00 15.59
24.00 13.96
25.00 14.63
26.00 17.68
27.00 25.09
28.00 32.96
29.00 21.75
30.00 18.20
31.00 17.18
32.00 18.02
33.00 21.09
34.00 28.67
35.00 31.91
36.00 23.62
37.00 20.95
38.00 20.73
39.00 22.22
40.00 25.02
41.00 28.06
42.00 29.05
43.00 27.67
44.00 25.39
45.00 23.37
46.00 22.38
47.00 22.71
48.00 24.56
49.00 28.29
50.00 35.25
51.00 47.01
52.00 36.81
53.00 32.16
54.00 29.93
55.00 29.23
56.00 30.02
57.00 31.93
58.00 32.81
59.00 31.11
60.00 29.23
61.00 28.26
62.00 28.15
63.00 28.68
64.00 29.36
65.00 29.75
66.00 29.88
67.00 29.94
68.00 30.26
69.00 31.26
70.00 32.92
71.00 34.46
72.00 34.66
73.00 33.54
74.00 32.48
75.00 32.37
76.00 32.93
77.00 32.98
78.00 31.69
79.00 29.87
80.00 28.70
81.00 28.57
82.00 29.02
83.00 28.96
84.00 27.72
85.00 26.10
86.00 25.31
87.00 26.11
88.00 28.76
89.00 32.54
90.00 34.16
91.00 31.80
92.00 28.44
93.00 26.50
94.00 26.38
95.00 27.62
96.00 29.01
97.00 29.38
98.00 28.87
99.00 28.39
100.00 28.75
101.00 30.30
102.00 32.75
103.00 34.84
104.00 35.46
105.00 35.90
106.00 38.05
107.00 42.99
108.00 47.27
109.00 44.23
110.00 41.49
111.00 39.97
112.00 39.10
113.00 37.39
114.00 35.31
115.00 34.12
116.00 33.79
117.00 33.70
118.00 33.40
119.00 33.11
120.00 33.51
121.00 35.08
122.00 37.67
123.00 40.48
124.00 43.81
125.00 49.61
126.00 54.43
127.00 54.16
128.00 61.04
129.00 52.24
130.00 45.49
131.00 42.98
132.00 42.49
133.00 42.17
134.00 41.07
135.00 39.75
136.00 38.09
137.00 36.44
138.00 35.72
139.00 36.29
140.00 38.44
141.00 43.04
142.00 49.01
143.00 45.54
144.00 43.39
145.00 43.78
146.00 44.38
147.00 43.24
148.00 41.39
149.00 41.27
150.00 44.67
151.00 52.92
152.00 50.94
153.00 53.30
154.00 58.72
155.00 45.28
156.00 41.45
157.00 38.89
158.00 36.24
159.00 34.56
160.00 34.67
161.00 37.28
162.00 43.54
163.00 45.22
164.00 41.87
165.00 43.44
166.00 49.29
167.00 52.24
168.00 44.82
169.00 39.89
170.00 39.07
171.00 43.99
172.00 56.35
173.00 42.55
174.00 41.25
175.00 42.52
176.00 41.55
177.00 41.10
178.00 42.57
179.00 43.08
180.00 39.96
181.00 36.07
182.00 33.90
183.00 33.82
184.00 35.12
185.00 36.27
186.00 37.27
187.00 39.52
188.00 42.57
189.00 44.31
190.00 43.06
191.00 40.10
192.00 39.27
193.00 41.99
194.00 49.72
195.00 46.85
196.00 41.18
197.00 38.71
198.00 38.22
199.00 40.05
200.00 43.57
201.00 41.41
202.00 37.69
203.00 36.64
204.00 37.97
205.00 41.27
206.00 45.41
207.00 47.82
208.00 42.27
209.00 36.70
210.00 33.71
211.00 32.58
212.00 32.75
213.00 33.64
214.00 34.71
215.00 35.49
216.00 35.77
217.00 35.41
218.00 34.67
219.00 34.06
220.00 33.87
221.00 34.01
222.00 34.32
223.00 34.84
224.00 35.79
225.00 37.45
226.00 40.17
227.00 43.91
228.00 42.68
229.00 37.81
230.00 35.28
231.00 35.44
232.00 39.29
233.00 47.62
234.00 39.76
235.00 36.02
236.00 36.34
237.00 40.49
238.00 49.57
239.00 41.18
240.00 35.76
241.00 33.23
242.00 32.20
243.00 32.22
244.00 32.88
245.00 33.38
246.00 33.38
247.00 33.87
248.00 36.00
249.00 40.72
250.00 47.79
251.00 46.17
252.00 41.61
253.00 37.68
254.00 33.95
255.00 30.92
256.00 28.84
257.00 27.67
258.00 27.13
259.00 26.84
260.00 26.46
261.00 25.90
262.00 25.31
263.00 24.88
264.00 24.71
265.00 24.82
266.00 25.11
267.00 25.22
268.00 24.76
269.00 23.86
270.00 22.96
271.00 22.40
272.00 22.30
273.00 22.59
274.00 23.00
275.00 23.07
276.00 22.58
277.00 21.69
278.00 20.71
279.00 19.79
280.00 18.99
281.00 18.30
282.00 17.71
283.00 17.21
284.00 16.77
285.00 16.40
286.00 16.07
287.00 15.79
288.00 15.58
289.00 15.44
290.00 15.35
291.00 15.29
292.00 15.24
293.00 15.22
294.00 15.26
295.00 15.39
296.00 15.61
297.00 15.97
298.00 16.61
299.00 17.72
300.00 19.53
301.00 22.24
302.00 26.30
303.00 33.51
304.00 46.65
305.00 31.74
306.00 27.48
307.00 26.38
308.00 27.49
309.00 29.24
310.00 27.92
311.00 25.29
312.00 23.48
313.00 21.97
314.00 20.57
315.00 19.99
316.00 21.08
317.00 24.90
318.00 29.65
319.00 24.56
320.00 20.93
321.00 19.88
322.00 20.62
323.00 23.03
324.00 27.00
325.00 26.29
326.00 20.78
327.00 16.98
328.00 14.81
329.00 14.05
330.00 14.86
331.00 17.96
332.00 23.33
333.00 20.79
334.00 16.99
335.00 14.49
336.00 13.18
337.00 12.97
338.00 13.76
339.00 15.49
340.00 18.24
341.00 22.28
342.00 28.27
343.00 29.07
344.00 23.86
345.00 22.20
346.00 21.83
347.00 21.30
348.00 20.49
349.00 20.48
350.00 22.07
351.00 25.51
352.00 28.95
353.00 29.65
354.00 31.34
355.00 33.92
356.00 29.67
357.00 25.39
358.00 23.06
359.00 22.05
