NAME ATR4518R7_2535_X_CO_M45_06T_yyR
FREQUENCY 2535
GAIN 15.63 dBd
TILT	ELECTRICAL
COMMENT DATE 05.08.2013 -45 degrees polarized system Lever position 06T deg
HORIZONTAL 360
0.00 0.00
1.00 0.01
2.00 0.04
3.00 0.07
4.00 0.11
5.00 0.17
6.00 0.23
7.00 0.31
8.00 0.39
9.00 0.49
10.00 0.59
11.00 0.70
12.00 0.82
13.00 0.94
14.00 1.07
15.00 1.21
16.00 1.35
17.00 1.50
18.00 1.65
19.00 1.81
20.00 1.97
21.00 2.15
22.00 2.33
23.00 2.51
24.00 2.71
25.00 2.91
26.00 3.13
27.00 3.35
28.00 3.59
29.00 3.84
30.00 4.10
31.00 4.37
32.00 4.65
33.00 4.94
34.00 5.25
35.00 5.56
36.00 5.89
37.00 6.22
38.00 6.57
39.00 6.92
40.00 7.28
41.00 7.65
42.00 8.03
43.00 8.41
44.00 8.81
45.00 9.20
46.00 9.61
47.00 10.02
48.00 10.45
49.00 10.88
50.00 11.32
51.00 11.77
52.00 12.23
53.00 12.70
54.00 13.18
55.00 13.67
56.00 14.17
57.00 14.67
58.00 15.18
59.00 15.69
60.00 16.19
61.00 16.70
62.00 17.20
63.00 17.69
64.00 18.17
65.00 18.64
66.00 19.10
67.00 19.57
68.00 20.03
69.00 20.49
70.00 20.96
71.00 21.46
72.00 21.98
73.00 22.53
74.00 23.13
75.00 23.79
76.00 24.51
77.00 25.30
78.00 26.17
79.00 27.13
80.00 28.18
81.00 29.31
82.00 30.48
83.00 31.62
84.00 32.60
85.00 33.24
86.00 33.41
87.00 33.15
88.00 32.60
89.00 31.93
90.00 31.27
91.00 30.68
92.00 30.20
93.00 29.84
94.00 29.60
95.00 29.48
96.00 29.48
97.00 29.59
98.00 29.83
99.00 30.18
100.00 30.65
101.00 31.23
102.00 31.93
103.00 32.74
104.00 33.64
105.00 34.60
106.00 35.57
107.00 36.46
108.00 37.16
109.00 37.57
110.00 37.65
111.00 37.48
112.00 37.17
113.00 36.83
114.00 36.52
115.00 36.30
116.00 36.19
117.00 36.18
118.00 36.30
119.00 36.53
120.00 36.88
121.00 37.32
122.00 37.85
123.00 38.45
124.00 39.11
125.00 39.79
126.00 40.47
127.00 41.13
128.00 41.73
129.00 42.28
130.00 42.79
131.00 43.30
132.00 43.85
133.00 44.46
134.00 45.13
135.00 45.83
136.00 46.44
137.00 46.71
138.00 46.39
139.00 45.45
140.00 44.10
141.00 42.60
142.00 41.13
143.00 39.78
144.00 38.56
145.00 37.47
146.00 36.52
147.00 35.70
148.00 35.00
149.00 34.40
150.00 33.91
151.00 33.52
152.00 33.24
153.00 33.04
154.00 32.95
155.00 32.95
156.00 33.06
157.00 33.26
158.00 33.58
159.00 34.01
160.00 34.56
161.00 35.25
162.00 36.08
163.00 37.05
164.00 38.17
165.00 39.42
166.00 40.75
167.00 41.97
168.00 42.86
169.00 43.14
170.00 42.82
171.00 42.13
172.00 41.33
173.00 40.61
174.00 40.02
175.00 39.59
176.00 39.33
177.00 39.21
178.00 39.23
179.00 39.36
180.00 39.58
181.00 39.85
182.00 40.13
183.00 40.38
184.00 40.55
185.00 40.63
186.00 40.64
187.00 40.60
188.00 40.56
189.00 40.58
190.00 40.71
191.00 40.99
192.00 41.46
193.00 42.13
194.00 43.03
195.00 44.09
196.00 45.08
197.00 45.48
198.00 44.81
199.00 43.27
200.00 41.46
201.00 39.73
202.00 38.21
203.00 36.92
204.00 35.85
205.00 34.99
206.00 34.31
207.00 33.80
208.00 33.46
209.00 33.27
210.00 33.23
211.00 33.34
212.00 33.59
213.00 33.98
214.00 34.48
215.00 35.05
216.00 35.64
217.00 36.12
218.00 36.35
219.00 36.21
220.00 35.69
221.00 34.91
222.00 34.01
223.00 33.10
224.00 32.25
225.00 31.49
226.00 30.85
227.00 30.32
228.00 29.90
229.00 29.58
230.00 29.37
231.00 29.24
232.00 29.21
233.00 29.26
234.00 29.38
235.00 29.56
236.00 29.79
237.00 30.06
238.00 30.34
239.00 30.63
240.00 30.89
241.00 31.11
242.00 31.27
243.00 31.36
244.00 31.37
245.00 31.31
246.00 31.19
247.00 31.02
248.00 30.82
249.00 30.60
250.00 30.36
251.00 30.12
252.00 29.88
253.00 29.65
254.00 29.43
255.00 29.22
256.00 29.03
257.00 28.86
258.00 28.71
259.00 28.58
260.00 28.47
261.00 28.39
262.00 28.33
263.00 28.28
264.00 28.25
265.00 28.21
266.00 28.16
267.00 28.09
268.00 27.98
269.00 27.80
270.00 27.56
271.00 27.24
272.00 26.84
273.00 26.36
274.00 25.83
275.00 25.25
276.00 24.64
277.00 24.01
278.00 23.38
279.00 22.75
280.00 22.13
281.00 21.52
282.00 20.94
283.00 20.37
284.00 19.81
285.00 19.28
286.00 18.76
287.00 18.26
288.00 17.77
289.00 17.29
290.00 16.82
291.00 16.36
292.00 15.91
293.00 15.46
294.00 15.01
295.00 14.57
296.00 14.13
297.00 13.69
298.00 13.26
299.00 12.83
300.00 12.39
301.00 11.97
302.00 11.54
303.00 11.12
304.00 10.71
305.00 10.29
306.00 9.89
307.00 9.49
308.00 9.09
309.00 8.70
310.00 8.32
311.00 7.95
312.00 7.58
313.00 7.22
314.00 6.87
315.00 6.53
316.00 6.20
317.00 5.88
318.00 5.56
319.00 5.26
320.00 4.97
321.00 4.69
322.00 4.42
323.00 4.16
324.00 3.91
325.00 3.68
326.00 3.45
327.00 3.24
328.00 3.04
329.00 2.85
330.00 2.67
331.00 2.50
332.00 2.35
333.00 2.20
334.00 2.05
335.00 1.92
336.00 1.80
337.00 1.68
338.00 1.56
339.00 1.46
340.00 1.35
341.00 1.25
342.00 1.15
343.00 1.05
344.00 0.96
345.00 0.87
346.00 0.77
347.00 0.68
348.00 0.60
349.00 0.51
350.00 0.43
351.00 0.36
352.00 0.29
353.00 0.22
354.00 0.16
355.00 0.11
356.00 0.07
357.00 0.04
358.00 0.02
359.00 0.00
VERTICAL 360
0.00 16.58
1.00 13.21
2.00 8.59
3.00 4.69
4.00 1.97
5.00 0.42
6.00 0.00
7.00 0.78
8.00 3.05
9.00 7.72
10.00 22.29
11.00 17.30
12.00 10.75
13.00 9.88
14.00 11.95
15.00 15.82
16.00 15.42
17.00 12.47
18.00 11.75
19.00 13.55
20.00 19.01
21.00 31.92
22.00 21.67
23.00 18.30
24.00 19.20
25.00 24.27
26.00 26.34
27.00 18.99
28.00 15.74
29.00 15.11
30.00 16.67
31.00 20.71
32.00 27.13
33.00 29.16
34.00 29.28
35.00 30.35
36.00 25.43
37.00 21.45
38.00 19.59
39.00 19.07
40.00 19.71
41.00 22.11
42.00 27.59
43.00 28.77
44.00 23.31
45.00 21.50
46.00 22.25
47.00 25.09
48.00 31.04
49.00 47.20
50.00 31.40
51.00 26.76
52.00 26.09
53.00 28.59
54.00 34.05
55.00 33.52
56.00 30.29
57.00 29.74
58.00 30.25
59.00 30.37
60.00 29.95
61.00 30.11
62.00 31.77
63.00 35.26
64.00 39.41
65.00 40.08
66.00 39.77
67.00 43.47
68.00 55.52
69.00 40.98
70.00 36.44
71.00 35.25
72.00 35.49
73.00 35.05
74.00 32.98
75.00 31.10
76.00 30.64
77.00 31.89
78.00 34.83
79.00 39.07
80.00 40.42
81.00 38.87
82.00 40.07
83.00 38.03
84.00 32.95
85.00 29.68
86.00 27.58
87.00 27.31
88.00 30.43
89.00 41.54
90.00 38.70
91.00 35.55
92.00 35.44
93.00 31.47
94.00 29.86
95.00 31.29
96.00 34.20
97.00 35.35
98.00 34.22
99.00 33.41
100.00 34.38
101.00 37.09
102.00 39.28
103.00 38.33
104.00 36.32
105.00 35.81
106.00 37.55
107.00 41.27
108.00 44.58
109.00 44.47
110.00 44.18
111.00 45.38
112.00 43.20
113.00 39.76
114.00 38.91
115.00 40.85
116.00 46.39
117.00 48.70
118.00 41.91
119.00 39.42
120.00 39.53
121.00 41.03
122.00 44.23
123.00 45.73
124.00 39.36
125.00 36.14
126.00 36.13
127.00 38.54
128.00 40.75
129.00 39.85
130.00 39.62
131.00 41.45
132.00 43.97
133.00 46.90
134.00 50.47
135.00 44.46
136.00 41.53
137.00 41.67
138.00 41.52
139.00 41.17
140.00 43.00
141.00 45.29
142.00 44.04
143.00 41.22
144.00 39.13
145.00 38.86
146.00 38.87
147.00 37.29
148.00 36.42
149.00 37.60
150.00 40.94
151.00 45.40
152.00 43.74
153.00 40.11
154.00 38.95
155.00 39.66
156.00 41.54
157.00 44.19
158.00 46.87
159.00 45.15
160.00 42.05
161.00 41.26
162.00 42.03
163.00 42.85
164.00 42.48
165.00 40.75
166.00 40.04
167.00 42.34
168.00 50.89
169.00 54.73
170.00 46.36
171.00 45.65
172.00 46.38
173.00 42.68
174.00 39.46
175.00 37.48
176.00 35.60
177.00 34.08
178.00 33.37
179.00 33.58
180.00 35.07
181.00 37.81
182.00 40.03
183.00 40.30
184.00 40.64
185.00 42.49
186.00 43.75
187.00 41.65
188.00 40.33
189.00 38.85
190.00 37.12
191.00 37.14
192.00 38.08
193.00 37.53
194.00 36.87
195.00 36.98
196.00 37.04
197.00 38.15
198.00 43.47
199.00 44.44
200.00 36.68
201.00 34.35
202.00 34.81
203.00 36.58
204.00 37.99
205.00 37.85
206.00 37.66
207.00 38.83
208.00 38.56
209.00 35.87
210.00 34.08
211.00 33.20
212.00 32.46
213.00 32.00
214.00 33.09
215.00 36.99
216.00 38.94
217.00 35.29
218.00 34.35
219.00 34.96
220.00 35.55
221.00 36.65
222.00 38.27
223.00 39.89
224.00 40.14
225.00 37.84
226.00 36.84
227.00 37.85
228.00 38.29
229.00 36.89
230.00 35.97
231.00 36.24
232.00 37.58
233.00 39.74
234.00 41.05
235.00 39.74
236.00 38.49
237.00 37.63
238.00 36.36
239.00 35.88
240.00 36.93
241.00 38.83
242.00 40.01
243.00 40.09
244.00 40.40
245.00 40.89
246.00 40.48
247.00 39.92
248.00 38.86
249.00 37.26
250.00 36.88
251.00 37.91
252.00 38.43
253.00 37.30
254.00 36.49
255.00 37.50
256.00 40.97
257.00 45.31
258.00 44.41
259.00 42.61
260.00 41.89
261.00 42.08
262.00 43.86
263.00 51.00
264.00 51.29
265.00 40.03
266.00 35.46
267.00 33.13
268.00 31.99
269.00 31.24
270.00 30.33
271.00 29.66
272.00 30.09
273.00 32.14
274.00 35.76
275.00 39.48
276.00 39.53
277.00 36.73
278.00 34.98
279.00 34.97
280.00 36.21
281.00 37.76
282.00 36.92
283.00 33.48
284.00 30.95
285.00 29.99
286.00 30.07
287.00 30.39
288.00 30.42
289.00 30.23
290.00 30.30
291.00 31.06
292.00 32.64
293.00 34.49
294.00 34.33
295.00 30.55
296.00 25.88
297.00 21.95
298.00 19.02
299.00 16.96
300.00 15.51
301.00 14.43
302.00 13.62
303.00 13.14
304.00 13.14
305.00 13.79
306.00 15.20
307.00 17.59
308.00 21.74
309.00 30.40
310.00 28.60
311.00 21.17
312.00 18.07
313.00 17.04
314.00 17.60
315.00 19.78
316.00 23.27
317.00 24.37
318.00 21.84
319.00 20.19
320.00 20.18
321.00 22.04
322.00 27.57
323.00 48.12
324.00 25.57
325.00 21.41
326.00 20.96
327.00 23.51
328.00 29.05
329.00 27.24
330.00 21.76
331.00 19.15
332.00 18.85
333.00 21.56
334.00 29.82
335.00 23.69
336.00 17.45
337.00 15.37
338.00 15.76
339.00 18.61
340.00 25.29
341.00 27.35
342.00 21.16
343.00 19.63
344.00 21.37
345.00 25.66
346.00 25.72
347.00 22.22
348.00 20.98
349.00 21.71
350.00 24.14
351.00 27.88
352.00 30.98
353.00 32.69
354.00 31.50
355.00 26.14
356.00 22.19
357.00 20.12
358.00 19.06
359.00 18.34
