NAME ATR4518R7_1750_X_CO_P45_01T_yyR
FREQUENCY 1750
GAIN 15.20 dBd
TILT	ELECTRICAL
COMMENT DATE 05.08.2013 +45 degrees polarized system Lever position 01T deg
HORIZONTAL 360
0.00 0.01
1.00 0.00
2.00 0.00
3.00 0.01
4.00 0.02
5.00 0.03
6.00 0.06
7.00 0.08
8.00 0.11
9.00 0.15
10.00 0.20
11.00 0.25
12.00 0.31
13.00 0.38
14.00 0.45
15.00 0.54
16.00 0.63
17.00 0.73
18.00 0.84
19.00 0.96
20.00 1.09
21.00 1.23
22.00 1.37
23.00 1.54
24.00 1.71
25.00 1.89
26.00 2.08
27.00 2.28
28.00 2.50
29.00 2.72
30.00 2.95
31.00 3.20
32.00 3.45
33.00 3.71
34.00 3.97
35.00 4.24
36.00 4.52
37.00 4.80
38.00 5.09
39.00 5.37
40.00 5.65
41.00 5.94
42.00 6.21
43.00 6.49
44.00 6.76
45.00 7.02
46.00 7.27
47.00 7.52
48.00 7.75
49.00 7.98
50.00 8.20
51.00 8.41
52.00 8.62
53.00 8.82
54.00 9.01
55.00 9.21
56.00 9.40
57.00 9.59
58.00 9.78
59.00 9.98
60.00 10.17
61.00 10.38
62.00 10.58
63.00 10.79
64.00 11.01
65.00 11.23
66.00 11.46
67.00 11.69
68.00 11.93
69.00 12.17
70.00 12.42
71.00 12.66
72.00 12.92
73.00 13.17
74.00 13.43
75.00 13.68
76.00 13.94
77.00 14.20
78.00 14.46
79.00 14.71
80.00 14.97
81.00 15.23
82.00 15.48
83.00 15.74
84.00 16.00
85.00 16.26
86.00 16.53
87.00 16.79
88.00 17.06
89.00 17.33
90.00 17.61
91.00 17.89
92.00 18.17
93.00 18.45
94.00 18.74
95.00 19.02
96.00 19.31
97.00 19.60
98.00 19.88
99.00 20.16
100.00 20.44
101.00 20.70
102.00 20.96
103.00 21.21
104.00 21.45
105.00 21.69
106.00 21.91
107.00 22.13
108.00 22.33
109.00 22.54
110.00 22.74
111.00 22.94
112.00 23.14
113.00 23.34
114.00 23.55
115.00 23.76
116.00 23.99
117.00 24.22
118.00 24.46
119.00 24.72
120.00 24.98
121.00 25.26
122.00 25.54
123.00 25.83
124.00 26.12
125.00 26.40
126.00 26.68
127.00 26.95
128.00 27.21
129.00 27.45
130.00 27.67
131.00 27.86
132.00 28.04
133.00 28.19
134.00 28.33
135.00 28.45
136.00 28.57
137.00 28.69
138.00 28.82
139.00 28.96
140.00 29.12
141.00 29.31
142.00 29.55
143.00 29.82
144.00 30.14
145.00 30.53
146.00 30.98
147.00 31.50
148.00 32.12
149.00 32.84
150.00 33.68
151.00 34.66
152.00 35.83
153.00 37.23
154.00 38.95
155.00 41.13
156.00 44.02
157.00 48.10
158.00 53.29
159.00 51.61
160.00 46.72
161.00 43.32
162.00 40.91
163.00 39.10
164.00 37.70
165.00 36.58
166.00 35.68
167.00 34.96
168.00 34.40
169.00 33.96
170.00 33.64
171.00 33.42
172.00 33.30
173.00 33.29
174.00 33.36
175.00 33.54
176.00 33.81
177.00 34.19
178.00 34.67
179.00 35.28
180.00 36.01
181.00 36.88
182.00 37.90
183.00 39.03
184.00 40.23
185.00 41.32
186.00 41.98
187.00 41.88
188.00 41.04
189.00 39.79
190.00 38.45
191.00 37.17
192.00 36.02
193.00 35.02
194.00 34.15
195.00 33.40
196.00 32.78
197.00 32.26
198.00 31.85
199.00 31.53
200.00 31.30
201.00 31.16
202.00 31.11
203.00 31.15
204.00 31.28
205.00 31.51
206.00 31.83
207.00 32.26
208.00 32.81
209.00 33.49
210.00 34.31
211.00 35.32
212.00 36.54
213.00 38.02
214.00 39.82
215.00 42.00
216.00 44.44
217.00 46.29
218.00 45.89
219.00 43.78
220.00 41.53
221.00 39.62
222.00 38.08
223.00 36.84
224.00 35.85
225.00 35.06
226.00 34.44
227.00 33.98
228.00 33.64
229.00 33.43
230.00 33.33
231.00 33.34
232.00 33.44
233.00 33.65
234.00 33.95
235.00 34.35
236.00 34.83
237.00 35.39
238.00 36.01
239.00 36.67
240.00 37.34
241.00 37.95
242.00 38.44
243.00 38.75
244.00 38.87
245.00 38.78
246.00 38.55
247.00 38.26
248.00 37.96
249.00 37.71
250.00 37.55
251.00 37.52
252.00 37.62
253.00 37.90
254.00 38.38
255.00 39.11
256.00 40.18
257.00 41.69
258.00 43.87
259.00 47.10
260.00 51.14
261.00 49.89
262.00 44.91
263.00 41.03
264.00 38.08
265.00 35.74
266.00 33.79
267.00 32.12
268.00 30.67
269.00 29.39
270.00 28.24
271.00 27.20
272.00 26.26
273.00 25.39
274.00 24.59
275.00 23.85
276.00 23.16
277.00 22.51
278.00 21.90
279.00 21.32
280.00 20.76
281.00 20.23
282.00 19.72
283.00 19.23
284.00 18.75
285.00 18.27
286.00 17.81
287.00 17.35
288.00 16.90
289.00 16.45
290.00 16.00
291.00 15.56
292.00 15.11
293.00 14.67
294.00 14.23
295.00 13.79
296.00 13.36
297.00 12.92
298.00 12.49
299.00 12.07
300.00 11.64
301.00 11.23
302.00 10.82
303.00 10.41
304.00 10.02
305.00 9.63
306.00 9.24
307.00 8.87
308.00 8.50
309.00 8.14
310.00 7.80
311.00 7.45
312.00 7.12
313.00 6.80
314.00 6.49
315.00 6.18
316.00 5.88
317.00 5.59
318.00 5.31
319.00 5.04
320.00 4.78
321.00 4.52
322.00 4.28
323.00 4.04
324.00 3.81
325.00 3.58
326.00 3.37
327.00 3.16
328.00 2.96
329.00 2.77
330.00 2.59
331.00 2.41
332.00 2.24
333.00 2.08
334.00 1.92
335.00 1.77
336.00 1.63
337.00 1.49
338.00 1.37
339.00 1.24
340.00 1.13
341.00 1.02
342.00 0.92
343.00 0.82
344.00 0.73
345.00 0.65
346.00 0.57
347.00 0.50
348.00 0.43
349.00 0.37
350.00 0.31
351.00 0.26
352.00 0.21
353.00 0.17
354.00 0.13
355.00 0.10
356.00 0.07
357.00 0.05
358.00 0.03
359.00 0.02
VERTICAL 360
0.00 0.30
1.00 0.00
2.00 0.33
3.00 1.34
4.00 3.13
5.00 5.93
6.00 10.27
7.00 17.93
8.00 26.31
9.00 18.94
10.00 16.45
11.00 17.07
12.00 20.55
13.00 30.78
14.00 27.17
15.00 19.43
16.00 16.48
17.00 15.57
18.00 16.18
19.00 18.39
20.00 23.16
21.00 33.02
22.00 26.10
23.00 20.28
24.00 17.95
25.00 17.55
26.00 18.91
27.00 22.69
28.00 33.30
29.00 32.77
30.00 23.68
31.00 20.55
32.00 19.25
33.00 19.11
34.00 20.04
35.00 22.26
36.00 26.38
37.00 33.47
38.00 35.49
39.00 31.63
40.00 30.52
41.00 31.02
42.00 32.68
43.00 36.48
44.00 44.76
45.00 41.27
46.00 34.22
47.00 30.09
48.00 27.49
49.00 26.23
50.00 26.32
51.00 28.01
52.00 31.89
53.00 35.77
54.00 31.61
55.00 27.35
56.00 24.78
57.00 23.10
58.00 21.98
59.00 21.40
60.00 21.40
61.00 21.99
62.00 23.02
63.00 24.27
64.00 25.51
65.00 26.69
66.00 27.94
67.00 29.32
68.00 30.74
69.00 32.01
70.00 32.98
71.00 33.43
72.00 33.26
73.00 32.63
74.00 32.15
75.00 32.42
76.00 33.60
77.00 35.01
78.00 35.36
79.00 34.36
80.00 32.85
81.00 31.56
82.00 30.72
83.00 30.13
84.00 29.49
85.00 28.68
86.00 27.97
87.00 27.76
88.00 28.21
89.00 29.10
90.00 30.06
91.00 31.40
92.00 34.26
93.00 39.72
94.00 41.75
95.00 38.81
96.00 37.27
97.00 35.54
98.00 34.47
99.00 35.82
100.00 41.10
101.00 52.33
102.00 50.48
103.00 51.65
104.00 46.38
105.00 42.56
106.00 42.37
107.00 42.37
108.00 41.43
109.00 41.80
110.00 43.94
111.00 46.15
112.00 45.28
113.00 41.83
114.00 38.87
115.00 36.97
116.00 35.69
117.00 34.71
118.00 34.03
119.00 33.95
120.00 34.85
121.00 36.84
122.00 39.08
123.00 40.48
124.00 41.77
125.00 43.88
126.00 46.12
127.00 45.27
128.00 41.85
129.00 39.14
130.00 37.35
131.00 36.08
132.00 35.37
133.00 35.35
134.00 35.84
135.00 36.42
136.00 36.69
137.00 36.66
138.00 36.60
139.00 36.66
140.00 36.91
141.00 36.91
142.00 35.96
143.00 35.00
144.00 35.31
145.00 36.90
146.00 37.88
147.00 37.37
148.00 37.36
149.00 38.48
150.00 39.84
151.00 39.86
152.00 38.87
153.00 39.10
154.00 42.42
155.00 55.41
156.00 51.22
157.00 45.67
158.00 47.21
159.00 57.38
160.00 55.95
161.00 47.53
162.00 46.76
163.00 50.54
164.00 50.46
165.00 44.72
166.00 41.44
167.00 39.68
168.00 38.82
169.00 38.00
170.00 36.62
171.00 35.71
172.00 36.15
173.00 37.45
174.00 37.94
175.00 37.81
176.00 38.40
177.00 39.11
178.00 38.62
179.00 37.37
180.00 36.23
181.00 36.31
182.00 38.64
183.00 46.59
184.00 53.10
185.00 39.85
186.00 36.08
187.00 34.28
188.00 33.75
189.00 34.36
190.00 35.41
191.00 35.08
192.00 32.97
193.00 30.78
194.00 29.40
195.00 28.97
196.00 29.30
197.00 29.94
198.00 30.37
199.00 30.68
200.00 31.48
201.00 33.38
202.00 37.11
203.00 43.46
204.00 43.22
205.00 38.56
206.00 36.67
207.00 36.37
208.00 36.19
209.00 35.18
210.00 33.84
211.00 32.99
212.00 32.85
213.00 33.26
214.00 33.89
215.00 34.67
216.00 35.51
217.00 35.41
218.00 33.68
219.00 31.79
220.00 31.01
221.00 31.81
222.00 34.48
223.00 38.61
224.00 39.89
225.00 38.33
226.00 37.80
227.00 38.09
228.00 38.43
229.00 38.80
230.00 40.03
231.00 44.02
232.00 54.99
233.00 42.57
234.00 36.08
235.00 33.08
236.00 32.02
237.00 32.54
238.00 34.29
239.00 35.86
240.00 35.77
241.00 34.95
242.00 33.93
243.00 32.75
244.00 31.86
245.00 31.59
246.00 32.05
247.00 33.55
248.00 36.60
249.00 41.92
250.00 50.56
251.00 49.58
252.00 43.42
253.00 40.12
254.00 38.18
255.00 37.12
256.00 36.87
257.00 36.85
258.00 36.37
259.00 35.57
260.00 34.47
261.00 33.50
262.00 33.73
263.00 35.25
264.00 36.06
265.00 35.73
266.00 35.86
267.00 34.75
268.00 32.75
269.00 32.36
270.00 34.20
271.00 38.50
272.00 45.04
273.00 39.76
274.00 34.36
275.00 32.84
276.00 34.23
277.00 36.86
278.00 35.70
279.00 32.76
280.00 30.93
281.00 30.09
282.00 29.63
283.00 28.76
284.00 27.27
285.00 25.56
286.00 24.05
287.00 23.01
288.00 22.51
289.00 22.41
290.00 22.56
291.00 22.91
292.00 23.49
293.00 24.28
294.00 25.25
295.00 26.35
296.00 27.53
297.00 29.00
298.00 31.30
299.00 35.22
300.00 39.90
301.00 36.87
302.00 31.89
303.00 28.34
304.00 25.74
305.00 23.92
306.00 22.75
307.00 21.99
308.00 21.41
309.00 20.85
310.00 20.34
311.00 19.95
312.00 19.77
313.00 19.84
314.00 20.16
315.00 20.57
316.00 20.71
317.00 20.31
318.00 19.48
319.00 18.56
320.00 17.84
321.00 17.46
322.00 17.52
323.00 18.16
324.00 19.71
325.00 22.97
326.00 31.51
327.00 36.07
328.00 23.19
329.00 19.13
330.00 17.28
331.00 16.62
332.00 16.76
333.00 17.53
334.00 19.08
335.00 21.71
336.00 24.76
337.00 24.16
338.00 21.34
339.00 19.85
340.00 20.07
341.00 21.90
342.00 24.13
343.00 23.60
344.00 21.66
345.00 21.03
346.00 22.32
347.00 25.88
348.00 28.92
349.00 24.58
350.00 20.53
351.00 18.67
352.00 19.00
353.00 22.71
354.00 23.90
355.00 14.92
356.00 9.11
357.00 5.39
358.00 2.88
359.00 1.24
