NAME ATR4518R7_2655_X_CO_M45_06T_yyR
FREQUENCY 2655
GAIN 16.12 dBd
TILT	ELECTRICAL
COMMENT DATE 05.08.2013 -45 degrees polarized system Lever position 06T deg
HORIZONTAL 360
0.00 0.01
1.00 0.00
2.00 0.00
3.00 0.01
4.00 0.03
5.00 0.07
6.00 0.12
7.00 0.18
8.00 0.26
9.00 0.35
10.00 0.46
11.00 0.57
12.00 0.70
13.00 0.85
14.00 1.00
15.00 1.17
16.00 1.34
17.00 1.53
18.00 1.70
19.00 1.89
20.00 2.08
21.00 2.27
22.00 2.46
23.00 2.64
24.00 2.83
25.00 3.01
26.00 3.19
27.00 3.36
28.00 3.52
29.00 3.69
30.00 3.87
31.00 4.04
32.00 4.21
33.00 4.39
34.00 4.58
35.00 4.78
36.00 4.99
37.00 5.21
38.00 5.44
39.00 5.69
40.00 5.96
41.00 6.24
42.00 6.55
43.00 6.88
44.00 7.23
45.00 7.59
46.00 7.98
47.00 8.38
48.00 8.80
49.00 9.25
50.00 9.72
51.00 10.19
52.00 10.69
53.00 11.20
54.00 11.74
55.00 12.28
56.00 12.85
57.00 13.44
58.00 14.05
59.00 14.68
60.00 15.32
61.00 15.99
62.00 16.69
63.00 17.41
64.00 18.16
65.00 18.92
66.00 19.71
67.00 20.53
68.00 21.36
69.00 22.19
70.00 23.02
71.00 23.85
72.00 24.66
73.00 25.45
74.00 26.20
75.00 26.92
76.00 27.63
77.00 28.30
78.00 28.97
79.00 29.64
80.00 30.33
81.00 31.03
82.00 31.76
83.00 32.45
84.00 33.08
85.00 33.55
86.00 33.80
87.00 33.77
88.00 33.47
89.00 32.98
90.00 32.40
91.00 31.79
92.00 31.23
93.00 30.74
94.00 30.35
95.00 30.07
96.00 29.89
97.00 29.83
98.00 29.89
99.00 30.06
100.00 30.34
101.00 30.73
102.00 31.22
103.00 31.79
104.00 32.40
105.00 33.02
106.00 33.56
107.00 33.94
108.00 34.10
109.00 34.02
110.00 33.77
111.00 33.40
112.00 33.02
113.00 32.68
114.00 32.42
115.00 32.29
116.00 32.29
117.00 32.44
118.00 32.78
119.00 33.30
120.00 34.05
121.00 35.06
122.00 36.40
123.00 38.16
124.00 40.47
125.00 43.57
126.00 47.10
127.00 47.60
128.00 44.40
129.00 41.36
130.00 39.11
131.00 37.46
132.00 36.27
133.00 35.43
134.00 34.87
135.00 34.55
136.00 34.46
137.00 34.57
138.00 34.88
139.00 35.39
140.00 36.10
141.00 37.01
142.00 38.10
143.00 39.35
144.00 40.66
145.00 41.83
146.00 42.58
147.00 42.73
148.00 42.38
149.00 41.82
150.00 41.29
151.00 40.92
152.00 40.78
153.00 40.88
154.00 41.23
155.00 41.82
156.00 42.57
157.00 43.31
158.00 43.70
159.00 43.37
160.00 42.29
161.00 40.83
162.00 39.31
163.00 37.92
164.00 36.71
165.00 35.69
166.00 34.85
167.00 34.18
168.00 33.67
169.00 33.30
170.00 33.08
171.00 32.98
172.00 33.02
173.00 33.18
174.00 33.47
175.00 33.89
176.00 34.45
177.00 35.15
178.00 35.99
179.00 37.01
180.00 38.22
181.00 39.63
182.00 41.28
183.00 43.23
184.00 45.50
185.00 48.13
186.00 51.01
187.00 53.51
188.00 54.47
189.00 53.91
190.00 52.98
191.00 52.23
192.00 51.68
193.00 51.16
194.00 50.44
195.00 49.38
196.00 48.02
197.00 46.53
198.00 45.06
199.00 43.70
200.00 42.48
201.00 41.43
202.00 40.52
203.00 39.75
204.00 39.11
205.00 38.57
206.00 38.12
207.00 37.74
208.00 37.44
209.00 37.16
210.00 36.93
211.00 36.72
212.00 36.53
213.00 36.35
214.00 36.19
215.00 36.04
216.00 35.90
217.00 35.77
218.00 35.65
219.00 35.53
220.00 35.41
221.00 35.26
222.00 35.08
223.00 34.86
224.00 34.59
225.00 34.27
226.00 33.91
227.00 33.52
228.00 33.13
229.00 32.75
230.00 32.39
231.00 32.07
232.00 31.81
233.00 31.60
234.00 31.46
235.00 31.39
236.00 31.38
237.00 31.44
238.00 31.57
239.00 31.76
240.00 31.99
241.00 32.26
242.00 32.55
243.00 32.85
244.00 33.14
245.00 33.41
246.00 33.64
247.00 33.85
248.00 34.02
249.00 34.18
250.00 34.35
251.00 34.55
252.00 34.81
253.00 35.15
254.00 35.59
255.00 36.18
256.00 36.94
257.00 37.92
258.00 39.19
259.00 40.87
260.00 43.17
261.00 46.54
262.00 52.14
263.00 57.19
264.00 49.56
265.00 44.61
266.00 41.38
267.00 39.00
268.00 37.13
269.00 35.61
270.00 34.33
271.00 33.23
272.00 32.26
273.00 31.39
274.00 30.61
275.00 29.89
276.00 29.22
277.00 28.59
278.00 27.98
279.00 27.39
280.00 26.82
281.00 26.24
282.00 25.68
283.00 25.13
284.00 24.58
285.00 24.04
286.00 23.51
287.00 22.98
288.00 22.46
289.00 21.96
290.00 21.46
291.00 20.96
292.00 20.49
293.00 20.03
294.00 19.57
295.00 19.13
296.00 18.69
297.00 18.25
298.00 17.82
299.00 17.39
300.00 16.96
301.00 16.53
302.00 16.08
303.00 15.64
304.00 15.19
305.00 14.73
306.00 14.27
307.00 13.79
308.00 13.31
309.00 12.83
310.00 12.33
311.00 11.84
312.00 11.34
313.00 10.84
314.00 10.35
315.00 9.86
316.00 9.37
317.00 8.89
318.00 8.42
319.00 7.95
320.00 7.49
321.00 7.05
322.00 6.62
323.00 6.20
324.00 5.81
325.00 5.42
326.00 5.05
327.00 4.69
328.00 4.35
329.00 4.04
330.00 3.73
331.00 3.44
332.00 3.17
333.00 2.91
334.00 2.67
335.00 2.46
336.00 2.25
337.00 2.06
338.00 1.88
339.00 1.71
340.00 1.55
341.00 1.41
342.00 1.28
343.00 1.15
344.00 1.04
345.00 0.93
346.00 0.84
347.00 0.75
348.00 0.67
349.00 0.58
350.00 0.51
351.00 0.43
352.00 0.36
353.00 0.30
354.00 0.24
355.00 0.19
356.00 0.14
357.00 0.09
358.00 0.06
359.00 0.03
VERTICAL 360
0.00 26.44
1.00 24.63
2.00 12.30
3.00 6.13
4.00 2.51
5.00 0.57
6.00 0.00
7.00 0.75
8.00 3.00
9.00 7.49
10.00 18.10
11.00 21.67
12.00 14.00
13.00 14.23
14.00 19.75
15.00 23.08
16.00 15.47
17.00 13.40
18.00 15.00
19.00 20.91
20.00 22.36
21.00 16.58
22.00 15.15
23.00 16.85
24.00 22.82
25.00 32.03
26.00 20.40
27.00 16.88
28.00 16.68
29.00 19.25
30.00 25.44
31.00 32.82
32.00 28.02
33.00 24.00
34.00 20.93
35.00 19.13
36.00 18.69
37.00 19.65
38.00 22.38
39.00 27.99
40.00 35.87
41.00 30.29
42.00 26.97
43.00 26.75
44.00 28.96
45.00 34.66
46.00 35.28
47.00 27.59
48.00 24.32
49.00 23.56
50.00 24.40
51.00 26.29
52.00 28.89
53.00 32.33
54.00 36.52
55.00 39.59
56.00 47.84
57.00 43.37
58.00 33.45
59.00 30.15
60.00 29.38
61.00 30.10
62.00 32.37
63.00 37.56
64.00 43.83
65.00 34.17
66.00 29.06
67.00 26.75
68.00 26.08
69.00 26.19
70.00 26.19
71.00 25.71
72.00 25.32
73.00 25.69
74.00 26.99
75.00 28.52
76.00 29.23
77.00 29.59
78.00 30.52
79.00 32.04
80.00 33.45
81.00 34.36
82.00 36.74
83.00 36.54
84.00 30.42
85.00 27.69
86.00 28.25
87.00 31.74
88.00 36.67
89.00 37.70
90.00 35.31
91.00 33.22
92.00 33.74
93.00 38.48
94.00 48.72
95.00 45.80
96.00 48.63
97.00 43.57
98.00 39.67
99.00 41.89
100.00 52.54
101.00 50.25
102.00 46.87
103.00 44.48
104.00 41.24
105.00 39.53
106.00 38.62
107.00 37.77
108.00 37.23
109.00 37.72
110.00 39.31
111.00 41.71
112.00 45.07
113.00 43.67
114.00 39.15
115.00 36.89
116.00 36.01
117.00 35.49
118.00 35.10
119.00 35.25
120.00 36.25
121.00 37.93
122.00 39.84
123.00 41.08
124.00 41.88
125.00 44.55
126.00 50.77
127.00 56.46
128.00 51.68
129.00 48.51
130.00 45.73
131.00 40.33
132.00 37.31
133.00 37.20
134.00 38.67
135.00 38.88
136.00 36.71
137.00 35.29
138.00 36.75
139.00 40.60
140.00 40.62
141.00 41.39
142.00 44.35
143.00 42.90
144.00 49.54
145.00 44.63
146.00 37.97
147.00 38.48
148.00 39.50
149.00 37.79
150.00 40.98
151.00 57.11
152.00 40.62
153.00 39.21
154.00 39.91
155.00 36.56
156.00 34.21
157.00 33.94
158.00 34.42
159.00 34.84
160.00 36.44
161.00 41.62
162.00 52.79
163.00 42.54
164.00 38.79
165.00 39.45
166.00 49.67
167.00 45.40
168.00 37.92
169.00 37.52
170.00 41.38
171.00 48.33
172.00 58.08
173.00 49.40
174.00 40.43
175.00 36.71
176.00 34.54
177.00 32.62
178.00 31.42
179.00 31.63
180.00 33.52
181.00 36.66
182.00 38.59
183.00 38.00
184.00 37.36
185.00 36.80
186.00 36.45
187.00 36.26
188.00 35.52
189.00 35.17
190.00 35.76
191.00 35.74
192.00 35.17
193.00 36.18
194.00 39.54
195.00 40.98
196.00 37.00
197.00 34.53
198.00 34.21
199.00 35.26
200.00 35.78
201.00 35.11
202.00 35.53
203.00 38.85
204.00 44.84
205.00 42.98
206.00 41.11
207.00 41.29
208.00 41.57
209.00 44.38
210.00 50.68
211.00 43.82
212.00 39.88
213.00 39.00
214.00 40.33
215.00 44.19
216.00 49.19
217.00 56.41
218.00 46.08
219.00 37.75
220.00 34.67
221.00 34.59
222.00 36.81
223.00 40.84
224.00 45.81
225.00 45.36
226.00 40.85
227.00 38.72
228.00 38.41
229.00 37.09
230.00 34.04
231.00 32.13
232.00 32.29
233.00 34.73
234.00 40.15
235.00 49.34
236.00 46.40
237.00 43.03
238.00 41.77
239.00 40.89
240.00 40.63
241.00 39.77
242.00 37.67
243.00 36.29
244.00 36.71
245.00 39.50
246.00 44.04
247.00 41.96
248.00 38.20
249.00 36.42
250.00 35.70
251.00 35.70
252.00 36.29
253.00 37.51
254.00 39.47
255.00 41.08
256.00 41.73
257.00 44.34
258.00 45.30
259.00 38.71
260.00 34.60
261.00 32.43
262.00 31.37
263.00 31.21
264.00 32.07
265.00 33.62
266.00 33.78
267.00 31.84
268.00 30.05
269.00 29.34
270.00 29.90
271.00 31.90
272.00 35.48
273.00 40.67
274.00 44.61
275.00 41.60
276.00 38.20
277.00 36.37
278.00 36.08
279.00 37.12
280.00 38.59
281.00 39.32
282.00 39.33
283.00 39.03
284.00 38.94
285.00 39.32
286.00 40.03
287.00 41.58
288.00 44.06
289.00 44.03
290.00 42.27
291.00 40.45
292.00 36.59
293.00 32.60
294.00 29.48
295.00 27.07
296.00 25.68
297.00 26.00
298.00 29.27
299.00 35.19
300.00 27.49
301.00 21.75
302.00 18.34
303.00 15.87
304.00 13.92
305.00 12.47
306.00 11.59
307.00 11.26
308.00 11.39
309.00 11.99
310.00 13.15
311.00 15.18
312.00 18.70
313.00 25.56
314.00 31.35
315.00 22.98
316.00 20.00
317.00 20.01
318.00 22.56
319.00 26.30
320.00 25.20
321.00 22.87
322.00 22.62
323.00 24.69
324.00 31.88
325.00 31.75
326.00 22.64
327.00 19.59
328.00 19.61
329.00 22.94
330.00 34.42
331.00 26.90
332.00 20.26
333.00 18.54
334.00 20.13
335.00 27.75
336.00 29.17
337.00 19.89
338.00 17.13
339.00 17.13
340.00 19.54
341.00 25.75
342.00 35.05
343.00 27.22
344.00 26.16
345.00 30.72
346.00 40.75
347.00 29.27
348.00 25.32
349.00 24.38
350.00 25.30
351.00 26.88
352.00 26.87
353.00 26.14
354.00 25.97
355.00 25.30
356.00 25.01
357.00 26.63
358.00 26.43
359.00 23.71
