NAME ATR4518R7_1950_X_CO_M45_09T_yyR
FREQUENCY 1950
GAIN 14.79 dBd
TILT	ELECTRICAL
COMMENT DATE 05.08.2013 -45 degrees polarized system Lever position 09T deg
HORIZONTAL 360
0.00 0.11
1.00 0.08
2.00 0.05
3.00 0.03
4.00 0.02
5.00 0.01
6.00 0.00
7.00 0.01
8.00 0.01
9.00 0.03
10.00 0.05
11.00 0.07
12.00 0.10
13.00 0.14
14.00 0.19
15.00 0.24
16.00 0.30
17.00 0.37
18.00 0.45
19.00 0.53
20.00 0.63
21.00 0.73
22.00 0.85
23.00 0.97
24.00 1.11
25.00 1.26
26.00 1.42
27.00 1.59
28.00 1.77
29.00 1.97
30.00 2.18
31.00 2.40
32.00 2.63
33.00 2.88
34.00 3.14
35.00 3.42
36.00 3.71
37.00 4.01
38.00 4.33
39.00 4.66
40.00 5.00
41.00 5.36
42.00 5.72
43.00 6.10
44.00 6.49
45.00 6.89
46.00 7.31
47.00 7.73
48.00 8.16
49.00 8.59
50.00 9.04
51.00 9.48
52.00 9.93
53.00 10.39
54.00 10.84
55.00 11.29
56.00 11.74
57.00 12.18
58.00 12.62
59.00 13.06
60.00 13.48
61.00 13.90
62.00 14.30
63.00 14.70
64.00 15.09
65.00 15.47
66.00 15.83
67.00 16.19
68.00 16.53
69.00 16.87
70.00 17.19
71.00 17.50
72.00 17.81
73.00 18.11
74.00 18.40
75.00 18.68
76.00 18.95
77.00 19.23
78.00 19.49
79.00 19.76
80.00 20.03
81.00 20.30
82.00 20.57
83.00 20.85
84.00 21.14
85.00 21.43
86.00 21.74
87.00 22.07
88.00 22.41
89.00 22.78
90.00 23.17
91.00 23.58
92.00 24.03
93.00 24.51
94.00 25.02
95.00 25.58
96.00 26.18
97.00 26.83
98.00 27.53
99.00 28.31
100.00 29.15
101.00 30.08
102.00 31.10
103.00 32.24
104.00 33.52
105.00 34.96
106.00 36.61
107.00 38.50
108.00 40.64
109.00 42.89
110.00 44.65
111.00 44.85
112.00 43.53
113.00 41.75
114.00 40.10
115.00 38.70
116.00 37.54
117.00 36.57
118.00 35.78
119.00 35.12
120.00 34.58
121.00 34.13
122.00 33.76
123.00 33.46
124.00 33.22
125.00 33.04
126.00 32.90
127.00 32.80
128.00 32.73
129.00 32.70
130.00 32.70
131.00 32.72
132.00 32.76
133.00 32.83
134.00 32.91
135.00 33.01
136.00 33.14
137.00 33.28
138.00 33.45
139.00 33.64
140.00 33.85
141.00 34.10
142.00 34.37
143.00 34.68
144.00 35.02
145.00 35.41
146.00 35.84
147.00 36.32
148.00 36.85
149.00 37.43
150.00 38.07
151.00 38.76
152.00 39.52
153.00 40.34
154.00 41.22
155.00 42.13
156.00 43.07
157.00 43.99
158.00 44.81
159.00 45.44
160.00 45.77
161.00 45.73
162.00 45.35
163.00 44.70
164.00 43.89
165.00 43.00
166.00 42.10
167.00 41.21
168.00 40.36
169.00 39.57
170.00 38.81
171.00 38.12
172.00 37.48
173.00 36.91
174.00 36.39
175.00 35.95
176.00 35.56
177.00 35.24
178.00 35.00
179.00 34.82
180.00 34.72
181.00 34.71
182.00 34.78
183.00 34.94
184.00 35.20
185.00 35.56
186.00 36.05
187.00 36.66
188.00 37.41
189.00 38.32
190.00 39.36
191.00 40.49
192.00 41.55
193.00 42.22
194.00 42.15
195.00 41.28
196.00 39.95
197.00 38.50
198.00 37.11
199.00 35.85
200.00 34.74
201.00 33.76
202.00 32.92
203.00 32.20
204.00 31.57
205.00 31.05
206.00 30.61
207.00 30.25
208.00 29.96
209.00 29.73
210.00 29.57
211.00 29.45
212.00 29.39
213.00 29.36
214.00 29.36
215.00 29.38
216.00 29.41
217.00 29.44
218.00 29.46
219.00 29.45
220.00 29.42
221.00 29.35
222.00 29.25
223.00 29.11
224.00 28.94
225.00 28.74
226.00 28.53
227.00 28.31
228.00 28.09
229.00 27.88
230.00 27.68
231.00 27.50
232.00 27.34
233.00 27.21
234.00 27.09
235.00 26.99
236.00 26.90
237.00 26.82
238.00 26.75
239.00 26.68
240.00 26.59
241.00 26.49
242.00 26.37
243.00 26.21
244.00 26.03
245.00 25.81
246.00 25.56
247.00 25.28
248.00 24.97
249.00 24.65
250.00 24.31
251.00 23.96
252.00 23.60
253.00 23.25
254.00 22.90
255.00 22.56
256.00 22.24
257.00 21.92
258.00 21.62
259.00 21.32
260.00 21.05
261.00 20.78
262.00 20.52
263.00 20.28
264.00 20.04
265.00 19.81
266.00 19.58
267.00 19.36
268.00 19.14
269.00 18.92
270.00 18.70
271.00 18.48
272.00 18.25
273.00 18.02
274.00 17.79
275.00 17.55
276.00 17.30
277.00 17.05
278.00 16.79
279.00 16.53
280.00 16.26
281.00 15.99
282.00 15.71
283.00 15.43
284.00 15.15
285.00 14.87
286.00 14.59
287.00 14.31
288.00 14.02
289.00 13.74
290.00 13.46
291.00 13.18
292.00 12.90
293.00 12.62
294.00 12.35
295.00 12.08
296.00 11.81
297.00 11.54
298.00 11.28
299.00 11.02
300.00 10.76
301.00 10.51
302.00 10.25
303.00 10.00
304.00 9.75
305.00 9.51
306.00 9.26
307.00 9.02
308.00 8.78
309.00 8.54
310.00 8.31
311.00 8.07
312.00 7.84
313.00 7.61
314.00 7.38
315.00 7.15
316.00 6.92
317.00 6.70
318.00 6.47
319.00 6.24
320.00 6.02
321.00 5.80
322.00 5.58
323.00 5.36
324.00 5.14
325.00 4.92
326.00 4.71
327.00 4.49
328.00 4.28
329.00 4.07
330.00 3.87
331.00 3.67
332.00 3.47
333.00 3.27
334.00 3.08
335.00 2.90
336.00 2.72
337.00 2.54
338.00 2.36
339.00 2.20
340.00 2.04
341.00 1.88
342.00 1.73
343.00 1.59
344.00 1.45
345.00 1.32
346.00 1.19
347.00 1.07
348.00 0.96
349.00 0.86
350.00 0.76
351.00 0.66
352.00 0.58
353.00 0.50
354.00 0.43
355.00 0.36
356.00 0.30
357.00 0.24
358.00 0.19
359.00 0.15
VERTICAL 360
0.00 23.48
1.00 21.04
2.00 16.61
3.00 12.13
4.00 8.23
5.00 5.12
6.00 2.80
7.00 1.21
8.00 0.28
9.00 0.00
10.00 0.37
11.00 1.48
12.00 3.56
13.00 7.09
14.00 13.62
15.00 26.12
16.00 16.01
17.00 12.44
18.00 12.26
19.00 14.55
20.00 20.45
21.00 29.62
22.00 19.70
23.00 15.68
24.00 14.41
25.00 14.95
26.00 17.43
27.00 23.71
28.00 39.19
29.00 21.66
30.00 17.35
31.00 15.96
32.00 16.45
33.00 18.77
34.00 23.91
35.00 36.56
36.00 29.09
37.00 23.24
38.00 21.14
39.00 20.71
40.00 21.67
41.00 24.55
42.00 32.16
43.00 36.36
44.00 25.46
45.00 21.55
46.00 19.90
47.00 19.56
48.00 20.18
49.00 21.59
50.00 23.72
51.00 26.47
52.00 29.20
53.00 30.37
54.00 29.93
55.00 29.41
56.00 29.32
57.00 29.59
58.00 30.40
59.00 32.25
60.00 35.70
61.00 41.30
62.00 45.92
63.00 43.87
64.00 42.77
65.00 44.05
66.00 45.48
67.00 42.92
68.00 40.66
69.00 40.46
70.00 40.73
71.00 39.64
72.00 38.48
73.00 38.24
74.00 38.21
75.00 37.15
76.00 34.91
77.00 32.51
78.00 30.70
79.00 29.63
80.00 29.09
81.00 28.64
82.00 27.90
83.00 27.02
84.00 26.50
85.00 26.76
86.00 27.95
87.00 29.77
88.00 31.29
89.00 31.28
90.00 29.65
91.00 27.63
92.00 26.21
93.00 25.69
94.00 25.97
95.00 26.74
96.00 27.56
97.00 28.03
98.00 28.17
99.00 28.31
100.00 28.87
101.00 30.07
102.00 31.87
103.00 33.92
104.00 35.69
105.00 36.95
106.00 37.97
107.00 39.24
108.00 41.04
109.00 42.96
110.00 44.15
111.00 45.29
112.00 47.86
113.00 52.20
114.00 52.50
115.00 48.35
116.00 45.83
117.00 44.81
118.00 43.71
119.00 41.16
120.00 38.54
121.00 37.13
122.00 37.21
123.00 38.95
124.00 42.88
125.00 48.60
126.00 45.85
127.00 41.00
128.00 38.07
129.00 36.18
130.00 35.10
131.00 34.95
132.00 36.00
133.00 38.76
134.00 44.89
135.00 54.48
136.00 43.41
137.00 38.62
138.00 36.05
139.00 34.65
140.00 34.25
141.00 34.88
142.00 36.10
143.00 36.24
144.00 34.56
145.00 32.97
146.00 32.48
147.00 33.27
148.00 35.46
149.00 39.74
150.00 50.29
151.00 48.99
152.00 40.60
153.00 37.37
154.00 35.60
155.00 34.34
156.00 33.65
157.00 34.08
158.00 36.13
159.00 40.02
160.00 43.65
161.00 42.74
162.00 40.57
163.00 39.35
164.00 40.65
165.00 48.82
166.00 44.80
167.00 37.06
168.00 35.07
169.00 36.05
170.00 37.48
171.00 36.05
172.00 34.75
173.00 35.53
174.00 37.55
175.00 38.65
176.00 40.04
177.00 46.92
178.00 47.28
179.00 38.28
180.00 35.82
181.00 36.58
182.00 40.61
183.00 49.43
184.00 47.49
185.00 44.02
186.00 45.30
187.00 49.30
188.00 53.12
189.00 55.16
190.00 44.84
191.00 38.69
192.00 35.85
193.00 35.23
194.00 36.27
195.00 38.20
196.00 39.46
197.00 38.83
198.00 37.57
199.00 37.24
200.00 38.27
201.00 39.64
202.00 39.86
203.00 40.72
204.00 43.34
205.00 39.95
206.00 34.81
207.00 32.17
208.00 31.31
209.00 31.68
210.00 33.09
211.00 35.71
212.00 40.17
213.00 46.28
214.00 44.99
215.00 40.79
216.00 38.37
217.00 37.13
218.00 36.84
219.00 37.27
220.00 38.13
221.00 39.10
222.00 40.16
223.00 41.54
224.00 43.37
225.00 45.17
226.00 46.40
227.00 47.39
228.00 47.77
229.00 46.26
230.00 44.22
231.00 43.36
232.00 44.70
233.00 50.62
234.00 60.58
235.00 47.34
236.00 44.86
237.00 45.78
238.00 45.67
239.00 42.64
240.00 40.94
241.00 41.21
242.00 42.71
243.00 43.60
244.00 42.59
245.00 41.01
246.00 39.87
247.00 39.21
248.00 38.85
249.00 38.82
250.00 39.24
251.00 40.02
252.00 40.84
253.00 41.71
254.00 42.85
255.00 44.70
256.00 48.94
257.00 48.57
258.00 40.33
259.00 35.99
260.00 34.09
261.00 33.86
262.00 34.76
263.00 36.11
264.00 36.97
265.00 36.68
266.00 35.53
267.00 34.27
268.00 33.34
269.00 32.76
270.00 32.49
271.00 32.49
272.00 32.70
273.00 32.83
274.00 32.54
275.00 31.86
276.00 31.27
277.00 31.27
278.00 32.08
279.00 33.70
280.00 36.03
281.00 38.95
282.00 42.68
283.00 49.00
284.00 57.01
285.00 43.02
286.00 37.05
287.00 33.60
288.00 31.47
289.00 30.09
290.00 29.08
291.00 28.26
292.00 27.61
293.00 27.21
294.00 27.18
295.00 27.54
296.00 28.15
297.00 28.64
298.00 28.78
299.00 28.83
300.00 29.18
301.00 29.82
302.00 30.27
303.00 29.87
304.00 28.56
305.00 26.97
306.00 25.70
307.00 24.99
308.00 24.77
309.00 24.69
310.00 24.30
311.00 23.43
312.00 22.37
313.00 21.53
314.00 21.25
315.00 21.83
316.00 23.70
317.00 28.05
318.00 39.68
319.00 30.49
320.00 23.16
321.00 19.43
322.00 17.25
323.00 16.20
324.00 16.15
325.00 16.98
326.00 18.14
327.00 18.18
328.00 16.88
329.00 15.15
330.00 13.68
331.00 12.77
332.00 12.54
333.00 13.03
334.00 14.20
335.00 15.90
336.00 17.79
337.00 19.44
338.00 20.98
339.00 23.36
340.00 27.96
341.00 29.99
342.00 23.38
343.00 19.93
344.00 18.75
345.00 19.26
346.00 21.37
347.00 24.55
348.00 24.82
349.00 21.63
350.00 19.41
351.00 18.81
352.00 19.79
353.00 21.97
354.00 22.94
355.00 20.95
356.00 19.14
357.00 18.81
358.00 19.95
359.00 22.17
