NAME ATR4518R7_2535_X_CO_M45_09T_yyR
FREQUENCY 2535
GAIN 15.01 dBd
TILT	ELECTRICAL
COMMENT DATE 05.08.2013 -45 degrees polarized system Lever position 09T deg
HORIZONTAL 360
0.00 0.01
1.00 0.03
2.00 0.06
3.00 0.10
4.00 0.15
5.00 0.21
6.00 0.27
7.00 0.35
8.00 0.43
9.00 0.52
10.00 0.61
11.00 0.71
12.00 0.82
13.00 0.93
14.00 1.05
15.00 1.17
16.00 1.30
17.00 1.43
18.00 1.57
19.00 1.72
20.00 1.88
21.00 2.04
22.00 2.22
23.00 2.40
24.00 2.60
25.00 2.80
26.00 3.02
27.00 3.25
28.00 3.49
29.00 3.74
30.00 4.01
31.00 4.28
32.00 4.57
33.00 4.87
34.00 5.18
35.00 5.49
36.00 5.82
37.00 6.16
38.00 6.51
39.00 6.87
40.00 7.23
41.00 7.61
42.00 7.99
43.00 8.38
44.00 8.77
45.00 9.17
46.00 9.58
47.00 9.99
48.00 10.41
49.00 10.82
50.00 11.24
51.00 11.66
52.00 12.07
53.00 12.48
54.00 12.88
55.00 13.26
56.00 13.64
57.00 14.00
58.00 14.35
59.00 14.68
60.00 15.00
61.00 15.30
62.00 15.60
63.00 15.89
64.00 16.18
65.00 16.47
66.00 16.77
67.00 17.09
68.00 17.42
69.00 17.78
70.00 18.16
71.00 18.58
72.00 19.01
73.00 19.49
74.00 19.98
75.00 20.51
76.00 21.04
77.00 21.58
78.00 22.12
79.00 22.63
80.00 23.09
81.00 23.49
82.00 23.82
83.00 24.07
84.00 24.24
85.00 24.34
86.00 24.40
87.00 24.43
88.00 24.45
89.00 24.49
90.00 24.56
91.00 24.68
92.00 24.85
93.00 25.09
94.00 25.41
95.00 25.81
96.00 26.30
97.00 26.89
98.00 27.58
99.00 28.39
100.00 29.32
101.00 30.38
102.00 31.57
103.00 32.87
104.00 34.22
105.00 35.51
106.00 36.53
107.00 37.09
108.00 37.13
109.00 36.79
110.00 36.31
111.00 35.86
112.00 35.54
113.00 35.39
114.00 35.45
115.00 35.73
116.00 36.26
117.00 37.07
118.00 38.22
119.00 39.82
120.00 42.05
121.00 45.34
122.00 50.86
123.00 59.59
124.00 50.85
125.00 45.49
126.00 42.32
127.00 40.21
128.00 38.72
129.00 37.67
130.00 36.95
131.00 36.51
132.00 36.31
133.00 36.32
134.00 36.54
135.00 36.97
136.00 37.58
137.00 38.38
138.00 39.32
139.00 40.34
140.00 41.29
141.00 41.94
142.00 42.08
143.00 41.69
144.00 40.99
145.00 40.20
146.00 39.49
147.00 38.93
148.00 38.55
149.00 38.37
150.00 38.41
151.00 38.66
152.00 39.15
153.00 39.91
154.00 40.99
155.00 42.48
156.00 44.52
157.00 47.42
158.00 51.90
159.00 58.81
160.00 55.46
161.00 49.83
162.00 46.45
163.00 44.23
164.00 42.72
165.00 41.68
166.00 41.04
167.00 40.72
168.00 40.71
169.00 41.00
170.00 41.62
171.00 42.63
172.00 44.13
173.00 46.37
174.00 49.77
175.00 54.75
176.00 54.72
177.00 49.20
178.00 45.23
179.00 42.42
180.00 40.32
181.00 38.69
182.00 37.39
183.00 36.35
184.00 35.52
185.00 34.87
186.00 34.37
187.00 34.02
188.00 33.79
189.00 33.69
190.00 33.71
191.00 33.85
192.00 34.10
193.00 34.48
194.00 34.99
195.00 35.62
196.00 36.37
197.00 37.21
198.00 38.09
199.00 38.86
200.00 39.31
201.00 39.26
202.00 38.67
203.00 37.72
204.00 36.63
205.00 35.56
206.00 34.58
207.00 33.74
208.00 33.04
209.00 32.48
210.00 32.07
211.00 31.79
212.00 31.66
213.00 31.67
214.00 31.82
215.00 32.11
216.00 32.53
217.00 33.07
218.00 33.69
219.00 34.30
220.00 34.77
221.00 34.92
222.00 34.62
223.00 33.90
224.00 32.91
225.00 31.83
226.00 30.76
227.00 29.78
228.00 28.91
229.00 28.16
230.00 27.53
231.00 27.01
232.00 26.59
233.00 26.28
234.00 26.07
235.00 25.94
236.00 25.90
237.00 25.94
238.00 26.05
239.00 26.22
240.00 26.44
241.00 26.70
242.00 26.97
243.00 27.25
244.00 27.51
245.00 27.72
246.00 27.87
247.00 27.94
248.00 27.93
249.00 27.84
250.00 27.69
251.00 27.49
252.00 27.27
253.00 27.05
254.00 26.84
255.00 26.66
256.00 26.50
257.00 26.38
258.00 26.30
259.00 26.27
260.00 26.27
261.00 26.31
262.00 26.39
263.00 26.48
264.00 26.60
265.00 26.70
266.00 26.78
267.00 26.82
268.00 26.77
269.00 26.62
270.00 26.35
271.00 25.96
272.00 25.45
273.00 24.85
274.00 24.18
275.00 23.46
276.00 22.72
277.00 21.99
278.00 21.26
279.00 20.56
280.00 19.88
281.00 19.24
282.00 18.62
283.00 18.05
284.00 17.50
285.00 16.98
286.00 16.50
287.00 16.04
288.00 15.60
289.00 15.20
290.00 14.80
291.00 14.44
292.00 14.08
293.00 13.74
294.00 13.40
295.00 13.08
296.00 12.76
297.00 12.44
298.00 12.12
299.00 11.80
300.00 11.48
301.00 11.16
302.00 10.83
303.00 10.50
304.00 10.16
305.00 9.83
306.00 9.49
307.00 9.14
308.00 8.80
309.00 8.46
310.00 8.12
311.00 7.78
312.00 7.45
313.00 7.12
314.00 6.80
315.00 6.48
316.00 6.17
317.00 5.87
318.00 5.58
319.00 5.30
320.00 5.03
321.00 4.77
322.00 4.52
323.00 4.28
324.00 4.06
325.00 3.84
326.00 3.63
327.00 3.43
328.00 3.24
329.00 3.06
330.00 2.89
331.00 2.72
332.00 2.56
333.00 2.41
334.00 2.27
335.00 2.13
336.00 1.99
337.00 1.86
338.00 1.72
339.00 1.60
340.00 1.47
341.00 1.35
342.00 1.23
343.00 1.11
344.00 0.99
345.00 0.88
346.00 0.77
347.00 0.66
348.00 0.56
349.00 0.47
350.00 0.38
351.00 0.30
352.00 0.23
353.00 0.16
354.00 0.11
355.00 0.06
356.00 0.03
357.00 0.01
358.00 0.00
359.00 0.00
VERTICAL 360
0.00 16.41
1.00 15.47
2.00 14.53
3.00 12.94
4.00 10.28
5.00 7.08
6.00 4.17
7.00 1.95
8.00 0.55
9.00 0.00
10.00 0.42
11.00 2.03
12.00 5.36
13.00 12.06
14.00 24.80
15.00 14.19
16.00 11.35
17.00 12.07
18.00 15.65
19.00 20.87
20.00 18.56
21.00 15.74
22.00 16.08
23.00 19.89
24.00 27.98
25.00 23.90
26.00 20.47
27.00 21.77
28.00 28.42
29.00 26.18
30.00 19.45
31.00 16.93
32.00 16.59
33.00 18.06
34.00 22.06
35.00 30.60
36.00 26.22
37.00 21.42
38.00 21.06
39.00 24.18
40.00 31.66
41.00 31.26
42.00 26.24
43.00 24.61
44.00 24.81
45.00 26.87
46.00 32.41
47.00 39.73
48.00 30.41
49.00 27.25
50.00 27.42
51.00 30.03
52.00 35.00
53.00 43.34
54.00 41.60
55.00 33.87
56.00 29.65
57.00 27.40
58.00 26.36
59.00 25.69
60.00 25.13
61.00 25.25
62.00 26.42
63.00 28.03
64.00 28.53
65.00 27.79
66.00 27.44
67.00 28.34
68.00 30.35
69.00 32.15
70.00 32.41
71.00 32.09
72.00 32.80
73.00 35.73
74.00 40.30
75.00 38.82
76.00 35.64
77.00 33.88
78.00 33.42
79.00 35.00
80.00 38.82
81.00 41.71
82.00 38.51
83.00 33.94
84.00 31.58
85.00 30.62
86.00 29.88
87.00 31.17
88.00 40.86
89.00 35.56
90.00 29.17
91.00 29.36
92.00 31.75
93.00 30.38
94.00 29.78
95.00 32.46
96.00 34.45
97.00 32.78
98.00 31.97
99.00 32.29
100.00 34.07
101.00 37.53
102.00 40.27
103.00 39.59
104.00 36.68
105.00 35.27
106.00 36.73
107.00 40.84
108.00 45.35
109.00 45.27
110.00 41.99
111.00 40.87
112.00 41.93
113.00 43.04
114.00 44.16
115.00 46.78
116.00 50.10
117.00 48.80
118.00 44.03
119.00 43.20
120.00 48.13
121.00 59.08
122.00 51.06
123.00 45.82
124.00 39.78
125.00 37.31
126.00 37.93
127.00 40.58
128.00 43.12
129.00 44.15
130.00 43.06
131.00 40.83
132.00 39.03
133.00 37.59
134.00 36.59
135.00 36.36
136.00 37.03
137.00 37.97
138.00 37.82
139.00 37.45
140.00 38.61
141.00 42.22
142.00 48.01
143.00 47.08
144.00 44.09
145.00 43.56
146.00 43.64
147.00 42.60
148.00 39.79
149.00 37.50
150.00 36.66
151.00 35.51
152.00 33.94
153.00 34.16
154.00 37.11
155.00 41.15
156.00 42.16
157.00 44.17
158.00 48.73
159.00 52.72
160.00 51.67
161.00 46.45
162.00 43.63
163.00 42.20
164.00 41.66
165.00 42.22
166.00 44.63
167.00 50.16
168.00 52.81
169.00 50.41
170.00 46.97
171.00 43.72
172.00 43.04
173.00 41.86
174.00 39.44
175.00 37.51
176.00 34.80
177.00 32.41
178.00 31.76
179.00 32.84
180.00 34.59
181.00 36.03
182.00 38.24
183.00 42.70
184.00 46.96
185.00 42.15
186.00 37.22
187.00 34.65
188.00 33.61
189.00 32.87
190.00 32.22
191.00 32.57
192.00 34.73
193.00 39.81
194.00 48.49
195.00 45.25
196.00 41.75
197.00 38.39
198.00 35.00
199.00 33.19
200.00 33.61
201.00 36.92
202.00 43.01
203.00 42.40
204.00 37.80
205.00 34.85
206.00 34.26
207.00 34.71
208.00 33.47
209.00 32.64
210.00 33.90
211.00 36.30
212.00 37.32
213.00 35.98
214.00 35.51
215.00 38.69
216.00 42.03
217.00 37.60
218.00 36.56
219.00 37.70
220.00 38.58
221.00 39.55
222.00 40.35
223.00 40.87
224.00 42.79
225.00 46.16
226.00 50.59
227.00 48.35
228.00 43.08
229.00 40.92
230.00 40.83
231.00 41.64
232.00 42.78
233.00 45.89
234.00 44.93
235.00 40.33
236.00 39.93
237.00 41.17
238.00 38.83
239.00 36.57
240.00 35.79
241.00 35.09
242.00 33.96
243.00 33.36
244.00 34.24
245.00 37.09
246.00 41.55
247.00 44.30
248.00 43.27
249.00 42.92
250.00 44.51
251.00 46.87
252.00 48.98
253.00 47.17
254.00 44.15
255.00 43.53
256.00 43.68
257.00 43.47
258.00 43.33
259.00 43.14
260.00 42.97
261.00 42.72
262.00 43.46
263.00 45.14
264.00 43.20
265.00 40.68
266.00 39.44
267.00 38.17
268.00 36.31
269.00 34.19
270.00 32.69
271.00 32.09
272.00 31.93
273.00 31.64
274.00 31.08
275.00 30.57
276.00 30.40
277.00 30.38
278.00 29.98
279.00 29.09
280.00 28.02
281.00 27.05
282.00 26.14
283.00 25.26
284.00 24.57
285.00 24.33
286.00 24.63
287.00 25.15
288.00 25.36
289.00 25.29
290.00 25.49
291.00 26.41
292.00 28.21
293.00 30.75
294.00 33.10
295.00 33.99
296.00 34.62
297.00 37.75
298.00 42.23
299.00 33.87
300.00 27.69
301.00 23.20
302.00 19.50
303.00 16.48
304.00 14.25
305.00 12.64
306.00 11.51
307.00 10.75
308.00 10.37
309.00 10.44
310.00 11.01
311.00 12.14
312.00 14.02
313.00 16.99
314.00 21.26
315.00 23.20
316.00 19.90
317.00 17.49
318.00 16.76
319.00 17.65
320.00 20.49
321.00 24.99
322.00 24.90
323.00 22.26
324.00 22.21
325.00 25.13
326.00 32.46
327.00 31.12
328.00 24.37
329.00 21.95
330.00 22.56
331.00 27.72
332.00 32.57
333.00 22.26
334.00 18.63
335.00 18.41
336.00 22.43
337.00 39.34
338.00 19.70
339.00 14.21
340.00 11.90
341.00 11.40
342.00 12.36
343.00 14.86
344.00 19.56
345.00 30.77
346.00 29.94
347.00 23.00
348.00 21.89
349.00 22.98
350.00 24.14
351.00 23.92
352.00 24.12
353.00 25.37
354.00 25.82
355.00 25.33
356.00 24.86
357.00 22.82
358.00 19.94
359.00 17.78
