NAME ATR4518R7_1950_X_CO_M45_07T_yL
FREQUENCY 1950
GAIN 15.27 dBd
TILT	ELECTRICAL
COMMENT DATE 05.08.2013 -45 degrees polarized system Lever position 07T deg
HORIZONTAL 360
0.00 0.00
1.00 0.00
2.00 0.01
3.00 0.02
4.00 0.03
5.00 0.05
6.00 0.07
7.00 0.10
8.00 0.13
9.00 0.16
10.00 0.20
11.00 0.24
12.00 0.28
13.00 0.34
14.00 0.39
15.00 0.46
16.00 0.52
17.00 0.60
18.00 0.68
19.00 0.77
20.00 0.87
21.00 0.97
22.00 1.08
23.00 1.20
24.00 1.33
25.00 1.47
26.00 1.61
27.00 1.76
28.00 1.92
29.00 2.09
30.00 2.27
31.00 2.46
32.00 2.65
33.00 2.85
34.00 3.06
35.00 3.28
36.00 3.51
37.00 3.75
38.00 3.99
39.00 4.24
40.00 4.51
41.00 4.77
42.00 5.05
43.00 5.33
44.00 5.63
45.00 5.92
46.00 6.23
47.00 6.54
48.00 6.85
49.00 7.17
50.00 7.50
51.00 7.82
52.00 8.15
53.00 8.48
54.00 8.82
55.00 9.15
56.00 9.48
57.00 9.82
58.00 10.16
59.00 10.49
60.00 10.83
61.00 11.16
62.00 11.49
63.00 11.83
64.00 12.17
65.00 12.50
66.00 12.84
67.00 13.17
68.00 13.51
69.00 13.85
70.00 14.20
71.00 14.54
72.00 14.88
73.00 15.23
74.00 15.57
75.00 15.91
76.00 16.26
77.00 16.60
78.00 16.93
79.00 17.26
80.00 17.58
81.00 17.90
82.00 18.21
83.00 18.52
84.00 18.82
85.00 19.12
86.00 19.42
87.00 19.72
88.00 20.03
89.00 20.34
90.00 20.66
91.00 20.99
92.00 21.34
93.00 21.71
94.00 22.10
95.00 22.51
96.00 22.96
97.00 23.42
98.00 23.92
99.00 24.43
100.00 24.97
101.00 25.51
102.00 26.04
103.00 26.55
104.00 27.01
105.00 27.39
106.00 27.69
107.00 27.87
108.00 27.94
109.00 27.90
110.00 27.78
111.00 27.60
112.00 27.39
113.00 27.17
114.00 26.96
115.00 26.77
116.00 26.61
117.00 26.49
118.00 26.40
119.00 26.36
120.00 26.34
121.00 26.37
122.00 26.42
123.00 26.49
124.00 26.58
125.00 26.68
126.00 26.78
127.00 26.88
128.00 26.97
129.00 27.05
130.00 27.11
131.00 27.17
132.00 27.21
133.00 27.24
134.00 27.26
135.00 27.29
136.00 27.30
137.00 27.32
138.00 27.35
139.00 27.39
140.00 27.43
141.00 27.49
142.00 27.57
143.00 27.67
144.00 27.79
145.00 27.94
146.00 28.12
147.00 28.34
148.00 28.61
149.00 28.92
150.00 29.28
151.00 29.69
152.00 30.14
153.00 30.63
154.00 31.13
155.00 31.59
156.00 31.98
157.00 32.22
158.00 32.25
159.00 32.07
160.00 31.69
161.00 31.18
162.00 30.61
163.00 30.03
164.00 29.49
165.00 29.01
166.00 28.63
167.00 28.34
168.00 28.16
169.00 28.09
170.00 28.14
171.00 28.31
172.00 28.62
173.00 29.07
174.00 29.66
175.00 30.41
176.00 31.30
177.00 32.31
178.00 33.37
179.00 34.28
180.00 34.79
181.00 34.66
182.00 33.96
183.00 32.94
184.00 31.87
185.00 30.88
186.00 30.03
187.00 29.35
188.00 28.84
189.00 28.49
190.00 28.31
191.00 28.30
192.00 28.46
193.00 28.81
194.00 29.37
195.00 30.17
196.00 31.26
197.00 32.73
198.00 34.75
199.00 37.68
200.00 42.48
201.00 53.47
202.00 46.67
203.00 39.61
204.00 35.78
205.00 33.22
206.00 31.36
207.00 29.94
208.00 28.86
209.00 28.03
210.00 27.42
211.00 26.99
212.00 26.73
213.00 26.63
214.00 26.69
215.00 26.91
216.00 27.29
217.00 27.84
218.00 28.60
219.00 29.58
220.00 30.86
221.00 32.49
222.00 34.58
223.00 37.19
224.00 39.81
225.00 40.07
226.00 37.54
227.00 34.72
228.00 32.39
229.00 30.54
230.00 29.04
231.00 27.82
232.00 26.81
233.00 25.99
234.00 25.30
235.00 24.75
236.00 24.29
237.00 23.94
238.00 23.65
239.00 23.44
240.00 23.30
241.00 23.20
242.00 23.14
243.00 23.11
244.00 23.11
245.00 23.11
246.00 23.11
247.00 23.09
248.00 23.06
249.00 22.98
250.00 22.87
251.00 22.72
252.00 22.53
253.00 22.31
254.00 22.06
255.00 21.80
256.00 21.52
257.00 21.25
258.00 20.97
259.00 20.71
260.00 20.45
261.00 20.21
262.00 19.98
263.00 19.76
264.00 19.55
265.00 19.34
266.00 19.14
267.00 18.92
268.00 18.70
269.00 18.47
270.00 18.22
271.00 17.95
272.00 17.67
273.00 17.36
274.00 17.04
275.00 16.70
276.00 16.35
277.00 15.99
278.00 15.63
279.00 15.26
280.00 14.90
281.00 14.55
282.00 14.20
283.00 13.85
284.00 13.52
285.00 13.19
286.00 12.88
287.00 12.57
288.00 12.27
289.00 11.98
290.00 11.69
291.00 11.42
292.00 11.14
293.00 10.86
294.00 10.59
295.00 10.32
296.00 10.05
297.00 9.78
298.00 9.51
299.00 9.24
300.00 8.98
301.00 8.71
302.00 8.45
303.00 8.19
304.00 7.94
305.00 7.69
306.00 7.44
307.00 7.21
308.00 6.98
309.00 6.76
310.00 6.54
311.00 6.33
312.00 6.13
313.00 5.94
314.00 5.75
315.00 5.57
316.00 5.39
317.00 5.22
318.00 5.05
319.00 4.88
320.00 4.71
321.00 4.54
322.00 4.37
323.00 4.21
324.00 4.04
325.00 3.87
326.00 3.69
327.00 3.52
328.00 3.35
329.00 3.18
330.00 3.00
331.00 2.83
332.00 2.66
333.00 2.49
334.00 2.32
335.00 2.16
336.00 2.00
337.00 1.84
338.00 1.69
339.00 1.54
340.00 1.40
341.00 1.26
342.00 1.13
343.00 1.00
344.00 0.89
345.00 0.78
346.00 0.67
347.00 0.58
348.00 0.49
349.00 0.40
350.00 0.33
351.00 0.27
352.00 0.21
353.00 0.16
354.00 0.12
355.00 0.08
356.00 0.05
357.00 0.03
358.00 0.01
359.00 0.00
VERTICAL 360
0.00 17.25
1.00 12.07
2.00 7.84
3.00 4.65
4.00 2.36
5.00 0.86
6.00 0.10
7.00 0.08
8.00 0.83
9.00 2.45
10.00 5.23
11.00 9.92
12.00 18.99
13.00 18.80
14.00 12.97
15.00 11.25
16.00 11.60
17.00 13.49
18.00 16.52
19.00 18.74
20.00 17.39
21.00 15.45
22.00 14.76
23.00 15.64
24.00 18.52
25.00 24.89
26.00 29.39
27.00 22.20
28.00 19.48
29.00 19.20
30.00 20.78
31.00 24.11
32.00 27.39
33.00 25.36
34.00 22.32
35.00 20.47
36.00 19.66
37.00 19.88
38.00 21.32
39.00 23.89
40.00 24.75
41.00 21.69
42.00 18.72
43.00 16.79
44.00 15.62
45.00 15.04
46.00 14.96
47.00 15.41
48.00 16.35
49.00 17.74
50.00 19.52
51.00 21.72
52.00 24.56
53.00 28.44
54.00 33.63
55.00 38.52
56.00 40.99
57.00 39.04
58.00 32.53
59.00 28.16
60.00 25.76
61.00 24.67
62.00 24.42
63.00 24.57
64.00 24.79
65.00 24.99
66.00 25.33
67.00 26.03
68.00 27.16
69.00 28.61
70.00 30.07
71.00 31.18
72.00 31.90
73.00 32.72
74.00 34.03
75.00 35.80
76.00 37.69
77.00 38.50
78.00 37.39
79.00 36.43
80.00 37.17
81.00 39.93
82.00 43.01
83.00 43.03
84.00 43.72
85.00 48.60
86.00 55.87
87.00 45.88
88.00 42.24
89.00 40.60
90.00 39.09
91.00 37.37
92.00 35.92
93.00 34.95
94.00 34.48
95.00 34.68
96.00 35.61
97.00 36.78
98.00 37.46
99.00 37.68
100.00 37.74
101.00 37.78
102.00 38.42
103.00 40.33
104.00 43.11
105.00 44.66
106.00 45.14
107.00 45.82
108.00 45.91
109.00 45.89
110.00 46.04
111.00 44.89
112.00 43.21
113.00 42.18
114.00 41.54
115.00 40.97
116.00 40.70
117.00 41.07
118.00 42.43
119.00 45.52
120.00 52.77
121.00 62.47
122.00 50.50
123.00 48.74
124.00 51.84
125.00 53.69
126.00 45.30
127.00 40.65
128.00 38.00
129.00 36.38
130.00 35.47
131.00 35.17
132.00 35.33
133.00 35.81
134.00 36.60
135.00 37.81
136.00 39.14
137.00 39.58
138.00 38.49
139.00 36.93
140.00 36.04
141.00 36.41
142.00 38.42
143.00 42.48
144.00 47.62
145.00 45.76
146.00 41.34
147.00 37.56
148.00 34.92
149.00 33.71
150.00 33.86
151.00 34.59
152.00 34.55
153.00 33.90
154.00 33.59
155.00 33.32
156.00 32.42
157.00 31.41
158.00 31.07
159.00 31.63
160.00 33.04
161.00 35.27
162.00 38.44
163.00 43.30
164.00 50.64
165.00 46.62
166.00 41.94
167.00 39.68
168.00 38.48
169.00 37.71
170.00 37.13
171.00 36.58
172.00 35.91
173.00 35.16
174.00 34.49
175.00 34.10
176.00 34.33
177.00 35.52
178.00 37.85
179.00 40.78
180.00 42.19
181.00 41.52
182.00 40.43
183.00 39.26
184.00 37.94
185.00 36.63
186.00 35.54
187.00 34.73
188.00 34.28
189.00 34.37
190.00 35.22
191.00 36.58
192.00 37.52
193.00 37.46
194.00 37.09
195.00 37.08
196.00 37.81
197.00 39.19
198.00 40.04
199.00 40.24
200.00 41.27
201.00 39.37
202.00 34.76
203.00 32.17
204.00 32.05
205.00 34.45
206.00 37.29
207.00 34.05
208.00 30.83
209.00 29.45
210.00 29.35
211.00 30.14
212.00 31.77
213.00 34.56
214.00 39.70
215.00 54.21
216.00 42.33
217.00 36.39
218.00 33.79
219.00 32.98
220.00 33.57
221.00 35.18
222.00 36.79
223.00 37.52
224.00 38.37
225.00 40.88
226.00 46.61
227.00 47.45
228.00 40.84
229.00 37.69
230.00 36.66
231.00 37.00
232.00 38.11
233.00 39.67
234.00 42.19
235.00 46.52
236.00 46.03
237.00 40.98
238.00 38.23
239.00 37.40
240.00 37.98
241.00 39.67
242.00 42.75
243.00 49.27
244.00 48.27
245.00 40.83
246.00 37.36
247.00 35.92
248.00 35.85
249.00 36.95
250.00 39.17
251.00 42.31
252.00 45.08
253.00 43.88
254.00 40.20
255.00 37.36
256.00 35.67
257.00 34.73
258.00 34.10
259.00 33.49
260.00 32.96
261.00 32.75
262.00 33.09
263.00 33.86
264.00 34.44
265.00 33.99
266.00 32.60
267.00 31.03
268.00 29.83
269.00 29.09
270.00 28.69
271.00 28.38
272.00 27.93
273.00 27.21
274.00 26.30
275.00 25.45
276.00 24.85
277.00 24.55
278.00 24.52
279.00 24.67
280.00 24.85
281.00 24.92
282.00 24.87
283.00 24.74
284.00 24.61
285.00 24.61
286.00 24.82
287.00 25.22
288.00 25.72
289.00 26.21
290.00 26.70
291.00 27.32
292.00 28.19
293.00 29.21
294.00 29.75
295.00 28.87
296.00 26.75
297.00 24.50
298.00 22.75
299.00 21.72
300.00 21.43
301.00 21.84
302.00 22.76
303.00 24.03
304.00 25.67
305.00 27.93
306.00 30.25
307.00 29.52
308.00 26.52
309.00 24.16
310.00 22.79
311.00 22.11
312.00 21.93
313.00 22.39
314.00 24.08
315.00 28.26
316.00 36.64
317.00 28.37
318.00 23.19
319.00 20.80
320.00 19.94
321.00 20.18
322.00 21.43
323.00 23.93
324.00 28.43
325.00 30.20
326.00 24.06
327.00 20.00
328.00 17.85
329.00 17.14
330.00 17.70
331.00 19.60
332.00 23.28
333.00 30.24
334.00 41.13
335.00 32.85
336.00 32.71
337.00 41.21
338.00 30.36
339.00 23.45
340.00 20.17
341.00 18.96
342.00 19.47
343.00 21.96
344.00 27.88
345.00 36.86
346.00 26.02
347.00 22.01
348.00 20.82
349.00 21.96
350.00 26.95
351.00 36.82
352.00 24.44
353.00 19.78
354.00 17.70
355.00 17.13
356.00 17.43
357.00 18.65
358.00 20.63
359.00 20.54
