NAME ATR4518R7_1750_X_CO_P45_04T_yyR
FREQUENCY 1750
GAIN 15.11 dBd
TILT	ELECTRICAL
COMMENT DATE 05.08.2013 +45 degrees polarized system Lever position 04T deg
HORIZONTAL 360
0.00 0.00
1.00 0.00
2.00 0.00
3.00 0.01
4.00 0.02
5.00 0.04
6.00 0.06
7.00 0.09
8.00 0.12
9.00 0.17
10.00 0.22
11.00 0.27
12.00 0.34
13.00 0.41
14.00 0.49
15.00 0.58
16.00 0.68
17.00 0.79
18.00 0.91
19.00 1.04
20.00 1.17
21.00 1.32
22.00 1.47
23.00 1.64
24.00 1.82
25.00 2.00
26.00 2.19
27.00 2.40
28.00 2.61
29.00 2.83
30.00 3.05
31.00 3.29
32.00 3.53
33.00 3.77
34.00 4.02
35.00 4.28
36.00 4.53
37.00 4.79
38.00 5.05
39.00 5.31
40.00 5.57
41.00 5.82
42.00 6.08
43.00 6.32
44.00 6.57
45.00 6.81
46.00 7.05
47.00 7.28
48.00 7.50
49.00 7.73
50.00 7.95
51.00 8.16
52.00 8.37
53.00 8.58
54.00 8.79
55.00 8.99
56.00 9.20
57.00 9.40
58.00 9.60
59.00 9.81
60.00 10.02
61.00 10.23
62.00 10.43
63.00 10.64
64.00 10.86
65.00 11.07
66.00 11.29
67.00 11.51
68.00 11.73
69.00 11.95
70.00 12.18
71.00 12.41
72.00 12.65
73.00 12.89
74.00 13.13
75.00 13.38
76.00 13.63
77.00 13.89
78.00 14.15
79.00 14.42
80.00 14.69
81.00 14.97
82.00 15.25
83.00 15.54
84.00 15.83
85.00 16.13
86.00 16.43
87.00 16.74
88.00 17.04
89.00 17.35
90.00 17.65
91.00 17.96
92.00 18.26
93.00 18.55
94.00 18.84
95.00 19.12
96.00 19.39
97.00 19.65
98.00 19.90
99.00 20.15
100.00 20.38
101.00 20.60
102.00 20.82
103.00 21.03
104.00 21.23
105.00 21.43
106.00 21.63
107.00 21.83
108.00 22.03
109.00 22.23
110.00 22.43
111.00 22.63
112.00 22.84
113.00 23.05
114.00 23.26
115.00 23.47
116.00 23.68
117.00 23.88
118.00 24.08
119.00 24.27
120.00 24.46
121.00 24.64
122.00 24.81
123.00 24.97
124.00 25.13
125.00 25.28
126.00 25.43
127.00 25.59
128.00 25.75
129.00 25.92
130.00 26.11
131.00 26.31
132.00 26.54
133.00 26.80
134.00 27.09
135.00 27.42
136.00 27.79
137.00 28.22
138.00 28.70
139.00 29.23
140.00 29.85
141.00 30.54
142.00 31.32
143.00 32.21
144.00 33.23
145.00 34.39
146.00 35.75
147.00 37.35
148.00 39.28
149.00 41.71
150.00 44.97
151.00 49.86
152.00 58.83
153.00 55.09
154.00 48.61
155.00 45.04
156.00 42.70
157.00 41.01
158.00 39.75
159.00 38.77
160.00 38.00
161.00 37.40
162.00 36.92
163.00 36.54
164.00 36.24
165.00 36.00
166.00 35.80
167.00 35.64
168.00 35.50
169.00 35.37
170.00 35.27
171.00 35.17
172.00 35.08
173.00 35.02
174.00 34.98
175.00 34.97
176.00 35.00
177.00 35.07
178.00 35.21
179.00 35.41
180.00 35.69
181.00 36.06
182.00 36.54
183.00 37.15
184.00 37.92
185.00 38.87
186.00 40.06
187.00 41.59
188.00 43.59
189.00 46.35
190.00 50.66
191.00 59.96
192.00 60.43
193.00 50.75
194.00 46.35
195.00 43.52
196.00 41.48
197.00 39.92
198.00 38.71
199.00 37.76
200.00 37.02
201.00 36.45
202.00 36.04
203.00 35.78
204.00 35.64
205.00 35.64
206.00 35.76
207.00 36.02
208.00 36.42
209.00 36.97
210.00 37.68
211.00 38.56
212.00 39.63
213.00 40.88
214.00 42.24
215.00 43.49
216.00 44.15
217.00 43.80
218.00 42.60
219.00 41.06
220.00 39.54
221.00 38.17
222.00 36.97
223.00 35.95
224.00 35.08
225.00 34.34
226.00 33.73
227.00 33.23
228.00 32.83
229.00 32.53
230.00 32.31
231.00 32.17
232.00 32.11
233.00 32.12
234.00 32.20
235.00 32.36
236.00 32.58
237.00 32.88
238.00 33.25
239.00 33.69
240.00 34.20
241.00 34.79
242.00 35.45
243.00 36.20
244.00 37.03
245.00 37.95
246.00 38.96
247.00 40.08
248.00 41.30
249.00 42.64
250.00 44.09
251.00 45.64
252.00 47.22
253.00 48.70
254.00 49.72
255.00 49.89
256.00 49.11
257.00 47.71
258.00 46.05
259.00 44.37
260.00 42.74
261.00 41.18
262.00 39.71
263.00 38.32
264.00 37.01
265.00 35.77
266.00 34.59
267.00 33.48
268.00 32.42
269.00 31.42
270.00 30.48
271.00 29.57
272.00 28.71
273.00 27.89
274.00 27.10
275.00 26.34
276.00 25.61
277.00 24.91
278.00 24.24
279.00 23.58
280.00 22.95
281.00 22.33
282.00 21.73
283.00 21.14
284.00 20.57
285.00 20.00
286.00 19.45
287.00 18.91
288.00 18.37
289.00 17.84
290.00 17.32
291.00 16.81
292.00 16.31
293.00 15.81
294.00 15.32
295.00 14.83
296.00 14.36
297.00 13.88
298.00 13.42
299.00 12.96
300.00 12.51
301.00 12.07
302.00 11.63
303.00 11.20
304.00 10.78
305.00 10.37
306.00 9.96
307.00 9.57
308.00 9.18
309.00 8.79
310.00 8.42
311.00 8.05
312.00 7.70
313.00 7.35
314.00 7.00
315.00 6.67
316.00 6.35
317.00 6.04
318.00 5.73
319.00 5.43
320.00 5.14
321.00 4.86
322.00 4.59
323.00 4.32
324.00 4.07
325.00 3.82
326.00 3.58
327.00 3.36
328.00 3.14
329.00 2.92
330.00 2.72
331.00 2.53
332.00 2.34
333.00 2.16
334.00 1.99
335.00 1.83
336.00 1.68
337.00 1.54
338.00 1.40
339.00 1.27
340.00 1.15
341.00 1.03
342.00 0.93
343.00 0.83
344.00 0.73
345.00 0.65
346.00 0.57
347.00 0.49
348.00 0.42
349.00 0.36
350.00 0.30
351.00 0.25
352.00 0.20
353.00 0.16
354.00 0.12
355.00 0.09
356.00 0.06
357.00 0.04
358.00 0.02
359.00 0.01
VERTICAL 360
0.00 5.59
1.00 2.98
2.00 1.26
3.00 0.29
4.00 0.00
5.00 0.38
6.00 1.46
7.00 3.35
8.00 6.27
9.00 10.82
10.00 19.22
11.00 26.57
12.00 17.76
13.00 15.43
14.00 16.09
15.00 19.82
16.00 31.66
17.00 24.62
18.00 17.63
19.00 14.95
20.00 14.13
21.00 14.64
22.00 16.52
23.00 20.41
24.00 29.97
25.00 34.07
26.00 23.29
27.00 20.32
28.00 19.74
29.00 20.96
30.00 24.48
31.00 31.75
32.00 28.90
33.00 22.59
34.00 19.75
35.00 18.69
36.00 18.81
37.00 19.81
38.00 21.62
39.00 24.61
40.00 29.80
41.00 32.96
42.00 27.61
43.00 24.21
44.00 22.81
45.00 22.63
46.00 23.33
47.00 24.76
48.00 26.88
49.00 29.37
50.00 30.54
51.00 29.54
52.00 28.52
53.00 28.62
54.00 29.97
55.00 32.83
56.00 39.16
57.00 44.81
58.00 33.62
59.00 28.76
60.00 26.39
61.00 25.37
62.00 25.04
63.00 24.90
64.00 24.68
65.00 24.49
66.00 24.57
67.00 25.00
68.00 25.64
69.00 26.15
70.00 26.31
71.00 26.17
72.00 25.97
73.00 25.86
74.00 25.77
75.00 25.75
76.00 25.90
77.00 26.21
78.00 26.60
79.00 26.94
80.00 27.07
81.00 26.95
82.00 26.78
83.00 26.76
84.00 27.00
85.00 27.58
86.00 28.38
87.00 29.14
88.00 29.73
89.00 30.13
90.00 30.18
91.00 29.81
92.00 29.35
93.00 29.27
94.00 29.83
95.00 31.02
96.00 32.52
97.00 33.78
98.00 34.31
99.00 34.18
100.00 33.98
101.00 34.27
102.00 35.40
103.00 37.73
104.00 41.49
105.00 46.07
106.00 50.37
107.00 53.38
108.00 50.17
109.00 47.19
110.00 46.68
111.00 47.44
112.00 47.24
113.00 44.39
114.00 40.96
115.00 38.45
116.00 36.92
117.00 36.18
118.00 36.17
119.00 37.11
120.00 39.38
121.00 42.32
122.00 41.48
123.00 38.33
124.00 36.45
125.00 35.72
126.00 35.52
127.00 35.40
128.00 35.28
129.00 35.38
130.00 35.99
131.00 37.41
132.00 39.90
133.00 43.40
134.00 46.85
135.00 47.90
136.00 45.25
137.00 41.09
138.00 37.75
139.00 35.83
140.00 35.32
141.00 35.73
142.00 36.32
143.00 37.19
144.00 39.35
145.00 41.59
146.00 40.09
147.00 38.56
148.00 39.23
149.00 41.39
150.00 42.80
151.00 40.81
152.00 37.60
153.00 35.85
154.00 36.25
155.00 39.19
156.00 45.60
157.00 51.53
158.00 50.77
159.00 49.60
160.00 42.79
161.00 38.56
162.00 37.19
163.00 37.65
164.00 38.56
165.00 38.66
166.00 38.73
167.00 40.23
168.00 43.08
169.00 40.89
170.00 36.27
171.00 34.13
172.00 34.06
173.00 34.87
174.00 35.10
175.00 35.19
176.00 36.29
177.00 37.87
178.00 38.67
179.00 39.79
180.00 43.37
181.00 57.37
182.00 48.56
183.00 40.16
184.00 36.47
185.00 34.56
186.00 33.55
187.00 33.16
188.00 33.52
189.00 34.34
190.00 34.11
191.00 32.25
192.00 30.24
193.00 28.98
194.00 28.73
195.00 29.54
196.00 30.88
197.00 31.51
198.00 31.46
199.00 32.23
200.00 34.93
201.00 40.31
202.00 43.75
203.00 39.64
204.00 36.82
205.00 35.54
206.00 35.47
207.00 36.56
208.00 37.53
209.00 35.92
210.00 33.39
211.00 31.96
212.00 31.81
213.00 32.57
214.00 33.36
215.00 33.23
216.00 32.41
217.00 31.55
218.00 30.89
219.00 30.64
220.00 31.18
221.00 33.02
222.00 36.43
223.00 39.50
224.00 38.68
225.00 37.68
226.00 38.35
227.00 39.48
228.00 38.98
229.00 37.17
230.00 35.56
231.00 34.59
232.00 34.09
233.00 33.70
234.00 33.33
235.00 33.36
236.00 34.23
237.00 35.73
238.00 35.66
239.00 33.32
240.00 31.50
241.00 31.15
242.00 32.11
243.00 33.77
244.00 35.22
245.00 36.25
246.00 37.38
247.00 38.33
248.00 37.58
249.00 35.64
250.00 34.40
251.00 34.33
252.00 35.02
253.00 35.64
254.00 35.90
255.00 36.65
256.00 39.37
257.00 45.86
258.00 46.96
259.00 42.96
260.00 43.29
261.00 44.19
262.00 42.08
263.00 38.11
264.00 34.42
265.00 32.55
266.00 32.77
267.00 34.58
268.00 36.00
269.00 34.01
270.00 30.44
271.00 28.00
272.00 27.19
273.00 27.66
274.00 28.64
275.00 29.43
276.00 29.59
277.00 28.82
278.00 28.13
279.00 28.58
280.00 30.26
281.00 32.48
282.00 34.17
283.00 34.40
284.00 34.28
285.00 36.44
286.00 45.90
287.00 42.75
288.00 34.74
289.00 31.38
290.00 29.34
291.00 27.96
292.00 26.74
293.00 25.19
294.00 23.47
295.00 22.02
296.00 21.07
297.00 20.68
298.00 20.88
299.00 21.59
300.00 22.73
301.00 24.34
302.00 26.68
303.00 30.12
304.00 33.45
305.00 31.73
306.00 27.89
307.00 25.00
308.00 22.91
309.00 21.40
310.00 20.36
311.00 19.72
312.00 19.48
313.00 19.66
314.00 20.34
315.00 21.59
316.00 23.32
317.00 25.14
318.00 26.51
319.00 27.50
320.00 28.81
321.00 30.03
322.00 28.41
323.00 25.02
324.00 22.53
325.00 21.39
326.00 21.52
327.00 22.94
328.00 25.77
329.00 29.63
330.00 29.94
331.00 25.34
332.00 21.01
333.00 17.76
334.00 15.63
335.00 14.67
336.00 15.02
337.00 16.96
338.00 21.27
339.00 28.30
340.00 25.79
341.00 21.45
342.00 20.15
343.00 20.66
344.00 22.10
345.00 22.96
346.00 22.06
347.00 20.50
348.00 19.50
349.00 19.68
350.00 21.74
351.00 27.63
352.00 29.98
353.00 21.82
354.00 18.37
355.00 17.72
356.00 19.43
357.00 20.38
358.00 14.82
359.00 9.37
