NAME ATR4518R7_2140_X_CO_P45_09T_yL
FREQUENCY 2140
GAIN 15.17 dBd
TILT	ELECTRICAL
COMMENT DATE 05.08.2013 +45 degrees polarized system Lever position 09T deg
HORIZONTAL 360
0.00 0.00
1.00 0.00
2.00 0.01
3.00 0.02
4.00 0.03
5.00 0.06
6.00 0.09
7.00 0.12
8.00 0.17
9.00 0.21
10.00 0.27
11.00 0.33
12.00 0.39
13.00 0.46
14.00 0.53
15.00 0.60
16.00 0.68
17.00 0.76
18.00 0.85
19.00 0.94
20.00 1.03
21.00 1.13
22.00 1.23
23.00 1.34
24.00 1.46
25.00 1.58
26.00 1.71
27.00 1.86
28.00 2.01
29.00 2.17
30.00 2.34
31.00 2.52
32.00 2.72
33.00 2.93
34.00 3.14
35.00 3.37
36.00 3.62
37.00 3.87
38.00 4.14
39.00 4.41
40.00 4.69
41.00 4.99
42.00 5.29
43.00 5.60
44.00 5.91
45.00 6.22
46.00 6.54
47.00 6.86
48.00 7.18
49.00 7.51
50.00 7.82
51.00 8.14
52.00 8.45
53.00 8.76
54.00 9.07
55.00 9.37
56.00 9.67
57.00 9.96
58.00 10.25
59.00 10.53
60.00 10.81
61.00 11.08
62.00 11.36
63.00 11.63
64.00 11.90
65.00 12.17
66.00 12.45
67.00 12.72
68.00 13.00
69.00 13.28
70.00 13.57
71.00 13.86
72.00 14.16
73.00 14.47
74.00 14.78
75.00 15.09
76.00 15.42
77.00 15.75
78.00 16.08
79.00 16.43
80.00 16.77
81.00 17.12
82.00 17.47
83.00 17.82
84.00 18.17
85.00 18.52
86.00 18.86
87.00 19.20
88.00 19.54
89.00 19.87
90.00 20.20
91.00 20.53
92.00 20.85
93.00 21.18
94.00 21.51
95.00 21.84
96.00 22.19
97.00 22.54
98.00 22.92
99.00 23.31
100.00 23.73
101.00 24.17
102.00 24.63
103.00 25.12
104.00 25.64
105.00 26.17
106.00 26.72
107.00 27.28
108.00 27.84
109.00 28.37
110.00 28.88
111.00 29.33
112.00 29.70
113.00 29.98
114.00 30.16
115.00 30.25
116.00 30.26
117.00 30.20
118.00 30.09
119.00 29.97
120.00 29.84
121.00 29.72
122.00 29.63
123.00 29.57
124.00 29.55
125.00 29.58
126.00 29.66
127.00 29.79
128.00 29.98
129.00 30.23
130.00 30.53
131.00 30.89
132.00 31.30
133.00 31.76
134.00 32.27
135.00 32.81
136.00 33.36
137.00 33.90
138.00 34.41
139.00 34.86
140.00 35.22
141.00 35.47
142.00 35.62
143.00 35.66
144.00 35.62
145.00 35.54
146.00 35.42
147.00 35.31
148.00 35.21
149.00 35.14
150.00 35.09
151.00 35.08
152.00 35.10
153.00 35.15
154.00 35.21
155.00 35.30
156.00 35.39
157.00 35.49
158.00 35.60
159.00 35.71
160.00 35.84
161.00 35.98
162.00 36.15
163.00 36.36
164.00 36.61
165.00 36.92
166.00 37.30
167.00 37.76
168.00 38.32
169.00 38.98
170.00 39.76
171.00 40.68
172.00 41.74
173.00 42.95
174.00 44.30
175.00 45.70
176.00 46.93
177.00 47.62
178.00 47.44
179.00 46.48
180.00 45.15
181.00 43.74
182.00 42.40
183.00 41.15
184.00 40.02
185.00 38.96
186.00 37.99
187.00 37.10
188.00 36.28
189.00 35.51
190.00 34.82
191.00 34.19
192.00 33.62
193.00 33.12
194.00 32.70
195.00 32.34
196.00 32.06
197.00 31.86
198.00 31.73
199.00 31.70
200.00 31.74
201.00 31.88
202.00 32.12
203.00 32.46
204.00 32.91
205.00 33.50
206.00 34.22
207.00 35.12
208.00 36.21
209.00 37.54
210.00 39.19
211.00 41.27
212.00 43.93
213.00 47.29
214.00 50.27
215.00 49.16
216.00 45.90
217.00 43.14
218.00 41.05
219.00 39.44
220.00 38.18
221.00 37.19
222.00 36.40
223.00 35.77
224.00 35.26
225.00 34.87
226.00 34.55
227.00 34.30
228.00 34.10
229.00 33.94
230.00 33.80
231.00 33.67
232.00 33.55
233.00 33.41
234.00 33.26
235.00 33.08
236.00 32.89
237.00 32.67
238.00 32.44
239.00 32.19
240.00 31.93
241.00 31.67
242.00 31.41
243.00 31.15
244.00 30.90
245.00 30.65
246.00 30.41
247.00 30.17
248.00 29.92
249.00 29.67
250.00 29.40
251.00 29.10
252.00 28.78
253.00 28.42
254.00 28.03
255.00 27.59
256.00 27.12
257.00 26.63
258.00 26.10
259.00 25.57
260.00 25.02
261.00 24.48
262.00 23.95
263.00 23.42
264.00 22.92
265.00 22.43
266.00 21.97
267.00 21.52
268.00 21.11
269.00 20.71
270.00 20.34
271.00 19.98
272.00 19.65
273.00 19.33
274.00 19.03
275.00 18.73
276.00 18.45
277.00 18.17
278.00 17.89
279.00 17.62
280.00 17.34
281.00 17.07
282.00 16.78
283.00 16.50
284.00 16.21
285.00 15.91
286.00 15.61
287.00 15.30
288.00 14.99
289.00 14.68
290.00 14.36
291.00 14.04
292.00 13.73
293.00 13.41
294.00 13.09
295.00 12.77
296.00 12.46
297.00 12.14
298.00 11.83
299.00 11.52
300.00 11.21
301.00 10.90
302.00 10.59
303.00 10.29
304.00 9.98
305.00 9.67
306.00 9.37
307.00 9.06
308.00 8.76
309.00 8.46
310.00 8.15
311.00 7.86
312.00 7.56
313.00 7.26
314.00 6.97
315.00 6.69
316.00 6.41
317.00 6.13
318.00 5.86
319.00 5.59
320.00 5.33
321.00 5.08
322.00 4.83
323.00 4.58
324.00 4.34
325.00 4.11
326.00 3.88
327.00 3.66
328.00 3.44
329.00 3.23
330.00 3.02
331.00 2.82
332.00 2.62
333.00 2.43
334.00 2.25
335.00 2.07
336.00 1.91
337.00 1.74
338.00 1.59
339.00 1.45
340.00 1.31
341.00 1.18
342.00 1.06
343.00 0.94
344.00 0.84
345.00 0.74
346.00 0.65
347.00 0.56
348.00 0.49
349.00 0.41
350.00 0.35
351.00 0.29
352.00 0.24
353.00 0.19
354.00 0.14
355.00 0.11
356.00 0.08
357.00 0.05
358.00 0.03
359.00 0.01
VERTICAL 360
0.00 23.58
1.00 24.94
2.00 21.32
3.00 15.27
4.00 10.17
5.00 6.29
6.00 3.45
7.00 1.52
8.00 0.38
9.00 0.00
10.00 0.42
11.00 1.77
12.00 4.34
13.00 8.84
14.00 18.31
15.00 22.60
16.00 14.00
17.00 12.15
18.00 13.06
19.00 16.82
20.00 26.91
21.00 21.60
22.00 15.92
23.00 14.31
24.00 15.08
25.00 18.23
26.00 25.51
27.00 32.61
28.00 23.19
29.00 20.43
30.00 20.33
31.00 22.67
32.00 30.01
33.00 33.28
34.00 22.77
35.00 19.23
36.00 18.22
37.00 19.07
38.00 21.85
39.00 27.34
40.00 33.69
41.00 28.04
42.00 24.46
43.00 22.84
44.00 22.45
45.00 23.16
46.00 24.69
47.00 25.61
48.00 24.91
49.00 24.33
50.00 25.10
51.00 27.11
52.00 28.28
53.00 27.25
54.00 26.60
55.00 27.58
56.00 30.65
57.00 37.12
58.00 57.49
59.00 41.11
60.00 38.00
61.00 37.66
62.00 37.89
63.00 37.81
64.00 37.72
65.00 38.13
66.00 39.16
67.00 40.30
68.00 40.86
69.00 41.00
70.00 40.95
71.00 40.43
72.00 39.43
73.00 38.32
74.00 37.53
75.00 37.41
76.00 38.00
77.00 38.78
78.00 38.91
79.00 38.28
80.00 37.27
81.00 36.21
82.00 35.46
83.00 35.36
84.00 36.17
85.00 38.03
86.00 40.86
87.00 43.53
88.00 43.45
89.00 41.02
90.00 38.15
91.00 35.84
92.00 34.56
93.00 34.45
94.00 35.49
95.00 37.57
96.00 40.27
97.00 42.38
98.00 42.51
99.00 41.64
100.00 41.18
101.00 41.67
102.00 43.27
103.00 46.01
104.00 49.79
105.00 54.85
106.00 60.43
107.00 51.40
108.00 45.95
109.00 43.39
110.00 42.71
111.00 43.28
112.00 44.31
113.00 44.53
114.00 43.23
115.00 41.45
116.00 40.27
117.00 39.96
118.00 40.16
119.00 40.16
120.00 39.69
121.00 39.31
122.00 39.61
123.00 40.87
124.00 42.75
125.00 43.22
126.00 41.20
127.00 38.94
128.00 37.51
129.00 37.01
130.00 36.96
131.00 36.22
132.00 34.43
133.00 32.68
134.00 31.74
135.00 31.88
136.00 33.16
137.00 35.36
138.00 37.67
139.00 39.28
140.00 41.15
141.00 44.48
142.00 47.77
143.00 47.14
144.00 44.85
145.00 41.30
146.00 38.38
147.00 37.40
148.00 38.48
149.00 40.01
150.00 38.69
151.00 37.01
152.00 36.73
153.00 37.27
154.00 38.32
155.00 41.15
156.00 48.16
157.00 47.89
158.00 45.24
159.00 51.29
160.00 49.01
161.00 41.80
162.00 41.57
163.00 48.57
164.00 47.58
165.00 40.51
166.00 39.60
167.00 41.59
168.00 42.21
169.00 41.11
170.00 42.22
171.00 43.74
172.00 41.26
173.00 40.02
174.00 42.19
175.00 49.77
176.00 58.38
177.00 54.81
178.00 56.76
179.00 45.06
180.00 41.23
181.00 41.09
182.00 43.94
183.00 49.41
184.00 53.14
185.00 48.62
186.00 42.76
187.00 38.88
188.00 36.63
189.00 35.32
190.00 34.58
191.00 34.43
192.00 35.09
193.00 36.86
194.00 40.26
195.00 46.84
196.00 52.58
197.00 46.25
198.00 45.92
199.00 51.22
200.00 45.89
201.00 40.15
202.00 37.93
203.00 36.93
204.00 35.47
205.00 34.03
206.00 33.79
207.00 35.10
208.00 37.36
209.00 38.57
210.00 38.58
211.00 39.51
212.00 42.44
213.00 48.98
214.00 61.47
215.00 50.07
216.00 47.15
217.00 44.64
218.00 41.68
219.00 40.49
220.00 42.22
221.00 48.38
222.00 46.99
223.00 41.18
224.00 38.65
225.00 37.50
226.00 37.47
227.00 39.54
228.00 47.17
229.00 48.26
230.00 39.06
231.00 36.37
232.00 36.47
233.00 38.71
234.00 42.16
235.00 42.46
236.00 40.51
237.00 40.01
238.00 41.50
239.00 44.86
240.00 46.00
241.00 42.09
242.00 38.88
243.00 36.74
244.00 35.18
245.00 34.03
246.00 33.27
247.00 32.89
248.00 32.85
249.00 33.10
250.00 33.66
251.00 34.54
252.00 35.65
253.00 36.87
254.00 38.39
255.00 40.64
256.00 42.64
257.00 41.38
258.00 38.96
259.00 37.16
260.00 35.67
261.00 34.10
262.00 32.41
263.00 30.74
264.00 29.30
265.00 28.15
266.00 27.16
267.00 26.06
268.00 24.68
269.00 23.11
270.00 21.59
271.00 20.33
272.00 19.42
273.00 18.87
274.00 18.60
275.00 18.46
276.00 18.26
277.00 17.89
278.00 17.37
279.00 16.81
280.00 16.24
281.00 15.69
282.00 15.19
283.00 14.73
284.00 14.27
285.00 13.79
286.00 13.32
287.00 12.99
288.00 12.88
289.00 13.04
290.00 13.43
291.00 13.96
292.00 14.53
293.00 15.14
294.00 15.90
295.00 17.03
296.00 18.82
297.00 21.64
298.00 26.21
299.00 34.95
300.00 40.01
301.00 31.20
302.00 27.51
303.00 24.97
304.00 23.11
305.00 22.18
306.00 22.54
307.00 24.67
308.00 29.99
309.00 44.38
310.00 30.22
311.00 25.21
312.00 22.72
313.00 21.47
314.00 21.35
315.00 22.68
316.00 26.17
317.00 32.92
318.00 30.62
319.00 25.48
320.00 22.99
321.00 22.02
322.00 22.62
323.00 26.02
324.00 33.89
325.00 24.24
326.00 18.84
327.00 16.47
328.00 15.96
329.00 17.02
330.00 19.97
331.00 25.60
332.00 24.59
333.00 18.92
334.00 16.06
335.00 15.06
336.00 15.50
337.00 17.22
338.00 20.22
339.00 23.71
340.00 23.97
341.00 22.33
342.00 22.58
343.00 26.41
344.00 36.17
345.00 25.54
346.00 21.17
347.00 20.15
348.00 21.43
349.00 25.22
350.00 33.61
351.00 35.08
352.00 29.83
353.00 29.77
354.00 29.38
355.00 24.67
356.00 21.16
357.00 19.67
358.00 19.83
359.00 21.31
