NAME ATR4518R7_2655_X_CO_M45_01T_yL
FREQUENCY 2655
GAIN 15.88 dBd
TILT	ELECTRICAL
COMMENT DATE 05.08.2013 -45 degrees polarized system Lever position 01T deg
HORIZONTAL 360
0.00 0.04
1.00 0.08
2.00 0.14
3.00 0.21
4.00 0.29
5.00 0.37
6.00 0.46
7.00 0.55
8.00 0.64
9.00 0.73
10.00 0.81
11.00 0.88
12.00 0.96
13.00 1.03
14.00 1.10
15.00 1.18
16.00 1.26
17.00 1.34
18.00 1.44
19.00 1.55
20.00 1.68
21.00 1.82
22.00 1.97
23.00 2.15
24.00 2.34
25.00 2.54
26.00 2.76
27.00 3.00
28.00 3.24
29.00 3.49
30.00 3.75
31.00 4.01
32.00 4.27
33.00 4.53
34.00 4.78
35.00 5.03
36.00 5.26
37.00 5.49
38.00 5.70
39.00 5.91
40.00 6.10
41.00 6.28
42.00 6.47
43.00 6.64
44.00 6.81
45.00 6.99
46.00 7.16
47.00 7.34
48.00 7.53
49.00 7.72
50.00 7.93
51.00 8.13
52.00 8.36
53.00 8.59
54.00 8.83
55.00 9.08
56.00 9.34
57.00 9.61
58.00 9.89
59.00 10.18
60.00 10.47
61.00 10.77
62.00 11.09
63.00 11.40
64.00 11.73
65.00 12.06
66.00 12.40
67.00 12.74
68.00 13.09
69.00 13.45
70.00 13.82
71.00 14.20
72.00 14.58
73.00 14.99
74.00 15.40
75.00 15.84
76.00 16.29
77.00 16.77
78.00 17.28
79.00 17.82
80.00 18.40
81.00 19.02
82.00 19.69
83.00 20.41
84.00 21.19
85.00 22.04
86.00 22.97
87.00 23.97
88.00 25.05
89.00 26.22
90.00 27.46
91.00 28.76
92.00 30.10
93.00 31.41
94.00 32.58
95.00 33.52
96.00 34.13
97.00 34.43
98.00 34.47
99.00 34.37
100.00 34.20
101.00 34.00
102.00 33.78
103.00 33.52
104.00 33.19
105.00 32.78
106.00 32.28
107.00 31.69
108.00 31.06
109.00 30.41
110.00 29.77
111.00 29.17
112.00 28.63
113.00 28.16
114.00 27.77
115.00 27.46
116.00 27.22
117.00 27.08
118.00 27.00
119.00 27.00
120.00 27.05
121.00 27.16
122.00 27.30
123.00 27.46
124.00 27.63
125.00 27.79
126.00 27.94
127.00 28.07
128.00 28.19
129.00 28.32
130.00 28.46
131.00 28.65
132.00 28.89
133.00 29.21
134.00 29.63
135.00 30.16
136.00 30.80
137.00 31.56
138.00 32.40
139.00 33.28
140.00 34.06
141.00 34.61
142.00 34.76
143.00 34.50
144.00 33.96
145.00 33.29
146.00 32.64
147.00 32.10
148.00 31.69
149.00 31.44
150.00 31.35
151.00 31.43
152.00 31.68
153.00 32.09
154.00 32.66
155.00 33.39
156.00 34.26
157.00 35.27
158.00 36.36
159.00 37.51
160.00 38.65
161.00 39.73
162.00 40.73
163.00 41.71
164.00 42.78
165.00 44.11
166.00 45.93
167.00 48.37
168.00 50.66
169.00 49.56
170.00 46.00
171.00 42.74
172.00 40.17
173.00 38.16
174.00 36.58
175.00 35.34
176.00 34.39
177.00 33.70
178.00 33.23
179.00 32.97
180.00 32.93
181.00 33.10
182.00 33.50
183.00 34.14
184.00 35.08
185.00 36.37
186.00 38.13
187.00 40.59
188.00 44.28
189.00 50.74
190.00 55.90
191.00 47.18
192.00 42.59
193.00 39.77
194.00 37.85
195.00 36.51
196.00 35.57
197.00 34.95
198.00 34.60
199.00 34.48
200.00 34.56
201.00 34.81
202.00 35.17
203.00 35.57
204.00 35.90
205.00 35.98
206.00 35.72
207.00 35.09
208.00 34.23
209.00 33.28
210.00 32.36
211.00 31.53
212.00 30.83
213.00 30.28
214.00 29.89
215.00 29.66
216.00 29.60
217.00 29.72
218.00 30.02
219.00 30.53
220.00 31.27
221.00 32.28
222.00 33.62
223.00 35.39
224.00 37.72
225.00 40.76
226.00 43.95
227.00 44.07
228.00 41.10
229.00 38.29
230.00 36.19
231.00 34.65
232.00 33.55
233.00 32.79
234.00 32.29
235.00 32.03
236.00 31.96
237.00 32.06
238.00 32.28
239.00 32.56
240.00 32.82
241.00 32.97
242.00 32.90
243.00 32.59
244.00 32.04
245.00 31.35
246.00 30.59
247.00 29.83
248.00 29.14
249.00 28.52
250.00 28.00
251.00 27.57
252.00 27.25
253.00 27.01
254.00 26.87
255.00 26.81
256.00 26.84
257.00 26.94
258.00 27.12
259.00 27.36
260.00 27.65
261.00 27.98
262.00 28.33
263.00 28.68
264.00 28.99
265.00 29.21
266.00 29.31
267.00 29.26
268.00 29.04
269.00 28.67
270.00 28.18
271.00 27.62
272.00 27.01
273.00 26.38
274.00 25.77
275.00 25.19
276.00 24.64
277.00 24.13
278.00 23.66
279.00 23.24
280.00 22.85
281.00 22.50
282.00 22.19
283.00 21.90
284.00 21.62
285.00 21.36
286.00 21.10
287.00 20.84
288.00 20.56
289.00 20.26
290.00 19.93
291.00 19.58
292.00 19.19
293.00 18.78
294.00 18.34
295.00 17.89
296.00 17.42
297.00 16.94
298.00 16.47
299.00 15.99
300.00 15.52
301.00 15.05
302.00 14.58
303.00 14.12
304.00 13.65
305.00 13.18
306.00 12.70
307.00 12.22
308.00 11.72
309.00 11.22
310.00 10.70
311.00 10.17
312.00 9.64
313.00 9.11
314.00 8.58
315.00 8.06
316.00 7.54
317.00 7.04
318.00 6.56
319.00 6.10
320.00 5.66
321.00 5.25
322.00 4.86
323.00 4.50
324.00 4.17
325.00 3.86
326.00 3.58
327.00 3.32
328.00 3.09
329.00 2.87
330.00 2.68
331.00 2.51
332.00 2.35
333.00 2.21
334.00 2.08
335.00 1.97
336.00 1.86
337.00 1.76
338.00 1.66
339.00 1.57
340.00 1.48
341.00 1.39
342.00 1.29
343.00 1.20
344.00 1.10
345.00 0.99
346.00 0.89
347.00 0.78
348.00 0.67
349.00 0.56
350.00 0.46
351.00 0.36
352.00 0.27
353.00 0.18
354.00 0.12
355.00 0.06
356.00 0.02
357.00 0.00
358.00 0.00
359.00 0.01
VERTICAL 360
0.00 0.90
1.00 0.00
2.00 0.46
3.00 2.47
4.00 6.63
5.00 15.05
6.00 17.60
7.00 12.29
8.00 12.09
9.00 15.24
10.00 17.92
11.00 14.62
12.00 13.11
13.00 14.50
14.00 18.25
15.00 18.87
16.00 16.25
17.00 16.04
18.00 19.19
19.00 25.03
20.00 19.72
21.00 15.94
22.00 14.95
23.00 15.78
24.00 18.06
25.00 20.98
26.00 22.68
27.00 24.39
28.00 27.98
29.00 24.01
30.00 19.44
31.00 17.81
32.00 18.61
33.00 22.32
34.00 31.22
35.00 26.20
36.00 21.52
37.00 20.58
38.00 22.14
39.00 26.70
40.00 41.38
41.00 31.14
42.00 25.51
43.00 24.02
44.00 24.75
45.00 26.78
46.00 28.02
47.00 27.27
48.00 26.78
49.00 27.89
50.00 31.42
51.00 37.65
52.00 35.02
53.00 30.76
54.00 28.52
55.00 27.07
56.00 25.92
57.00 24.41
58.00 22.10
59.00 19.77
60.00 18.09
61.00 17.04
62.00 16.34
63.00 15.87
64.00 15.73
65.00 16.04
66.00 16.78
67.00 17.74
68.00 18.69
69.00 19.58
70.00 20.62
71.00 21.99
72.00 23.61
73.00 25.22
74.00 26.48
75.00 27.47
76.00 28.69
77.00 30.17
78.00 32.26
79.00 37.12
80.00 52.42
81.00 45.33
82.00 47.21
83.00 54.23
84.00 44.81
85.00 35.57
86.00 30.95
87.00 30.24
88.00 33.05
89.00 38.46
90.00 38.27
91.00 32.25
92.00 28.68
93.00 28.44
94.00 31.67
95.00 39.10
96.00 53.01
97.00 45.49
98.00 37.70
99.00 36.20
100.00 38.02
101.00 40.72
102.00 43.47
103.00 43.58
104.00 41.12
105.00 39.12
106.00 37.19
107.00 36.80
108.00 37.67
109.00 37.80
110.00 36.40
111.00 34.00
112.00 32.43
113.00 32.46
114.00 33.51
115.00 34.36
116.00 34.36
117.00 34.80
118.00 37.57
119.00 40.80
120.00 38.34
121.00 38.82
122.00 45.95
123.00 44.23
124.00 40.39
125.00 42.97
126.00 51.97
127.00 50.24
128.00 47.39
129.00 43.40
130.00 41.47
131.00 42.20
132.00 44.07
133.00 48.03
134.00 53.60
135.00 50.97
136.00 57.99
137.00 44.39
138.00 40.88
139.00 43.15
140.00 46.23
141.00 42.66
142.00 40.04
143.00 37.72
144.00 37.24
145.00 37.96
146.00 36.40
147.00 33.74
148.00 32.27
149.00 31.99
150.00 30.28
151.00 27.75
152.00 27.08
153.00 28.07
154.00 29.11
155.00 31.32
156.00 40.21
157.00 40.04
158.00 34.49
159.00 33.90
160.00 32.89
161.00 34.09
162.00 35.63
163.00 32.30
164.00 32.38
165.00 37.71
166.00 44.59
167.00 50.03
168.00 41.05
169.00 35.49
170.00 35.85
171.00 33.97
172.00 30.80
173.00 31.32
174.00 34.64
175.00 34.32
176.00 33.40
177.00 33.59
178.00 32.37
179.00 33.23
180.00 40.25
181.00 45.63
182.00 38.62
183.00 38.02
184.00 37.33
185.00 39.86
186.00 36.76
187.00 31.46
188.00 30.79
189.00 34.13
190.00 41.47
191.00 44.48
192.00 39.17
193.00 37.09
194.00 36.85
195.00 34.09
196.00 32.72
197.00 35.13
198.00 39.51
199.00 38.53
200.00 39.47
201.00 44.58
202.00 46.04
203.00 38.70
204.00 34.88
205.00 33.35
206.00 32.66
207.00 33.28
208.00 36.60
209.00 39.21
210.00 37.75
211.00 40.61
212.00 58.05
213.00 44.63
214.00 38.93
215.00 34.80
216.00 32.83
217.00 33.30
218.00 35.93
219.00 40.60
220.00 46.99
221.00 45.77
222.00 42.82
223.00 42.70
224.00 44.31
225.00 45.29
226.00 43.76
227.00 42.83
228.00 44.89
229.00 49.32
230.00 47.53
231.00 47.20
232.00 45.88
233.00 42.04
234.00 41.37
235.00 42.66
236.00 40.80
237.00 38.29
238.00 37.00
239.00 35.60
240.00 33.78
241.00 32.54
242.00 32.25
243.00 32.49
244.00 32.46
245.00 31.84
246.00 31.31
247.00 31.76
248.00 33.71
249.00 36.90
250.00 39.73
251.00 40.16
252.00 40.04
253.00 42.98
254.00 51.00
255.00 43.56
256.00 41.36
257.00 43.02
258.00 43.55
259.00 40.78
260.00 37.15
261.00 34.70
262.00 34.50
263.00 36.65
264.00 40.35
265.00 42.06
266.00 39.30
267.00 36.04
268.00 34.36
269.00 34.42
270.00 36.30
271.00 40.30
272.00 42.63
273.00 39.96
274.00 39.46
275.00 41.67
276.00 44.58
277.00 43.06
278.00 39.23
279.00 36.15
280.00 34.19
281.00 33.08
282.00 32.31
283.00 31.55
284.00 30.91
285.00 30.52
286.00 30.53
287.00 31.09
288.00 31.92
289.00 32.69
290.00 34.32
291.00 38.07
292.00 35.89
293.00 29.40
294.00 25.09
295.00 22.08
296.00 19.80
297.00 18.07
298.00 16.90
299.00 16.28
300.00 16.16
301.00 16.53
302.00 17.44
303.00 19.13
304.00 22.09
305.00 27.46
306.00 37.54
307.00 29.60
308.00 24.82
309.00 23.01
310.00 23.26
311.00 25.86
312.00 32.47
313.00 31.31
314.00 24.55
315.00 21.41
316.00 20.38
317.00 21.31
318.00 24.39
319.00 26.37
320.00 22.40
321.00 19.67
322.00 19.29
323.00 21.52
324.00 28.53
325.00 29.71
326.00 21.35
327.00 17.89
328.00 16.33
329.00 15.87
330.00 16.11
331.00 16.40
332.00 15.94
333.00 14.88
334.00 13.90
335.00 13.33
336.00 13.38
337.00 14.44
338.00 17.21
339.00 23.87
340.00 33.69
341.00 21.35
342.00 18.55
343.00 19.47
344.00 25.25
345.00 30.92
346.00 20.46
347.00 17.54
348.00 18.09
349.00 22.08
350.00 26.58
351.00 21.76
352.00 19.81
353.00 20.91
354.00 23.60
355.00 27.83
356.00 27.15
357.00 14.06
358.00 7.32
359.00 3.24
