NAME ATR4518R7_0947_X_CO_M45_01T
FREQUENCY 0947
GAIN 15.09 dBd
TILT	ELECTRICAL
COMMENT DATE 05.08.2013 -45 degrees polarized system Lever position 01T deg
HORIZONTAL 360
0.00 0.01
1.00 0.00
2.00 0.00
3.00 0.00
4.00 0.01
5.00 0.03
6.00 0.05
7.00 0.08
8.00 0.12
9.00 0.16
10.00 0.21
11.00 0.27
12.00 0.33
13.00 0.40
14.00 0.48
15.00 0.57
16.00 0.66
17.00 0.76
18.00 0.86
19.00 0.98
20.00 1.10
21.00 1.22
22.00 1.36
23.00 1.50
24.00 1.64
25.00 1.80
26.00 1.96
27.00 2.13
28.00 2.31
29.00 2.49
30.00 2.68
31.00 2.88
32.00 3.08
33.00 3.29
34.00 3.51
35.00 3.73
36.00 3.97
37.00 4.21
38.00 4.45
39.00 4.71
40.00 4.97
41.00 5.23
42.00 5.51
43.00 5.79
44.00 6.08
45.00 6.38
46.00 6.68
47.00 6.99
48.00 7.31
49.00 7.64
50.00 7.97
51.00 8.31
52.00 8.66
53.00 9.02
54.00 9.39
55.00 9.76
56.00 10.14
57.00 10.53
58.00 10.93
59.00 11.34
60.00 11.75
61.00 12.18
62.00 12.61
63.00 13.05
64.00 13.50
65.00 13.97
66.00 14.44
67.00 14.92
68.00 15.42
69.00 15.92
70.00 16.43
71.00 16.96
72.00 17.49
73.00 18.04
74.00 18.59
75.00 19.15
76.00 19.72
77.00 20.30
78.00 20.89
79.00 21.48
80.00 22.07
81.00 22.66
82.00 23.24
83.00 23.82
84.00 24.39
85.00 24.94
86.00 25.47
87.00 25.98
88.00 26.45
89.00 26.90
90.00 27.31
91.00 27.68
92.00 28.01
93.00 28.31
94.00 28.58
95.00 28.82
96.00 29.03
97.00 29.23
98.00 29.41
99.00 29.59
100.00 29.76
101.00 29.93
102.00 30.10
103.00 30.29
104.00 30.48
105.00 30.69
106.00 30.91
107.00 31.14
108.00 31.39
109.00 31.67
110.00 31.95
111.00 32.26
112.00 32.59
113.00 32.93
114.00 33.30
115.00 33.68
116.00 34.08
117.00 34.50
118.00 34.93
119.00 35.38
120.00 35.84
121.00 36.31
122.00 36.80
123.00 37.29
124.00 37.77
125.00 38.26
126.00 38.74
127.00 39.20
128.00 39.65
129.00 40.07
130.00 40.46
131.00 40.79
132.00 41.08
133.00 41.31
134.00 41.49
135.00 41.59
136.00 41.64
137.00 41.62
138.00 41.54
139.00 41.41
140.00 41.23
141.00 41.03
142.00 40.79
143.00 40.53
144.00 40.25
145.00 39.95
146.00 39.67
147.00 39.37
148.00 39.07
149.00 38.78
150.00 38.51
151.00 38.24
152.00 37.98
153.00 37.74
154.00 37.51
155.00 37.30
156.00 37.10
157.00 36.92
158.00 36.77
159.00 36.63
160.00 36.51
161.00 36.41
162.00 36.32
163.00 36.26
164.00 36.22
165.00 36.20
166.00 36.20
167.00 36.22
168.00 36.27
169.00 36.33
170.00 36.42
171.00 36.53
172.00 36.66
173.00 36.82
174.00 37.00
175.00 37.20
176.00 37.43
177.00 37.69
178.00 37.97
179.00 38.27
180.00 38.61
181.00 38.98
182.00 39.37
183.00 39.79
184.00 40.24
185.00 40.71
186.00 41.21
187.00 41.71
188.00 42.21
189.00 42.70
190.00 43.16
191.00 43.55
192.00 43.84
193.00 43.98
194.00 43.99
195.00 43.84
196.00 43.54
197.00 43.12
198.00 42.61
199.00 42.05
200.00 41.45
201.00 40.84
202.00 40.24
203.00 39.65
204.00 39.09
205.00 38.54
206.00 38.03
207.00 37.54
208.00 37.07
209.00 36.64
210.00 36.23
211.00 35.84
212.00 35.48
213.00 35.14
214.00 34.82
215.00 34.53
216.00 34.25
217.00 33.99
218.00 33.74
219.00 33.52
220.00 33.31
221.00 33.11
222.00 32.93
223.00 32.76
224.00 32.60
225.00 32.45
226.00 32.31
227.00 32.17
228.00 32.05
229.00 31.93
230.00 31.81
231.00 31.70
232.00 31.59
233.00 31.48
234.00 31.37
235.00 31.26
236.00 31.15
237.00 31.03
238.00 30.91
239.00 30.78
240.00 30.64
241.00 30.49
242.00 30.33
243.00 30.17
244.00 29.98
245.00 29.79
246.00 29.58
247.00 29.36
248.00 29.12
249.00 28.88
250.00 28.61
251.00 28.34
252.00 28.05
253.00 27.75
254.00 27.43
255.00 27.11
256.00 26.77
257.00 26.43
258.00 26.08
259.00 25.72
260.00 25.35
261.00 24.98
262.00 24.60
263.00 24.22
264.00 23.84
265.00 23.45
266.00 23.06
267.00 22.68
268.00 22.29
269.00 21.90
270.00 21.51
271.00 21.13
272.00 20.75
273.00 20.37
274.00 19.99
275.00 19.61
276.00 19.24
277.00 18.87
278.00 18.50
279.00 18.14
280.00 17.78
281.00 17.42
282.00 17.07
283.00 16.71
284.00 16.37
285.00 16.02
286.00 15.68
287.00 15.34
288.00 15.00
289.00 14.67
290.00 14.33
291.00 14.01
292.00 13.68
293.00 13.35
294.00 13.03
295.00 12.71
296.00 12.40
297.00 12.08
298.00 11.77
299.00 11.45
300.00 11.15
301.00 10.84
302.00 10.53
303.00 10.23
304.00 9.93
305.00 9.64
306.00 9.34
307.00 9.05
308.00 8.76
309.00 8.47
310.00 8.18
311.00 7.90
312.00 7.63
313.00 7.35
314.00 7.08
315.00 6.81
316.00 6.55
317.00 6.29
318.00 6.03
319.00 5.78
320.00 5.53
321.00 5.29
322.00 5.05
323.00 4.81
324.00 4.58
325.00 4.35
326.00 4.13
327.00 3.92
328.00 3.71
329.00 3.50
330.00 3.30
331.00 3.10
332.00 2.91
333.00 2.73
334.00 2.55
335.00 2.38
336.00 2.21
337.00 2.05
338.00 1.89
339.00 1.74
340.00 1.59
341.00 1.45
342.00 1.32
343.00 1.20
344.00 1.07
345.00 0.96
346.00 0.85
347.00 0.75
348.00 0.66
349.00 0.57
350.00 0.48
351.00 0.41
352.00 0.34
353.00 0.27
354.00 0.22
355.00 0.17
356.00 0.12
357.00 0.08
358.00 0.05
359.00 0.03
VERTICAL 360
0.00 0.10
1.00 0.00
2.00 0.30
3.00 1.02
4.00 2.20
5.00 3.89
6.00 6.20
7.00 9.26
8.00 13.30
9.00 18.49
10.00 22.86
11.00 22.60
12.00 22.15
13.00 23.84
14.00 28.86
15.00 34.49
16.00 26.70
17.00 22.86
18.00 21.31
19.00 21.15
20.00 22.21
21.00 24.80
22.00 30.40
23.00 43.99
24.00 30.18
25.00 25.74
26.00 24.36
27.00 24.84
28.00 26.73
29.00 28.74
30.00 26.93
31.00 22.71
32.00 19.14
33.00 16.54
34.00 14.75
35.00 13.62
36.00 13.02
37.00 12.88
38.00 13.15
39.00 13.82
40.00 14.84
41.00 16.17
42.00 17.82
43.00 19.91
44.00 22.82
45.00 27.34
46.00 35.88
47.00 46.99
48.00 35.71
49.00 33.91
50.00 34.31
51.00 34.40
52.00 33.92
53.00 34.66
54.00 37.68
55.00 43.78
56.00 54.16
57.00 51.56
58.00 52.70
59.00 58.23
60.00 44.24
61.00 40.37
62.00 39.00
63.00 37.77
64.00 37.43
65.00 38.76
66.00 40.23
67.00 41.25
68.00 38.08
69.00 33.08
70.00 31.15
71.00 32.49
72.00 37.51
73.00 42.51
74.00 35.61
75.00 30.75
76.00 28.69
77.00 29.43
78.00 33.71
79.00 42.21
80.00 33.28
81.00 28.11
82.00 26.13
83.00 26.81
84.00 30.27
85.00 33.31
86.00 30.15
87.00 27.02
88.00 25.42
89.00 25.73
90.00 28.21
91.00 33.20
92.00 37.92
93.00 31.00
94.00 27.20
95.00 26.40
96.00 28.09
97.00 31.35
98.00 33.97
99.00 36.83
100.00 39.53
101.00 37.61
102.00 36.73
103.00 35.90
104.00 35.61
105.00 39.02
106.00 45.03
107.00 38.58
108.00 36.45
109.00 36.23
110.00 36.56
111.00 39.45
112.00 43.60
113.00 38.31
114.00 35.99
115.00 36.67
116.00 39.31
117.00 43.09
118.00 42.54
119.00 39.20
120.00 38.04
121.00 38.48
122.00 39.16
123.00 39.40
124.00 39.57
125.00 39.73
126.00 38.66
127.00 36.28
128.00 34.25
129.00 32.95
130.00 31.90
131.00 30.77
132.00 29.73
133.00 29.21
134.00 29.56
135.00 30.88
136.00 33.01
137.00 35.54
138.00 38.22
139.00 41.90
140.00 47.97
141.00 43.96
142.00 39.42
143.00 38.16
144.00 39.04
145.00 41.53
146.00 45.76
147.00 53.88
148.00 55.85
149.00 44.40
150.00 39.24
151.00 36.84
152.00 36.27
153.00 36.81
154.00 37.83
155.00 39.09
156.00 40.23
157.00 40.44
158.00 39.61
159.00 38.77
160.00 38.88
161.00 40.06
162.00 40.85
163.00 39.27
164.00 36.66
165.00 34.19
166.00 32.01
167.00 30.21
168.00 28.96
169.00 28.31
170.00 28.11
171.00 28.08
172.00 28.02
173.00 27.78
174.00 27.85
175.00 28.75
176.00 30.57
177.00 33.38
178.00 37.18
179.00 40.07
180.00 37.73
181.00 34.12
182.00 31.91
183.00 31.05
184.00 31.29
185.00 31.92
186.00 33.10
187.00 34.75
188.00 37.29
189.00 41.26
190.00 44.04
191.00 41.63
192.00 39.83
193.00 39.15
194.00 38.77
195.00 38.78
196.00 39.29
197.00 40.39
198.00 42.96
199.00 48.13
200.00 48.01
201.00 42.57
202.00 39.05
203.00 37.19
204.00 36.90
205.00 37.68
206.00 38.39
207.00 38.65
208.00 39.27
209.00 39.86
210.00 38.47
211.00 36.16
212.00 34.89
213.00 34.92
214.00 35.57
215.00 35.68
216.00 34.92
217.00 34.00
218.00 33.43
219.00 33.21
220.00 32.85
221.00 32.03
222.00 31.10
223.00 30.61
224.00 30.79
225.00 31.57
226.00 32.61
227.00 33.44
228.00 33.96
229.00 34.61
230.00 35.90
231.00 37.93
232.00 40.20
233.00 42.03
234.00 42.49
235.00 42.04
236.00 42.08
237.00 42.35
238.00 42.95
239.00 45.00
240.00 47.64
241.00 46.23
242.00 42.18
243.00 39.43
244.00 39.26
245.00 41.94
246.00 44.51
247.00 42.21
248.00 38.78
249.00 35.79
250.00 34.62
251.00 35.74
252.00 39.26
253.00 44.71
254.00 40.76
255.00 35.75
256.00 34.12
257.00 35.31
258.00 39.06
259.00 43.30
260.00 40.29
261.00 36.76
262.00 36.53
263.00 40.80
264.00 52.27
265.00 42.05
266.00 37.55
267.00 35.61
268.00 37.52
269.00 53.85
270.00 37.08
271.00 32.40
272.00 31.92
273.00 32.75
274.00 34.04
275.00 39.30
276.00 41.94
277.00 33.31
278.00 31.10
279.00 31.58
280.00 33.48
281.00 38.04
282.00 44.65
283.00 35.53
284.00 32.60
285.00 32.89
286.00 35.01
287.00 38.95
288.00 41.66
289.00 36.87
290.00 34.68
291.00 35.08
292.00 36.58
293.00 38.81
294.00 43.95
295.00 55.73
296.00 50.90
297.00 52.60
298.00 51.06
299.00 45.84
300.00 42.24
301.00 38.91
302.00 36.08
303.00 34.00
304.00 33.02
305.00 33.42
306.00 35.47
307.00 40.22
308.00 42.71
309.00 35.33
310.00 31.07
311.00 28.14
312.00 25.32
313.00 22.55
314.00 20.20
315.00 18.51
316.00 17.48
317.00 16.98
318.00 16.70
319.00 16.40
320.00 16.07
321.00 15.95
322.00 16.28
323.00 17.17
324.00 18.58
325.00 20.26
326.00 21.98
327.00 23.73
328.00 25.90
329.00 28.97
330.00 33.13
331.00 38.00
332.00 41.76
333.00 42.59
334.00 43.19
335.00 37.30
336.00 30.95
337.00 26.94
338.00 24.39
339.00 22.64
340.00 21.34
341.00 20.47
342.00 20.24
343.00 21.00
344.00 23.28
345.00 28.04
346.00 32.79
347.00 26.69
348.00 22.95
349.00 21.63
350.00 22.33
351.00 24.90
352.00 22.70
353.00 16.16
354.00 11.24
355.00 7.66
356.00 5.00
357.00 3.01
358.00 1.58
359.00 0.62
