NAME ATR4518R7_0806_X_CO_P45_02T
FREQUENCY 0806
GAIN 14.30 dBd
TILT	ELECTRICAL
COMMENT DATE 05.08.2013 +45 degrees polarized system Lever position 02T deg
HORIZONTAL 360
0.00 0.00
1.00 0.01
2.00 0.03
3.00 0.05
4.00 0.08
5.00 0.11
6.00 0.14
7.00 0.19
8.00 0.24
9.00 0.29
10.00 0.35
11.00 0.42
12.00 0.49
13.00 0.57
14.00 0.65
15.00 0.74
16.00 0.83
17.00 0.93
18.00 1.03
19.00 1.14
20.00 1.26
21.00 1.38
22.00 1.50
23.00 1.64
24.00 1.77
25.00 1.92
26.00 2.06
27.00 2.22
28.00 2.38
29.00 2.54
30.00 2.71
31.00 2.88
32.00 3.07
33.00 3.25
34.00 3.44
35.00 3.64
36.00 3.84
37.00 4.04
38.00 4.26
39.00 4.47
40.00 4.69
41.00 4.92
42.00 5.15
43.00 5.39
44.00 5.63
45.00 5.87
46.00 6.12
47.00 6.38
48.00 6.64
49.00 6.90
50.00 7.17
51.00 7.44
52.00 7.72
53.00 8.00
54.00 8.29
55.00 8.58
56.00 8.87
57.00 9.17
58.00 9.47
59.00 9.78
60.00 10.09
61.00 10.41
62.00 10.73
63.00 11.05
64.00 11.37
65.00 11.71
66.00 12.04
67.00 12.38
68.00 12.72
69.00 13.06
70.00 13.41
71.00 13.77
72.00 14.12
73.00 14.49
74.00 14.85
75.00 15.22
76.00 15.60
77.00 15.98
78.00 16.37
79.00 16.76
80.00 17.15
81.00 17.55
82.00 17.96
83.00 18.38
84.00 18.80
85.00 19.23
86.00 19.67
87.00 20.11
88.00 20.56
89.00 21.02
90.00 21.50
91.00 21.97
92.00 22.46
93.00 22.96
94.00 23.48
95.00 24.00
96.00 24.52
97.00 25.06
98.00 25.61
99.00 26.17
100.00 26.73
101.00 27.29
102.00 27.85
103.00 28.40
104.00 28.94
105.00 29.46
106.00 29.94
107.00 30.39
108.00 30.78
109.00 31.12
110.00 31.38
111.00 31.57
112.00 31.69
113.00 31.74
114.00 31.71
115.00 31.63
116.00 31.51
117.00 31.35
118.00 31.17
119.00 30.97
120.00 30.76
121.00 30.55
122.00 30.34
123.00 30.13
124.00 29.93
125.00 29.75
126.00 29.57
127.00 29.41
128.00 29.26
129.00 29.12
130.00 29.00
131.00 28.89
132.00 28.80
133.00 28.71
134.00 28.64
135.00 28.58
136.00 28.54
137.00 28.50
138.00 28.48
139.00 28.47
140.00 28.47
141.00 28.48
142.00 28.50
143.00 28.54
144.00 28.58
145.00 28.63
146.00 28.70
147.00 28.77
148.00 28.85
149.00 28.94
150.00 29.04
151.00 29.15
152.00 29.27
153.00 29.40
154.00 29.53
155.00 29.68
156.00 29.83
157.00 30.00
158.00 30.17
159.00 30.35
160.00 30.54
161.00 30.74
162.00 30.95
163.00 31.17
164.00 31.40
165.00 31.64
166.00 31.89
167.00 32.15
168.00 32.43
169.00 32.71
170.00 33.01
171.00 33.33
172.00 33.66
173.00 34.00
174.00 34.36
175.00 34.73
176.00 35.13
177.00 35.55
178.00 35.99
179.00 36.46
180.00 36.95
181.00 37.47
182.00 38.02
183.00 38.61
184.00 39.24
185.00 39.91
186.00 40.63
187.00 41.42
188.00 42.26
189.00 43.18
190.00 44.18
191.00 45.27
192.00 46.46
193.00 47.73
194.00 49.05
195.00 50.31
196.00 51.29
197.00 51.71
198.00 51.43
199.00 50.59
200.00 49.48
201.00 48.31
202.00 47.18
203.00 46.15
204.00 45.21
205.00 44.38
206.00 43.62
207.00 42.94
208.00 42.33
209.00 41.78
210.00 41.29
211.00 40.84
212.00 40.45
213.00 40.10
214.00 39.79
215.00 39.52
216.00 39.29
217.00 39.08
218.00 38.92
219.00 38.79
220.00 38.69
221.00 38.62
222.00 38.59
223.00 38.58
224.00 38.60
225.00 38.65
226.00 38.73
227.00 38.83
228.00 38.95
229.00 39.07
230.00 39.20
231.00 39.32
232.00 39.41
233.00 39.45
234.00 39.43
235.00 39.31
236.00 39.08
237.00 38.73
238.00 38.26
239.00 37.69
240.00 37.03
241.00 36.31
242.00 35.55
243.00 34.75
244.00 33.95
245.00 33.15
246.00 32.36
247.00 31.59
248.00 30.83
249.00 30.10
250.00 29.38
251.00 28.69
252.00 28.02
253.00 27.37
254.00 26.74
255.00 26.13
256.00 25.54
257.00 24.97
258.00 24.42
259.00 23.88
260.00 23.36
261.00 22.86
262.00 22.37
263.00 21.89
264.00 21.42
265.00 20.97
266.00 20.53
267.00 20.10
268.00 19.68
269.00 19.28
270.00 18.88
271.00 18.48
272.00 18.10
273.00 17.73
274.00 17.36
275.00 17.00
276.00 16.64
277.00 16.29
278.00 15.95
279.00 15.61
280.00 15.28
281.00 14.95
282.00 14.62
283.00 14.30
284.00 13.98
285.00 13.66
286.00 13.35
287.00 13.04
288.00 12.73
289.00 12.43
290.00 12.12
291.00 11.82
292.00 11.52
293.00 11.23
294.00 10.93
295.00 10.64
296.00 10.35
297.00 10.06
298.00 9.77
299.00 9.48
300.00 9.20
301.00 8.92
302.00 8.64
303.00 8.36
304.00 8.09
305.00 7.82
306.00 7.55
307.00 7.29
308.00 7.03
309.00 6.77
310.00 6.51
311.00 6.26
312.00 6.01
313.00 5.77
314.00 5.53
315.00 5.29
316.00 5.07
317.00 4.84
318.00 4.61
319.00 4.40
320.00 4.18
321.00 3.97
322.00 3.77
323.00 3.57
324.00 3.38
325.00 3.19
326.00 3.00
327.00 2.83
328.00 2.65
329.00 2.48
330.00 2.32
331.00 2.16
332.00 2.01
333.00 1.86
334.00 1.72
335.00 1.59
336.00 1.46
337.00 1.33
338.00 1.21
339.00 1.10
340.00 0.99
341.00 0.89
342.00 0.79
343.00 0.70
344.00 0.61
345.00 0.53
346.00 0.46
347.00 0.39
348.00 0.33
349.00 0.27
350.00 0.22
351.00 0.17
352.00 0.13
353.00 0.09
354.00 0.06
355.00 0.04
356.00 0.02
357.00 0.01
358.00 0.00
359.00 0.00
VERTICAL 360
0.00 0.55
1.00 0.13
2.00 0.00
3.00 0.17
4.00 0.65
5.00 1.45
6.00 2.62
7.00 4.20
8.00 6.25
9.00 8.91
10.00 12.40
11.00 17.20
12.00 24.88
13.00 38.91
14.00 27.91
15.00 25.25
16.00 25.76
17.00 29.16
18.00 39.11
19.00 32.42
20.00 25.52
21.00 22.18
22.00 20.47
23.00 19.83
24.00 20.09
25.00 21.21
26.00 23.33
27.00 26.80
28.00 32.21
29.00 34.77
30.00 30.22
31.00 27.31
32.00 26.09
33.00 26.19
34.00 27.71
35.00 31.41
36.00 38.58
37.00 32.05
38.00 25.83
39.00 22.13
40.00 19.70
41.00 18.04
42.00 16.91
43.00 16.18
44.00 15.77
45.00 15.62
46.00 15.72
47.00 16.06
48.00 16.64
49.00 17.47
50.00 18.55
51.00 19.89
52.00 21.44
53.00 23.16
54.00 24.99
55.00 26.85
56.00 28.72
57.00 30.57
58.00 32.33
59.00 33.77
60.00 34.48
61.00 34.37
62.00 33.93
63.00 33.65
64.00 33.66
65.00 33.75
66.00 33.64
67.00 33.29
68.00 33.02
69.00 33.16
70.00 33.88
71.00 35.17
72.00 36.80
73.00 38.11
74.00 37.72
75.00 35.38
76.00 32.65
77.00 30.46
78.00 29.04
79.00 28.40
80.00 28.43
81.00 28.95
82.00 29.58
83.00 29.87
84.00 29.75
85.00 29.47
86.00 29.31
87.00 29.35
88.00 29.61
89.00 30.12
90.00 30.91
91.00 31.95
92.00 33.01
93.00 33.66
94.00 33.54
95.00 32.72
96.00 31.60
97.00 30.57
98.00 29.91
99.00 29.75
100.00 30.12
101.00 30.95
102.00 32.09
103.00 33.38
104.00 34.78
105.00 36.35
106.00 38.15
107.00 40.01
108.00 41.40
109.00 41.83
110.00 41.06
111.00 39.42
112.00 37.68
113.00 36.40
114.00 35.80
115.00 35.88
116.00 36.55
117.00 37.62
118.00 38.84
119.00 39.86
120.00 40.45
121.00 40.54
122.00 40.42
123.00 40.57
124.00 41.45
125.00 43.61
126.00 48.25
127.00 62.84
128.00 50.86
129.00 44.42
130.00 41.11
131.00 38.96
132.00 37.36
133.00 36.04
134.00 34.97
135.00 34.23
136.00 33.94
137.00 34.29
138.00 35.53
139.00 38.08
140.00 43.18
141.00 52.75
142.00 43.46
143.00 38.17
144.00 35.38
145.00 33.82
146.00 33.13
147.00 33.20
148.00 34.08
149.00 35.95
150.00 39.20
151.00 44.77
152.00 48.31
153.00 42.33
154.00 38.45
155.00 36.16
156.00 34.79
157.00 34.07
158.00 33.87
159.00 34.12
160.00 34.72
161.00 35.54
162.00 36.37
163.00 37.05
164.00 37.68
165.00 38.60
166.00 40.27
167.00 43.23
168.00 48.30
169.00 50.42
170.00 44.93
171.00 41.22
172.00 39.03
173.00 37.77
174.00 37.14
175.00 36.93
176.00 36.92
177.00 36.83
178.00 36.46
179.00 36.11
180.00 35.52
181.00 34.85
182.00 34.28
183.00 33.97
184.00 34.08
185.00 34.36
186.00 35.05
187.00 36.12
188.00 37.53
189.00 39.29
190.00 41.30
191.00 42.70
192.00 41.98
193.00 39.95
194.00 38.15
195.00 37.01
196.00 36.50
197.00 36.47
198.00 36.73
199.00 37.05
200.00 37.24
201.00 37.16
202.00 36.89
203.00 36.62
204.00 36.53
205.00 36.79
206.00 37.43
207.00 38.43
208.00 39.74
209.00 41.34
210.00 43.46
211.00 46.57
212.00 51.05
213.00 51.83
214.00 47.60
215.00 44.79
216.00 43.51
217.00 43.37
218.00 44.12
219.00 45.28
220.00 45.81
221.00 44.84
222.00 43.03
223.00 41.32
224.00 40.07
225.00 39.42
226.00 39.45
227.00 40.22
228.00 41.69
229.00 43.60
230.00 45.12
231.00 44.89
232.00 42.94
233.00 40.60
234.00 38.72
235.00 37.56
236.00 37.18
237.00 37.48
238.00 38.27
239.00 39.23
240.00 40.03
241.00 40.39
242.00 40.08
243.00 39.27
244.00 38.58
245.00 38.55
246.00 39.50
247.00 41.58
248.00 44.68
249.00 47.34
250.00 46.77
251.00 44.26
252.00 41.73
253.00 39.81
254.00 38.75
255.00 38.55
256.00 39.09
257.00 40.22
258.00 42.13
259.00 45.91
260.00 52.45
261.00 44.93
262.00 39.33
263.00 36.53
264.00 35.46
265.00 35.79
266.00 37.45
267.00 40.50
268.00 45.35
269.00 54.52
270.00 56.44
271.00 46.31
272.00 41.81
273.00 39.45
274.00 38.55
275.00 38.84
276.00 40.15
277.00 42.21
278.00 44.60
279.00 46.80
280.00 48.26
281.00 48.11
282.00 46.34
283.00 44.14
284.00 42.12
285.00 40.47
286.00 39.29
287.00 38.70
288.00 38.70
289.00 39.28
290.00 40.32
291.00 41.74
292.00 43.63
293.00 46.81
294.00 55.75
295.00 50.92
296.00 40.87
297.00 35.35
298.00 31.47
299.00 28.51
300.00 26.15
301.00 24.19
302.00 22.50
303.00 21.00
304.00 19.65
305.00 18.47
306.00 17.46
307.00 16.65
308.00 16.07
309.00 15.74
310.00 15.62
311.00 15.72
312.00 15.98
313.00 16.37
314.00 16.87
315.00 17.49
316.00 18.27
317.00 19.30
318.00 20.69
319.00 22.59
320.00 25.17
321.00 28.74
322.00 33.87
323.00 42.22
324.00 49.92
325.00 43.82
326.00 42.89
327.00 44.93
328.00 49.40
329.00 52.28
330.00 49.39
331.00 45.02
332.00 39.60
333.00 34.88
334.00 31.34
335.00 28.85
336.00 27.22
337.00 26.29
338.00 25.96
339.00 26.18
340.00 27.04
341.00 28.83
342.00 32.45
343.00 42.75
344.00 37.71
345.00 29.06
346.00 24.93
347.00 22.68
348.00 21.85
349.00 22.62
350.00 26.09
351.00 33.53
352.00 22.34
353.00 15.56
354.00 11.19
355.00 8.02
356.00 5.61
357.00 3.75
358.00 2.33
359.00 1.28
