NAME ATR4518R7_0832_X_CO_P45_07T
FREQUENCY 0832
GAIN 14.48 dBd
TILT	ELECTRICAL
COMMENT DATE 05.08.2013 +45 degrees polarized system Lever position 07T deg
HORIZONTAL 360
0.00 0.00
1.00 0.01
2.00 0.02
3.00 0.03
4.00 0.05
5.00 0.08
6.00 0.11
7.00 0.14
8.00 0.19
9.00 0.23
10.00 0.29
11.00 0.35
12.00 0.41
13.00 0.48
14.00 0.55
15.00 0.64
16.00 0.72
17.00 0.81
18.00 0.91
19.00 1.01
20.00 1.12
21.00 1.23
22.00 1.35
23.00 1.47
24.00 1.60
25.00 1.74
26.00 1.88
27.00 2.02
28.00 2.17
29.00 2.32
30.00 2.49
31.00 2.65
32.00 2.82
33.00 3.00
34.00 3.18
35.00 3.36
36.00 3.55
37.00 3.75
38.00 3.95
39.00 4.16
40.00 4.37
41.00 4.59
42.00 4.81
43.00 5.03
44.00 5.26
45.00 5.50
46.00 5.74
47.00 5.98
48.00 6.23
49.00 6.49
50.00 6.74
51.00 7.01
52.00 7.28
53.00 7.55
54.00 7.82
55.00 8.11
56.00 8.39
57.00 8.68
58.00 8.97
59.00 9.27
60.00 9.57
61.00 9.88
62.00 10.19
63.00 10.50
64.00 10.82
65.00 11.14
66.00 11.46
67.00 11.79
68.00 12.12
69.00 12.46
70.00 12.80
71.00 13.14
72.00 13.49
73.00 13.84
74.00 14.19
75.00 14.54
76.00 14.90
77.00 15.26
78.00 15.63
79.00 16.00
80.00 16.37
81.00 16.74
82.00 17.12
83.00 17.50
84.00 17.89
85.00 18.27
86.00 18.66
87.00 19.05
88.00 19.45
89.00 19.85
90.00 20.25
91.00 20.65
92.00 21.05
93.00 21.46
94.00 21.86
95.00 22.27
96.00 22.67
97.00 23.08
98.00 23.48
99.00 23.87
100.00 24.27
101.00 24.65
102.00 25.02
103.00 25.39
104.00 25.74
105.00 26.07
106.00 26.39
107.00 26.68
108.00 26.96
109.00 27.21
110.00 27.44
111.00 27.64
112.00 27.82
113.00 27.97
114.00 28.10
115.00 28.21
116.00 28.29
117.00 28.36
118.00 28.41
119.00 28.45
120.00 28.47
121.00 28.49
122.00 28.50
123.00 28.51
124.00 28.52
125.00 28.53
126.00 28.54
127.00 28.55
128.00 28.57
129.00 28.59
130.00 28.62
131.00 28.66
132.00 28.70
133.00 28.75
134.00 28.80
135.00 28.87
136.00 28.94
137.00 29.02
138.00 29.11
139.00 29.21
140.00 29.31
141.00 29.42
142.00 29.54
143.00 29.66
144.00 29.79
145.00 29.92
146.00 30.05
147.00 30.19
148.00 30.33
149.00 30.47
150.00 30.61
151.00 30.75
152.00 30.89
153.00 31.02
154.00 31.16
155.00 31.29
156.00 31.42
157.00 31.54
158.00 31.66
159.00 31.77
160.00 31.88
161.00 31.98
162.00 32.08
163.00 32.18
164.00 32.27
165.00 32.36
166.00 32.44
167.00 32.53
168.00 32.61
169.00 32.69
170.00 32.77
171.00 32.86
172.00 32.94
173.00 33.03
174.00 33.11
175.00 33.20
176.00 33.29
177.00 33.38
178.00 33.47
179.00 33.57
180.00 33.67
181.00 33.76
182.00 33.86
183.00 33.95
184.00 34.05
185.00 34.14
186.00 34.23
187.00 34.31
188.00 34.39
189.00 34.47
190.00 34.54
191.00 34.60
192.00 34.66
193.00 34.71
194.00 34.75
195.00 34.78
196.00 34.80
197.00 34.83
198.00 34.84
199.00 34.85
200.00 34.85
201.00 34.85
202.00 34.85
203.00 34.84
204.00 34.83
205.00 34.83
206.00 34.82
207.00 34.81
208.00 34.81
209.00 34.81
210.00 34.82
211.00 34.82
212.00 34.83
213.00 34.85
214.00 34.86
215.00 34.88
216.00 34.90
217.00 34.93
218.00 34.95
219.00 34.96
220.00 34.97
221.00 34.98
222.00 34.98
223.00 34.97
224.00 34.94
225.00 34.89
226.00 34.82
227.00 34.73
228.00 34.61
229.00 34.46
230.00 34.29
231.00 34.08
232.00 33.84
233.00 33.58
234.00 33.28
235.00 32.95
236.00 32.60
237.00 32.23
238.00 31.84
239.00 31.43
240.00 31.01
241.00 30.57
242.00 30.13
243.00 29.69
244.00 29.23
245.00 28.78
246.00 28.33
247.00 27.87
248.00 27.42
249.00 26.97
250.00 26.53
251.00 26.09
252.00 25.65
253.00 25.22
254.00 24.80
255.00 24.38
256.00 23.97
257.00 23.57
258.00 23.17
259.00 22.78
260.00 22.39
261.00 22.01
262.00 21.64
263.00 21.27
264.00 20.91
265.00 20.56
266.00 20.21
267.00 19.87
268.00 19.53
269.00 19.19
270.00 18.86
271.00 18.54
272.00 18.22
273.00 17.90
274.00 17.59
275.00 17.28
276.00 16.98
277.00 16.67
278.00 16.37
279.00 16.07
280.00 15.77
281.00 15.47
282.00 15.18
283.00 14.88
284.00 14.59
285.00 14.29
286.00 14.00
287.00 13.70
288.00 13.40
289.00 13.11
290.00 12.82
291.00 12.52
292.00 12.22
293.00 11.93
294.00 11.63
295.00 11.33
296.00 11.04
297.00 10.75
298.00 10.45
299.00 10.16
300.00 9.86
301.00 9.57
302.00 9.28
303.00 8.99
304.00 8.70
305.00 8.42
306.00 8.14
307.00 7.86
308.00 7.58
309.00 7.31
310.00 7.04
311.00 6.77
312.00 6.51
313.00 6.25
314.00 5.99
315.00 5.74
316.00 5.49
317.00 5.25
318.00 5.01
319.00 4.78
320.00 4.55
321.00 4.33
322.00 4.11
323.00 3.90
324.00 3.69
325.00 3.49
326.00 3.29
327.00 3.10
328.00 2.92
329.00 2.74
330.00 2.56
331.00 2.39
332.00 2.23
333.00 2.07
334.00 1.92
335.00 1.78
336.00 1.64
337.00 1.50
338.00 1.37
339.00 1.25
340.00 1.13
341.00 1.02
342.00 0.92
343.00 0.82
344.00 0.72
345.00 0.64
346.00 0.55
347.00 0.48
348.00 0.41
349.00 0.34
350.00 0.28
351.00 0.23
352.00 0.18
353.00 0.14
354.00 0.10
355.00 0.07
356.00 0.05
357.00 0.03
358.00 0.01
359.00 0.01
VERTICAL 360
0.00 9.47
1.00 6.56
2.00 4.36
3.00 2.70
4.00 1.48
5.00 0.64
6.00 0.16
7.00 0.00
8.00 0.17
9.00 0.65
10.00 1.48
11.00 2.66
12.00 4.27
13.00 6.39
14.00 9.15
15.00 12.85
16.00 18.19
17.00 27.89
18.00 33.92
19.00 25.24
20.00 23.43
21.00 24.27
22.00 27.75
23.00 36.91
24.00 31.81
25.00 24.97
26.00 21.69
27.00 20.04
28.00 19.45
29.00 19.71
30.00 20.77
31.00 22.66
32.00 25.58
33.00 29.82
34.00 34.21
35.00 32.56
36.00 29.36
37.00 27.59
38.00 27.08
39.00 27.76
40.00 29.95
41.00 34.82
42.00 41.38
43.00 32.73
44.00 27.71
45.00 24.89
46.00 23.23
47.00 22.28
48.00 21.76
49.00 21.51
50.00 21.43
51.00 21.52
52.00 21.84
53.00 22.49
54.00 23.60
55.00 25.29
56.00 27.69
57.00 30.97
58.00 35.28
59.00 40.32
60.00 43.17
61.00 42.05
62.00 39.95
63.00 37.61
64.00 35.31
65.00 33.44
66.00 32.24
67.00 31.83
68.00 32.30
69.00 33.73
70.00 36.03
71.00 38.38
72.00 38.75
73.00 37.31
74.00 35.89
75.00 35.10
76.00 35.11
77.00 36.01
78.00 37.48
79.00 37.65
80.00 35.47
81.00 33.06
82.00 31.44
83.00 30.62
84.00 30.42
85.00 30.58
86.00 30.81
87.00 30.79
88.00 30.40
89.00 29.81
90.00 29.31
91.00 29.09
92.00 29.23
93.00 29.67
94.00 30.33
95.00 31.03
96.00 31.64
97.00 32.03
98.00 32.19
99.00 32.21
100.00 32.15
101.00 32.09
102.00 32.06
103.00 32.16
104.00 32.48
105.00 33.12
106.00 34.08
107.00 35.28
108.00 36.38
109.00 36.86
110.00 36.44
111.00 35.52
112.00 34.67
113.00 34.22
114.00 34.27
115.00 34.85
116.00 35.94
117.00 37.50
118.00 39.43
119.00 41.38
120.00 42.64
121.00 42.90
122.00 42.68
123.00 42.06
124.00 40.49
125.00 38.17
126.00 35.86
127.00 33.96
128.00 32.53
129.00 31.49
130.00 30.78
131.00 30.31
132.00 30.06
133.00 29.98
134.00 30.08
135.00 30.39
136.00 30.94
137.00 31.76
138.00 32.77
139.00 33.68
140.00 33.95
141.00 33.25
142.00 32.01
143.00 30.77
144.00 29.80
145.00 29.17
146.00 28.85
147.00 28.79
148.00 28.93
149.00 29.20
150.00 29.57
151.00 30.00
152.00 30.55
153.00 31.25
154.00 32.19
155.00 33.46
156.00 35.15
157.00 37.38
158.00 40.09
159.00 42.67
160.00 43.53
161.00 42.92
162.00 42.53
163.00 42.88
164.00 43.14
165.00 42.12
166.00 39.75
167.00 37.49
168.00 35.77
169.00 34.57
170.00 33.77
171.00 33.36
172.00 33.31
173.00 33.67
174.00 33.79
175.00 34.41
176.00 35.61
177.00 37.51
178.00 40.24
179.00 43.81
180.00 46.79
181.00 46.88
182.00 46.46
183.00 47.06
184.00 47.33
185.00 44.48
186.00 40.67
187.00 37.69
188.00 35.62
189.00 34.30
190.00 33.58
191.00 33.35
192.00 33.51
193.00 33.97
194.00 34.64
195.00 35.47
196.00 36.40
197.00 37.42
198.00 38.53
199.00 39.71
200.00 40.94
201.00 42.17
202.00 43.24
203.00 43.79
204.00 43.56
205.00 42.92
206.00 42.42
207.00 42.03
208.00 41.08
209.00 39.14
210.00 36.86
211.00 34.92
212.00 33.51
213.00 32.62
214.00 32.15
215.00 31.98
216.00 32.02
217.00 32.19
218.00 32.44
219.00 32.71
220.00 33.01
221.00 33.37
222.00 33.91
223.00 34.81
224.00 36.31
225.00 38.60
226.00 41.15
227.00 41.00
228.00 38.27
229.00 35.87
230.00 34.31
231.00 33.36
232.00 32.75
233.00 32.23
234.00 31.60
235.00 30.84
236.00 30.06
237.00 29.45
238.00 29.15
239.00 29.22
240.00 29.64
241.00 30.32
242.00 31.08
243.00 31.61
244.00 31.64
245.00 31.10
246.00 30.30
247.00 29.60
248.00 29.19
249.00 29.14
250.00 29.38
251.00 29.78
252.00 30.20
253.00 30.50
254.00 30.66
255.00 30.75
256.00 30.89
257.00 31.19
258.00 31.68
259.00 32.32
260.00 32.98
261.00 33.49
262.00 33.73
263.00 33.71
264.00 33.61
265.00 33.65
266.00 34.07
267.00 35.00
268.00 36.47
269.00 38.36
270.00 40.38
271.00 42.09
272.00 43.22
273.00 43.90
274.00 44.25
275.00 43.85
276.00 41.98
277.00 39.19
278.00 36.57
279.00 34.56
280.00 33.21
281.00 32.47
282.00 32.22
283.00 32.34
284.00 32.72
285.00 33.19
286.00 33.62
287.00 33.86
288.00 33.92
289.00 33.96
290.00 34.24
291.00 35.03
292.00 36.61
293.00 39.39
294.00 44.52
295.00 58.63
296.00 47.67
297.00 41.48
298.00 38.31
299.00 36.26
300.00 34.73
301.00 33.47
302.00 32.49
303.00 31.89
304.00 31.88
305.00 32.73
306.00 35.00
307.00 39.99
308.00 42.41
309.00 34.30
310.00 29.39
311.00 26.24
312.00 24.08
313.00 22.56
314.00 21.48
315.00 20.72
316.00 20.21
317.00 19.90
318.00 19.83
319.00 20.05
320.00 20.65
321.00 21.76
322.00 23.59
323.00 26.55
324.00 31.75
325.00 44.90
326.00 35.65
327.00 29.76
328.00 27.18
329.00 26.14
330.00 26.16
331.00 27.14
332.00 29.21
333.00 32.99
334.00 41.03
335.00 43.42
336.00 34.25
337.00 30.40
338.00 28.45
339.00 27.58
340.00 27.37
341.00 27.29
342.00 26.70
343.00 25.39
344.00 23.91
345.00 22.80
346.00 22.35
347.00 22.76
348.00 24.32
349.00 27.78
350.00 36.58
351.00 36.99
352.00 27.69
353.00 24.22
354.00 23.16
355.00 24.46
356.00 30.95
357.00 31.11
358.00 19.24
359.00 13.41
