NAME ATR4518R7_1750_X_CO_P45_01T_yL
FREQUENCY 1750
GAIN 15.15 dBd
TILT	ELECTRICAL
COMMENT DATE 05.08.2013 +45 degrees polarized system Lever position 01T deg
HORIZONTAL 360
0.00 0.01
1.00 0.00
2.00 0.00
3.00 0.00
4.00 0.01
5.00 0.03
6.00 0.06
7.00 0.09
8.00 0.12
9.00 0.16
10.00 0.21
11.00 0.26
12.00 0.32
13.00 0.39
14.00 0.45
15.00 0.53
16.00 0.60
17.00 0.68
18.00 0.77
19.00 0.85
20.00 0.94
21.00 1.04
22.00 1.14
23.00 1.24
24.00 1.34
25.00 1.45
26.00 1.57
27.00 1.68
28.00 1.81
29.00 1.93
30.00 2.07
31.00 2.20
32.00 2.35
33.00 2.50
34.00 2.65
35.00 2.81
36.00 2.98
37.00 3.15
38.00 3.33
39.00 3.51
40.00 3.70
41.00 3.90
42.00 4.10
43.00 4.31
44.00 4.52
45.00 4.73
46.00 4.95
47.00 5.18
48.00 5.41
49.00 5.64
50.00 5.88
51.00 6.12
52.00 6.36
53.00 6.61
54.00 6.87
55.00 7.12
56.00 7.38
57.00 7.65
58.00 7.92
59.00 8.19
60.00 8.47
61.00 8.75
62.00 9.04
63.00 9.34
64.00 9.65
65.00 9.96
66.00 10.28
67.00 10.60
68.00 10.93
69.00 11.28
70.00 11.63
71.00 11.99
72.00 12.36
73.00 12.73
74.00 13.11
75.00 13.50
76.00 13.90
77.00 14.30
78.00 14.70
79.00 15.11
80.00 15.52
81.00 15.92
82.00 16.33
83.00 16.73
84.00 17.12
85.00 17.50
86.00 17.87
87.00 18.23
88.00 18.58
89.00 18.91
90.00 19.23
91.00 19.54
92.00 19.84
93.00 20.14
94.00 20.42
95.00 20.71
96.00 21.00
97.00 21.29
98.00 21.58
99.00 21.88
100.00 22.20
101.00 22.52
102.00 22.86
103.00 23.20
104.00 23.55
105.00 23.91
106.00 24.26
107.00 24.62
108.00 24.96
109.00 25.30
110.00 25.62
111.00 25.92
112.00 26.20
113.00 26.46
114.00 26.71
115.00 26.95
116.00 27.18
117.00 27.42
118.00 27.67
119.00 27.95
120.00 28.24
121.00 28.57
122.00 28.92
123.00 29.29
124.00 29.68
125.00 30.08
126.00 30.44
127.00 30.76
128.00 30.99
129.00 31.12
130.00 31.11
131.00 30.99
132.00 30.76
133.00 30.46
134.00 30.12
135.00 29.77
136.00 29.45
137.00 29.17
138.00 28.95
139.00 28.79
140.00 28.70
141.00 28.70
142.00 28.79
143.00 28.97
144.00 29.24
145.00 29.62
146.00 30.10
147.00 30.70
148.00 31.41
149.00 32.25
150.00 33.21
151.00 34.28
152.00 35.39
153.00 36.47
154.00 37.32
155.00 37.77
156.00 37.70
157.00 37.23
158.00 36.54
159.00 35.82
160.00 35.16
161.00 34.63
162.00 34.23
163.00 33.99
164.00 33.89
165.00 33.95
166.00 34.16
167.00 34.54
168.00 35.08
169.00 35.79
170.00 36.68
171.00 37.74
172.00 38.91
173.00 40.05
174.00 40.87
175.00 41.03
176.00 40.42
177.00 39.35
178.00 38.14
179.00 37.00
180.00 36.01
181.00 35.18
182.00 34.52
183.00 34.03
184.00 33.68
185.00 33.48
186.00 33.43
187.00 33.52
188.00 33.75
189.00 34.13
190.00 34.68
191.00 35.41
192.00 36.35
193.00 37.52
194.00 38.99
195.00 40.82
196.00 42.98
197.00 45.16
198.00 46.06
199.00 44.72
200.00 42.47
201.00 40.33
202.00 38.55
203.00 37.09
204.00 35.90
205.00 34.93
206.00 34.14
207.00 33.51
208.00 33.00
209.00 32.62
210.00 32.34
211.00 32.17
212.00 32.09
213.00 32.11
214.00 32.22
215.00 32.43
216.00 32.74
217.00 33.17
218.00 33.71
219.00 34.40
220.00 35.24
221.00 36.28
222.00 37.53
223.00 39.05
224.00 40.80
225.00 42.53
226.00 43.49
227.00 42.81
228.00 40.96
229.00 38.90
230.00 37.03
231.00 35.40
232.00 34.02
233.00 32.83
234.00 31.82
235.00 30.95
236.00 30.20
237.00 29.56
238.00 29.02
239.00 28.56
240.00 28.17
241.00 27.85
242.00 27.58
243.00 27.36
244.00 27.18
245.00 27.04
246.00 26.91
247.00 26.80
248.00 26.69
249.00 26.57
250.00 26.43
251.00 26.26
252.00 26.06
253.00 25.82
254.00 25.54
255.00 25.24
256.00 24.90
257.00 24.54
258.00 24.16
259.00 23.76
260.00 23.37
261.00 22.97
262.00 22.57
263.00 22.18
264.00 21.79
265.00 21.41
266.00 21.04
267.00 20.67
268.00 20.31
269.00 19.96
270.00 19.60
271.00 19.25
272.00 18.91
273.00 18.56
274.00 18.22
275.00 17.87
276.00 17.53
277.00 17.18
278.00 16.84
279.00 16.50
280.00 16.16
281.00 15.82
282.00 15.48
283.00 15.15
284.00 14.82
285.00 14.49
286.00 14.16
287.00 13.84
288.00 13.52
289.00 13.21
290.00 12.90
291.00 12.60
292.00 12.30
293.00 12.00
294.00 11.70
295.00 11.41
296.00 11.12
297.00 10.83
298.00 10.55
299.00 10.26
300.00 9.98
301.00 9.70
302.00 9.42
303.00 9.14
304.00 8.87
305.00 8.60
306.00 8.33
307.00 8.07
308.00 7.81
309.00 7.55
310.00 7.30
311.00 7.05
312.00 6.80
313.00 6.56
314.00 6.33
315.00 6.10
316.00 5.87
317.00 5.65
318.00 5.43
319.00 5.22
320.00 5.01
321.00 4.80
322.00 4.60
323.00 4.40
324.00 4.20
325.00 4.00
326.00 3.81
327.00 3.62
328.00 3.44
329.00 3.25
330.00 3.07
331.00 2.89
332.00 2.72
333.00 2.55
334.00 2.39
335.00 2.22
336.00 2.07
337.00 1.92
338.00 1.77
339.00 1.63
340.00 1.50
341.00 1.36
342.00 1.24
343.00 1.12
344.00 1.01
345.00 0.90
346.00 0.80
347.00 0.71
348.00 0.62
349.00 0.53
350.00 0.46
351.00 0.39
352.00 0.32
353.00 0.26
354.00 0.21
355.00 0.16
356.00 0.12
357.00 0.08
358.00 0.05
359.00 0.03
VERTICAL 360
0.00 0.62
1.00 0.04
2.00 0.13
3.00 0.90
4.00 2.45
5.00 5.00
6.00 9.09
7.00 16.58
8.00 24.43
9.00 15.28
10.00 12.45
11.00 12.16
12.00 13.78
13.00 17.89
14.00 29.52
15.00 24.47
16.00 17.41
17.00 14.86
18.00 14.23
19.00 14.92
20.00 16.62
21.00 18.58
22.00 18.66
23.00 16.88
24.00 15.47
25.00 15.24
26.00 16.30
27.00 18.72
28.00 22.46
29.00 25.15
30.00 22.02
31.00 18.26
32.00 15.91
33.00 14.89
34.00 15.01
35.00 16.00
36.00 17.45
37.00 18.95
38.00 20.52
39.00 22.64
40.00 25.79
41.00 29.77
42.00 32.26
43.00 31.09
44.00 28.17
45.00 25.38
46.00 23.41
47.00 22.12
48.00 21.17
49.00 20.36
50.00 19.79
51.00 19.70
52.00 20.20
53.00 21.26
54.00 22.67
55.00 24.21
56.00 25.79
57.00 27.39
58.00 29.02
59.00 30.47
60.00 31.25
61.00 31.20
62.00 30.56
63.00 29.72
64.00 29.18
65.00 29.14
66.00 29.50
67.00 30.13
68.00 30.88
69.00 31.62
70.00 32.36
71.00 33.23
72.00 34.30
73.00 35.81
74.00 38.09
75.00 40.74
76.00 42.85
77.00 45.47
78.00 50.68
79.00 57.37
80.00 51.01
81.00 43.07
82.00 38.09
83.00 35.52
84.00 34.79
85.00 35.43
86.00 36.92
87.00 38.68
88.00 38.98
89.00 36.76
90.00 34.83
91.00 34.43
92.00 35.44
93.00 37.12
94.00 38.47
95.00 39.10
96.00 39.41
97.00 39.88
98.00 40.50
99.00 41.01
100.00 41.81
101.00 43.18
102.00 44.66
103.00 46.61
104.00 50.23
105.00 54.46
106.00 58.15
107.00 52.80
108.00 45.73
109.00 42.50
110.00 41.62
111.00 42.03
112.00 42.71
113.00 42.73
114.00 42.08
115.00 41.61
116.00 41.76
117.00 42.46
118.00 43.79
119.00 45.93
120.00 48.36
121.00 50.43
122.00 52.67
123.00 55.20
124.00 59.08
125.00 55.86
126.00 49.74
127.00 46.40
128.00 43.27
129.00 39.93
130.00 37.42
131.00 35.92
132.00 34.96
133.00 34.05
134.00 33.03
135.00 32.11
136.00 31.65
137.00 31.84
138.00 32.71
139.00 34.07
140.00 35.74
141.00 37.70
142.00 40.27
143.00 44.16
144.00 47.49
145.00 42.41
146.00 38.00
147.00 35.86
148.00 35.85
149.00 38.43
150.00 46.56
151.00 49.30
152.00 39.73
153.00 36.24
154.00 34.30
155.00 33.26
156.00 33.24
157.00 34.56
158.00 37.67
159.00 43.58
160.00 46.97
161.00 41.17
162.00 38.39
163.00 37.88
164.00 39.03
165.00 40.45
166.00 39.54
167.00 37.26
168.00 35.17
169.00 33.51
170.00 32.54
171.00 32.56
172.00 33.73
173.00 36.03
174.00 38.97
175.00 40.54
176.00 39.14
177.00 36.91
178.00 35.14
179.00 34.13
180.00 33.85
181.00 34.23
182.00 35.31
183.00 37.22
184.00 39.87
185.00 42.39
186.00 43.49
187.00 43.90
188.00 44.18
189.00 44.20
190.00 45.03
191.00 45.78
192.00 41.81
193.00 37.91
194.00 36.07
195.00 35.92
196.00 36.90
197.00 38.34
198.00 40.28
199.00 44.22
200.00 56.37
201.00 50.65
202.00 45.16
203.00 45.22
204.00 47.61
205.00 45.14
206.00 40.78
207.00 37.79
208.00 35.75
209.00 34.51
210.00 34.04
211.00 34.04
212.00 34.00
213.00 33.67
214.00 33.44
215.00 33.67
216.00 34.32
217.00 34.96
218.00 35.31
219.00 35.60
220.00 36.03
221.00 36.46
222.00 36.56
223.00 36.27
224.00 35.83
225.00 35.42
226.00 35.10
227.00 34.83
228.00 34.71
229.00 34.91
230.00 35.59
231.00 36.71
232.00 37.98
233.00 38.91
234.00 39.39
235.00 39.81
236.00 40.51
237.00 41.50
238.00 42.65
239.00 43.93
240.00 45.31
241.00 46.50
242.00 46.95
243.00 46.37
244.00 45.02
245.00 43.41
246.00 42.60
247.00 43.69
248.00 47.86
249.00 52.62
250.00 46.65
251.00 42.91
252.00 41.78
253.00 44.02
254.00 57.67
255.00 45.16
256.00 39.81
257.00 39.52
258.00 43.32
259.00 54.32
260.00 51.25
261.00 43.35
262.00 38.55
263.00 36.31
264.00 36.34
265.00 37.82
266.00 38.60
267.00 38.06
268.00 37.70
269.00 37.52
270.00 37.05
271.00 36.27
272.00 35.48
273.00 35.18
274.00 35.78
275.00 36.91
276.00 37.54
277.00 37.84
278.00 38.71
279.00 39.57
280.00 38.88
281.00 36.48
282.00 33.62
283.00 31.46
284.00 30.33
285.00 29.95
286.00 29.77
287.00 29.44
288.00 28.96
289.00 28.37
290.00 27.63
291.00 26.76
292.00 25.97
293.00 25.64
294.00 25.98
295.00 27.02
296.00 28.68
297.00 31.05
298.00 34.36
299.00 35.70
300.00 31.19
301.00 27.10
302.00 24.47
303.00 22.86
304.00 21.85
305.00 21.21
306.00 20.86
307.00 20.93
308.00 21.56
309.00 22.84
310.00 24.51
311.00 25.48
312.00 24.69
313.00 22.99
314.00 21.40
315.00 20.19
316.00 19.38
317.00 18.93
318.00 18.80
319.00 18.79
320.00 18.66
321.00 18.21
322.00 17.65
323.00 17.41
324.00 17.86
325.00 19.28
326.00 22.00
327.00 26.56
328.00 30.15
329.00 25.82
330.00 22.22
331.00 20.32
332.00 19.73
333.00 20.50
334.00 23.30
335.00 31.35
336.00 32.83
337.00 23.06
338.00 19.71
339.00 18.90
340.00 20.15
341.00 23.86
342.00 28.74
343.00 23.44
344.00 18.98
345.00 16.77
346.00 16.13
347.00 16.92
348.00 19.50
349.00 25.49
350.00 33.54
351.00 23.28
352.00 19.99
353.00 20.32
354.00 23.95
355.00 18.95
356.00 11.73
357.00 7.10
358.00 3.99
359.00 1.91
