NAME ATR4518R7_2140_X_CO_P45_03T_yL
FREQUENCY 2140
GAIN 15.72 dBd
TILT	ELECTRICAL
COMMENT DATE 05.08.2013 +45 degrees polarized system Lever position 03T deg
HORIZONTAL 360
0.00 0.01
1.00 0.02
2.00 0.03
3.00 0.05
4.00 0.07
5.00 0.09
6.00 0.12
7.00 0.14
8.00 0.18
9.00 0.21
10.00 0.25
11.00 0.30
12.00 0.34
13.00 0.40
14.00 0.45
15.00 0.52
16.00 0.59
17.00 0.66
18.00 0.75
19.00 0.84
20.00 0.93
21.00 1.04
22.00 1.15
23.00 1.27
24.00 1.40
25.00 1.54
26.00 1.69
27.00 1.84
28.00 2.01
29.00 2.18
30.00 2.36
31.00 2.56
32.00 2.75
33.00 2.96
34.00 3.17
35.00 3.40
36.00 3.63
37.00 3.86
38.00 4.10
39.00 4.35
40.00 4.61
41.00 4.86
42.00 5.13
43.00 5.39
44.00 5.66
45.00 5.93
46.00 6.20
47.00 6.47
48.00 6.75
49.00 7.02
50.00 7.30
51.00 7.58
52.00 7.85
53.00 8.13
54.00 8.40
55.00 8.68
56.00 8.95
57.00 9.23
58.00 9.51
59.00 9.80
60.00 10.08
61.00 10.38
62.00 10.67
63.00 10.97
64.00 11.29
65.00 11.60
66.00 11.93
67.00 12.27
68.00 12.62
69.00 12.98
70.00 13.35
71.00 13.73
72.00 14.12
73.00 14.53
74.00 14.95
75.00 15.37
76.00 15.80
77.00 16.24
78.00 16.68
79.00 17.12
80.00 17.56
81.00 18.00
82.00 18.43
83.00 18.85
84.00 19.26
85.00 19.65
86.00 20.03
87.00 20.39
88.00 20.75
89.00 21.09
90.00 21.42
91.00 21.75
92.00 22.08
93.00 22.41
94.00 22.76
95.00 23.13
96.00 23.52
97.00 23.93
98.00 24.38
99.00 24.87
100.00 25.41
101.00 25.98
102.00 26.62
103.00 27.30
104.00 28.04
105.00 28.85
106.00 29.72
107.00 30.66
108.00 31.66
109.00 32.72
110.00 33.83
111.00 34.99
112.00 36.15
113.00 37.31
114.00 38.41
115.00 39.41
116.00 40.24
117.00 40.90
118.00 41.34
119.00 41.56
120.00 41.58
121.00 41.41
122.00 41.08
123.00 40.64
124.00 40.11
125.00 39.56
126.00 38.99
127.00 38.45
128.00 37.95
129.00 37.52
130.00 37.15
131.00 36.86
132.00 36.64
133.00 36.50
134.00 36.40
135.00 36.34
136.00 36.29
137.00 36.23
138.00 36.13
139.00 35.97
140.00 35.73
141.00 35.40
142.00 35.02
143.00 34.59
144.00 34.16
145.00 33.73
146.00 33.34
147.00 33.01
148.00 32.75
149.00 32.58
150.00 32.51
151.00 32.53
152.00 32.66
153.00 32.91
154.00 33.29
155.00 33.80
156.00 34.45
157.00 35.25
158.00 36.18
159.00 37.24
160.00 38.33
161.00 39.29
162.00 39.89
163.00 39.91
164.00 39.38
165.00 38.54
166.00 37.62
167.00 36.76
168.00 36.05
169.00 35.49
170.00 35.11
171.00 34.89
172.00 34.85
173.00 34.99
174.00 35.31
175.00 35.83
176.00 36.57
177.00 37.58
178.00 38.92
179.00 40.69
180.00 43.11
181.00 46.65
182.00 52.72
183.00 61.79
184.00 51.49
185.00 46.36
186.00 43.32
187.00 41.29
188.00 39.85
189.00 38.82
190.00 38.11
191.00 37.66
192.00 37.43
193.00 37.39
194.00 37.52
195.00 37.82
196.00 38.25
197.00 38.78
198.00 39.36
199.00 39.91
200.00 40.31
201.00 40.46
202.00 40.29
203.00 39.86
204.00 39.25
205.00 38.58
206.00 37.94
207.00 37.37
208.00 36.91
209.00 36.56
210.00 36.34
211.00 36.24
212.00 36.27
213.00 36.43
214.00 36.73
215.00 37.18
216.00 37.80
217.00 38.60
218.00 39.64
219.00 40.98
220.00 42.71
221.00 45.09
222.00 48.59
223.00 54.96
224.00 73.41
225.00 52.92
226.00 47.27
227.00 43.86
228.00 41.44
229.00 39.58
230.00 38.09
231.00 36.88
232.00 35.89
233.00 35.07
234.00 34.40
235.00 33.87
236.00 33.48
237.00 33.20
238.00 33.04
239.00 33.01
240.00 33.09
241.00 33.30
242.00 33.63
243.00 34.09
244.00 34.66
245.00 35.32
246.00 36.01
247.00 36.62
248.00 36.97
249.00 36.89
250.00 36.32
251.00 35.38
252.00 34.26
253.00 33.10
254.00 31.99
255.00 30.96
256.00 30.03
257.00 29.21
258.00 28.47
259.00 27.81
260.00 27.23
261.00 26.70
262.00 26.23
263.00 25.79
264.00 25.38
265.00 24.99
266.00 24.61
267.00 24.24
268.00 23.86
269.00 23.47
270.00 23.07
271.00 22.66
272.00 22.25
273.00 21.83
274.00 21.41
275.00 20.99
276.00 20.57
277.00 20.17
278.00 19.77
279.00 19.40
280.00 19.03
281.00 18.68
282.00 18.35
283.00 18.04
284.00 17.74
285.00 17.46
286.00 17.18
287.00 16.92
288.00 16.67
289.00 16.42
290.00 16.17
291.00 15.93
292.00 15.67
293.00 15.41
294.00 15.15
295.00 14.86
296.00 14.57
297.00 14.25
298.00 13.92
299.00 13.58
300.00 13.22
301.00 12.85
302.00 12.47
303.00 12.08
304.00 11.68
305.00 11.28
306.00 10.88
307.00 10.48
308.00 10.08
309.00 9.68
310.00 9.29
311.00 8.91
312.00 8.53
313.00 8.15
314.00 7.78
315.00 7.42
316.00 7.07
317.00 6.72
318.00 6.38
319.00 6.04
320.00 5.72
321.00 5.40
322.00 5.08
323.00 4.78
324.00 4.48
325.00 4.19
326.00 3.91
327.00 3.63
328.00 3.37
329.00 3.12
330.00 2.87
331.00 2.64
332.00 2.42
333.00 2.20
334.00 2.00
335.00 1.81
336.00 1.63
337.00 1.46
338.00 1.30
339.00 1.16
340.00 1.02
341.00 0.89
342.00 0.77
343.00 0.66
344.00 0.57
345.00 0.48
346.00 0.39
347.00 0.32
348.00 0.26
349.00 0.20
350.00 0.15
351.00 0.11
352.00 0.08
353.00 0.05
354.00 0.03
355.00 0.01
356.00 0.00
357.00 0.00
358.00 0.00
359.00 0.00
VERTICAL 360
0.00 3.76
1.00 1.58
2.00 0.35
3.00 0.00
4.00 0.50
5.00 1.93
6.00 4.48
7.00 8.71
8.00 16.71
9.00 28.02
10.00 16.36
11.00 14.39
12.00 15.91
13.00 21.22
14.00 25.17
15.00 18.62
16.00 15.95
17.00 15.81
18.00 17.72
19.00 22.09
20.00 28.16
21.00 24.33
22.00 21.04
23.00 20.52
24.00 22.55
25.00 28.96
26.00 35.23
27.00 24.01
28.00 20.17
29.00 18.81
30.00 18.92
31.00 20.01
32.00 21.46
33.00 22.42
34.00 22.21
35.00 20.95
36.00 19.39
37.00 18.17
38.00 17.53
39.00 17.48
40.00 17.91
41.00 18.64
42.00 19.65
43.00 21.20
44.00 23.86
45.00 29.00
46.00 44.75
47.00 31.32
48.00 25.93
49.00 23.90
50.00 23.66
51.00 24.74
52.00 26.91
53.00 29.71
54.00 32.21
55.00 33.59
56.00 32.85
57.00 30.48
58.00 28.56
59.00 27.88
60.00 28.48
61.00 30.28
62.00 33.04
63.00 36.22
64.00 39.16
65.00 42.34
66.00 45.42
67.00 42.87
68.00 39.58
69.00 38.06
70.00 37.72
71.00 37.94
72.00 38.32
73.00 38.59
74.00 38.83
75.00 39.51
76.00 40.80
77.00 42.38
78.00 44.58
79.00 49.34
80.00 63.75
81.00 53.06
82.00 49.45
83.00 48.39
84.00 47.41
85.00 46.81
86.00 45.54
87.00 43.25
88.00 42.04
89.00 42.85
90.00 45.85
91.00 50.09
92.00 51.88
93.00 51.02
94.00 49.91
95.00 49.93
96.00 50.93
97.00 50.89
98.00 51.17
99.00 54.39
100.00 51.78
101.00 46.18
102.00 43.65
103.00 43.14
104.00 43.78
105.00 45.03
106.00 46.94
107.00 50.03
108.00 55.32
109.00 68.79
110.00 61.06
111.00 53.52
112.00 49.52
113.00 46.93
114.00 45.33
115.00 44.48
116.00 44.05
117.00 43.64
118.00 42.99
119.00 42.21
120.00 41.76
121.00 42.08
122.00 43.39
123.00 45.70
124.00 49.03
125.00 54.53
126.00 65.73
127.00 51.33
128.00 45.58
129.00 42.90
130.00 42.39
131.00 44.33
132.00 50.98
133.00 57.42
134.00 46.57
135.00 44.18
136.00 45.25
137.00 46.54
138.00 42.16
139.00 37.99
140.00 35.48
141.00 34.18
142.00 33.92
143.00 34.83
144.00 37.33
145.00 42.37
146.00 51.91
147.00 50.37
148.00 47.87
149.00 46.53
150.00 44.20
151.00 43.60
152.00 45.08
153.00 44.67
154.00 42.36
155.00 42.15
156.00 43.07
157.00 41.37
158.00 39.82
159.00 41.43
160.00 49.74
161.00 50.92
162.00 43.89
163.00 44.22
164.00 45.31
165.00 41.87
166.00 40.34
167.00 41.82
168.00 43.68
169.00 41.88
170.00 41.10
171.00 43.40
172.00 48.77
173.00 48.63
174.00 44.91
175.00 42.41
176.00 40.48
177.00 38.92
178.00 37.24
179.00 35.59
180.00 34.79
181.00 35.32
182.00 37.26
183.00 40.23
184.00 43.74
185.00 49.44
186.00 50.94
187.00 43.72
188.00 41.05
189.00 41.16
190.00 42.96
191.00 44.60
192.00 45.47
193.00 47.31
194.00 50.07
195.00 50.65
196.00 48.20
197.00 44.11
198.00 41.02
199.00 39.92
200.00 40.83
201.00 43.35
202.00 45.55
203.00 46.11
204.00 47.32
205.00 49.65
206.00 50.18
207.00 46.67
208.00 42.30
209.00 38.90
210.00 36.53
211.00 34.88
212.00 33.75
213.00 33.13
214.00 33.07
215.00 33.60
216.00 34.73
217.00 36.26
218.00 37.69
219.00 39.02
220.00 41.12
221.00 45.03
222.00 50.91
223.00 50.79
224.00 44.79
225.00 40.21
226.00 37.63
227.00 36.94
228.00 38.01
229.00 40.62
230.00 43.42
231.00 44.11
232.00 44.45
233.00 47.10
234.00 55.84
235.00 51.79
236.00 44.59
237.00 41.51
238.00 40.14
239.00 39.69
240.00 39.87
241.00 40.75
242.00 42.76
243.00 46.82
244.00 54.76
245.00 51.99
246.00 46.70
247.00 44.24
248.00 42.97
249.00 42.29
250.00 42.12
251.00 42.79
252.00 45.14
253.00 51.18
254.00 58.28
255.00 48.43
256.00 44.55
257.00 42.17
258.00 40.23
259.00 38.78
260.00 37.92
261.00 37.58
262.00 37.74
263.00 38.13
264.00 37.90
265.00 36.65
266.00 35.30
267.00 34.37
268.00 33.65
269.00 32.68
270.00 31.34
271.00 29.91
272.00 28.66
273.00 27.74
274.00 27.18
275.00 26.98
276.00 27.13
277.00 27.63
278.00 28.53
279.00 29.84
280.00 31.62
281.00 33.81
282.00 36.19
283.00 38.10
284.00 38.81
285.00 38.24
286.00 36.71
287.00 34.58
288.00 32.40
289.00 30.60
290.00 29.40
291.00 28.94
292.00 29.36
293.00 30.81
294.00 33.22
295.00 35.81
296.00 37.98
297.00 42.79
298.00 50.62
299.00 35.72
300.00 30.33
301.00 27.59
302.00 26.39
303.00 26.32
304.00 27.20
305.00 29.05
306.00 31.99
307.00 34.90
308.00 32.71
309.00 28.91
310.00 26.55
311.00 25.55
312.00 25.60
313.00 26.42
314.00 27.86
315.00 29.77
316.00 29.71
317.00 25.99
318.00 22.52
319.00 20.46
320.00 19.67
321.00 19.85
322.00 20.36
323.00 20.43
324.00 19.98
325.00 19.56
326.00 19.41
327.00 19.33
328.00 18.95
329.00 18.14
330.00 17.15
331.00 16.41
332.00 16.31
333.00 17.19
334.00 19.51
335.00 24.49
336.00 35.07
337.00 25.69
338.00 20.94
339.00 19.35
340.00 19.96
341.00 23.23
342.00 32.89
343.00 29.08
344.00 22.39
345.00 20.45
346.00 21.39
347.00 26.22
348.00 38.76
349.00 23.97
350.00 19.65
351.00 18.63
352.00 20.09
353.00 24.54
354.00 34.04
355.00 40.39
356.00 32.23
357.00 19.25
358.00 11.93
359.00 7.09
