NAME ATR4518R7_1750_X_CO_M45_10T_yL
FREQUENCY 1750
GAIN 14.51 dBd
TILT	ELECTRICAL
COMMENT DATE 05.08.2013 -45 degrees polarized system Lever position 10T deg
HORIZONTAL 360
0.00 0.05
1.00 0.02
2.00 0.01
3.00 0.00
4.00 0.00
5.00 0.01
6.00 0.02
7.00 0.04
8.00 0.07
9.00 0.11
10.00 0.15
11.00 0.20
12.00 0.26
13.00 0.33
14.00 0.40
15.00 0.48
16.00 0.56
17.00 0.66
18.00 0.75
19.00 0.85
20.00 0.96
21.00 1.07
22.00 1.19
23.00 1.31
24.00 1.43
25.00 1.55
26.00 1.68
27.00 1.81
28.00 1.95
29.00 2.08
30.00 2.22
31.00 2.36
32.00 2.50
33.00 2.64
34.00 2.78
35.00 2.93
36.00 3.07
37.00 3.22
38.00 3.37
39.00 3.52
40.00 3.67
41.00 3.83
42.00 3.98
43.00 4.14
44.00 4.30
45.00 4.46
46.00 4.63
47.00 4.80
48.00 4.96
49.00 5.13
50.00 5.31
51.00 5.49
52.00 5.66
53.00 5.85
54.00 6.03
55.00 6.22
56.00 6.42
57.00 6.62
58.00 6.82
59.00 7.03
60.00 7.24
61.00 7.46
62.00 7.68
63.00 7.91
64.00 8.15
65.00 8.39
66.00 8.64
67.00 8.90
68.00 9.17
69.00 9.44
70.00 9.72
71.00 10.01
72.00 10.31
73.00 10.62
74.00 10.93
75.00 11.25
76.00 11.57
77.00 11.90
78.00 12.23
79.00 12.57
80.00 12.91
81.00 13.25
82.00 13.58
83.00 13.92
84.00 14.25
85.00 14.57
86.00 14.88
87.00 15.19
88.00 15.48
89.00 15.76
90.00 16.04
91.00 16.29
92.00 16.54
93.00 16.77
94.00 16.99
95.00 17.20
96.00 17.39
97.00 17.58
98.00 17.77
99.00 17.94
100.00 18.11
101.00 18.28
102.00 18.45
103.00 18.61
104.00 18.78
105.00 18.94
106.00 19.11
107.00 19.29
108.00 19.46
109.00 19.64
110.00 19.83
111.00 20.03
112.00 20.24
113.00 20.46
114.00 20.69
115.00 20.93
116.00 21.19
117.00 21.47
118.00 21.77
119.00 22.07
120.00 22.40
121.00 22.73
122.00 23.07
123.00 23.41
124.00 23.74
125.00 24.05
126.00 24.33
127.00 24.56
128.00 24.73
129.00 24.84
130.00 24.89
131.00 24.87
132.00 24.81
133.00 24.71
134.00 24.59
135.00 24.46
136.00 24.34
137.00 24.25
138.00 24.18
139.00 24.16
140.00 24.19
141.00 24.27
142.00 24.40
143.00 24.59
144.00 24.84
145.00 25.16
146.00 25.52
147.00 25.94
148.00 26.39
149.00 26.85
150.00 27.32
151.00 27.74
152.00 28.08
153.00 28.32
154.00 28.44
155.00 28.42
156.00 28.30
157.00 28.10
158.00 27.86
159.00 27.62
160.00 27.41
161.00 27.26
162.00 27.17
163.00 27.15
164.00 27.23
165.00 27.41
166.00 27.68
167.00 28.06
168.00 28.54
169.00 29.13
170.00 29.79
171.00 30.52
172.00 31.23
173.00 31.83
174.00 32.18
175.00 32.17
176.00 31.80
177.00 31.15
178.00 30.35
179.00 29.53
180.00 28.76
181.00 28.07
182.00 27.48
183.00 26.99
184.00 26.62
185.00 26.37
186.00 26.22
187.00 26.18
188.00 26.26
189.00 26.46
190.00 26.78
191.00 27.24
192.00 27.84
193.00 28.60
194.00 29.56
195.00 30.72
196.00 32.14
197.00 33.82
198.00 35.69
199.00 37.35
200.00 37.89
201.00 36.84
202.00 35.01
203.00 33.18
204.00 31.57
205.00 30.23
206.00 29.13
207.00 28.22
208.00 27.49
209.00 26.91
210.00 26.46
211.00 26.14
212.00 25.94
213.00 25.85
214.00 25.87
215.00 26.00
216.00 26.25
217.00 26.63
218.00 27.14
219.00 27.82
220.00 28.67
221.00 29.76
222.00 31.14
223.00 32.92
224.00 35.30
225.00 38.57
226.00 42.66
227.00 42.96
228.00 38.70
229.00 35.09
230.00 32.40
231.00 30.32
232.00 28.66
233.00 27.30
234.00 26.17
235.00 25.22
236.00 24.42
237.00 23.74
238.00 23.16
239.00 22.69
240.00 22.29
241.00 21.97
242.00 21.72
243.00 21.53
244.00 21.39
245.00 21.30
246.00 21.25
247.00 21.23
248.00 21.23
249.00 21.25
250.00 21.27
251.00 21.27
252.00 21.26
253.00 21.21
254.00 21.11
255.00 20.97
256.00 20.78
257.00 20.55
258.00 20.27
259.00 19.97
260.00 19.63
261.00 19.29
262.00 18.94
263.00 18.59
264.00 18.25
265.00 17.91
266.00 17.59
267.00 17.29
268.00 16.99
269.00 16.71
270.00 16.45
271.00 16.19
272.00 15.94
273.00 15.69
274.00 15.45
275.00 15.20
276.00 14.95
277.00 14.69
278.00 14.43
279.00 14.15
280.00 13.86
281.00 13.56
282.00 13.25
283.00 12.92
284.00 12.59
285.00 12.25
286.00 11.91
287.00 11.56
288.00 11.21
289.00 10.87
290.00 10.52
291.00 10.18
292.00 9.85
293.00 9.53
294.00 9.22
295.00 8.91
296.00 8.62
297.00 8.34
298.00 8.07
299.00 7.81
300.00 7.57
301.00 7.33
302.00 7.11
303.00 6.90
304.00 6.69
305.00 6.50
306.00 6.32
307.00 6.14
308.00 5.97
309.00 5.81
310.00 5.65
311.00 5.50
312.00 5.36
313.00 5.21
314.00 5.08
315.00 4.94
316.00 4.81
317.00 4.68
318.00 4.55
319.00 4.42
320.00 4.30
321.00 4.17
322.00 4.05
323.00 3.93
324.00 3.80
325.00 3.68
326.00 3.55
327.00 3.42
328.00 3.30
329.00 3.17
330.00 3.04
331.00 2.91
332.00 2.78
333.00 2.64
334.00 2.51
335.00 2.38
336.00 2.25
337.00 2.12
338.00 1.99
339.00 1.85
340.00 1.73
341.00 1.60
342.00 1.48
343.00 1.36
344.00 1.24
345.00 1.12
346.00 1.01
347.00 0.91
348.00 0.81
349.00 0.71
350.00 0.62
351.00 0.54
352.00 0.46
353.00 0.39
354.00 0.32
355.00 0.26
356.00 0.20
357.00 0.15
358.00 0.11
359.00 0.08
VERTICAL 360
0.00 25.53
1.00 27.35
2.00 41.90
3.00 19.71
4.00 12.44
5.00 7.90
6.00 4.76
7.00 2.57
8.00 1.10
9.00 0.26
10.00 0.00
11.00 0.32
12.00 1.27
13.00 2.95
14.00 5.56
15.00 9.58
16.00 16.45
17.00 26.88
18.00 17.63
19.00 14.18
20.00 13.28
21.00 14.00
22.00 16.32
23.00 20.81
24.00 25.51
25.00 21.26
26.00 17.92
27.00 16.72
28.00 17.09
29.00 18.85
30.00 21.88
31.00 24.73
32.00 23.57
33.00 20.97
34.00 19.36
35.00 18.92
36.00 19.68
37.00 21.82
38.00 25.78
39.00 30.00
40.00 26.83
41.00 23.06
42.00 20.81
43.00 19.64
44.00 19.34
45.00 19.93
46.00 21.45
47.00 24.01
48.00 27.73
49.00 31.33
50.00 29.53
51.00 25.34
52.00 21.79
53.00 18.98
54.00 16.91
55.00 15.56
56.00 14.88
57.00 14.75
58.00 15.03
59.00 15.55
60.00 16.22
61.00 16.95
62.00 17.70
63.00 18.42
64.00 19.13
65.00 19.89
66.00 20.76
67.00 21.73
68.00 22.76
69.00 23.74
70.00 24.59
71.00 25.29
72.00 25.91
73.00 26.57
74.00 27.31
75.00 28.01
76.00 28.29
77.00 27.97
78.00 27.30
79.00 26.68
80.00 26.29
81.00 26.28
82.00 26.76
83.00 27.70
84.00 28.88
85.00 29.86
86.00 30.25
87.00 30.31
88.00 31.14
89.00 34.12
90.00 42.75
91.00 45.31
92.00 37.82
93.00 38.20
94.00 45.51
95.00 40.92
96.00 34.49
97.00 32.27
98.00 32.39
99.00 34.46
100.00 38.88
101.00 47.01
102.00 48.90
103.00 43.77
104.00 40.73
105.00 39.05
106.00 39.38
107.00 42.51
108.00 48.21
109.00 45.55
110.00 42.82
111.00 42.81
112.00 43.23
113.00 42.01
114.00 40.32
115.00 39.23
116.00 38.73
117.00 38.67
118.00 38.85
119.00 39.03
120.00 39.09
121.00 39.02
122.00 38.76
123.00 38.18
124.00 37.42
125.00 36.87
126.00 36.86
127.00 37.56
128.00 38.89
129.00 40.46
130.00 41.57
131.00 41.83
132.00 41.43
133.00 40.69
134.00 40.32
135.00 41.26
136.00 44.58
137.00 53.53
138.00 56.06
139.00 47.83
140.00 44.48
141.00 41.77
142.00 39.83
143.00 39.06
144.00 39.42
145.00 40.53
146.00 41.86
147.00 42.97
148.00 43.72
149.00 43.78
150.00 42.24
151.00 39.76
152.00 37.92
153.00 37.29
154.00 37.62
155.00 37.70
156.00 36.37
157.00 34.67
158.00 33.61
159.00 33.19
160.00 33.00
161.00 32.61
162.00 32.07
163.00 31.79
164.00 31.93
165.00 32.13
166.00 31.68
167.00 30.33
168.00 28.77
169.00 27.54
170.00 26.79
171.00 26.50
172.00 26.71
173.00 27.58
174.00 29.26
175.00 32.06
176.00 36.53
177.00 42.79
178.00 44.02
179.00 43.16
180.00 47.30
181.00 48.49
182.00 40.38
183.00 37.08
184.00 35.35
185.00 33.14
186.00 30.74
187.00 29.38
188.00 29.47
189.00 31.14
190.00 34.32
191.00 38.25
192.00 40.02
193.00 38.25
194.00 35.57
195.00 33.78
196.00 33.37
197.00 34.24
198.00 35.42
199.00 35.23
200.00 34.31
201.00 34.31
202.00 35.99
203.00 40.15
204.00 46.75
205.00 42.24
206.00 37.91
207.00 35.78
208.00 34.58
209.00 33.40
210.00 31.79
211.00 29.97
212.00 28.49
213.00 27.64
214.00 27.55
215.00 28.19
216.00 29.45
217.00 31.02
218.00 32.39
219.00 33.33
220.00 34.25
221.00 35.87
222.00 38.97
223.00 44.18
224.00 44.97
225.00 41.28
226.00 40.41
227.00 42.51
228.00 46.63
229.00 44.34
230.00 41.09
231.00 40.49
232.00 42.35
233.00 47.09
234.00 50.96
235.00 45.73
236.00 42.37
237.00 40.73
238.00 40.29
239.00 41.17
240.00 44.19
241.00 52.53
242.00 51.79
243.00 43.69
244.00 40.43
245.00 39.08
246.00 38.82
247.00 39.05
248.00 39.11
249.00 38.86
250.00 38.79
251.00 39.17
252.00 39.77
253.00 40.57
254.00 42.04
255.00 43.79
256.00 43.56
257.00 42.21
258.00 42.20
259.00 44.04
260.00 46.00
261.00 43.91
262.00 40.49
263.00 37.69
264.00 35.53
265.00 34.02
266.00 33.06
267.00 32.43
268.00 31.85
269.00 31.23
270.00 30.60
271.00 29.97
272.00 29.29
273.00 28.56
274.00 27.89
275.00 27.46
276.00 27.43
277.00 27.91
278.00 28.92
279.00 30.31
280.00 31.85
281.00 33.26
282.00 34.43
283.00 35.32
284.00 35.47
285.00 34.42
286.00 32.71
287.00 31.16
288.00 30.10
289.00 29.45
290.00 28.97
291.00 28.37
292.00 27.51
293.00 26.45
294.00 25.34
295.00 24.34
296.00 23.56
297.00 23.10
298.00 23.03
299.00 23.38
300.00 24.04
301.00 24.58
302.00 24.33
303.00 23.16
304.00 21.77
305.00 20.72
306.00 20.20
307.00 20.19
308.00 20.57
309.00 21.21
310.00 22.14
311.00 23.42
312.00 24.52
313.00 23.86
314.00 21.65
315.00 19.60
316.00 18.26
317.00 17.59
318.00 17.45
319.00 17.89
320.00 19.17
321.00 21.83
322.00 25.97
323.00 24.73
324.00 19.91
325.00 16.79
326.00 14.97
327.00 13.99
328.00 13.62
329.00 13.81
330.00 14.67
331.00 16.35
332.00 19.07
333.00 23.09
334.00 28.33
335.00 30.93
336.00 29.43
337.00 28.65
338.00 28.88
339.00 28.87
340.00 27.49
341.00 25.64
342.00 24.44
343.00 24.31
344.00 25.38
345.00 27.28
346.00 27.61
347.00 25.34
348.00 23.47
349.00 23.13
350.00 24.51
351.00 27.00
352.00 26.41
353.00 23.16
354.00 21.06
355.00 20.56
356.00 21.80
357.00 25.52
358.00 33.47
359.00 29.41
