NAME ATR4518R7_1750_X_CO_P45_04T_yL
FREQUENCY 1750
GAIN 15.09 dBd
TILT	ELECTRICAL
COMMENT DATE 05.08.2013 +45 degrees polarized system Lever position 04T deg
HORIZONTAL 360
0.00 0.01
1.00 0.01
2.00 0.00
3.00 0.01
4.00 0.03
5.00 0.05
6.00 0.08
7.00 0.11
8.00 0.15
9.00 0.20
10.00 0.25
11.00 0.31
12.00 0.38
13.00 0.44
14.00 0.52
15.00 0.59
16.00 0.67
17.00 0.75
18.00 0.84
19.00 0.93
20.00 1.03
21.00 1.12
22.00 1.23
23.00 1.33
24.00 1.44
25.00 1.56
26.00 1.68
27.00 1.80
28.00 1.93
29.00 2.07
30.00 2.21
31.00 2.36
32.00 2.51
33.00 2.67
34.00 2.84
35.00 3.01
36.00 3.19
37.00 3.37
38.00 3.56
39.00 3.75
40.00 3.95
41.00 4.16
42.00 4.36
43.00 4.58
44.00 4.79
45.00 5.01
46.00 5.24
47.00 5.46
48.00 5.69
49.00 5.93
50.00 6.16
51.00 6.40
52.00 6.64
53.00 6.88
54.00 7.13
55.00 7.38
56.00 7.63
57.00 7.89
58.00 8.15
59.00 8.42
60.00 8.69
61.00 8.97
62.00 9.26
63.00 9.55
64.00 9.85
65.00 10.16
66.00 10.48
67.00 10.80
68.00 11.13
69.00 11.48
70.00 11.83
71.00 12.19
72.00 12.57
73.00 12.95
74.00 13.33
75.00 13.73
76.00 14.14
77.00 14.55
78.00 14.97
79.00 15.39
80.00 15.82
81.00 16.24
82.00 16.67
83.00 17.09
84.00 17.51
85.00 17.92
86.00 18.32
87.00 18.71
88.00 19.08
89.00 19.45
90.00 19.80
91.00 20.14
92.00 20.47
93.00 20.78
94.00 21.09
95.00 21.39
96.00 21.68
97.00 21.97
98.00 22.27
99.00 22.56
100.00 22.86
101.00 23.16
102.00 23.47
103.00 23.79
104.00 24.11
105.00 24.44
106.00 24.77
107.00 25.10
108.00 25.43
109.00 25.77
110.00 26.10
111.00 26.44
112.00 26.77
113.00 27.11
114.00 27.45
115.00 27.80
116.00 28.15
117.00 28.52
118.00 28.91
119.00 29.31
120.00 29.72
121.00 30.13
122.00 30.53
123.00 30.90
124.00 31.22
125.00 31.45
126.00 31.56
127.00 31.54
128.00 31.39
129.00 31.13
130.00 30.78
131.00 30.38
132.00 29.97
133.00 29.57
134.00 29.19
135.00 28.87
136.00 28.61
137.00 28.42
138.00 28.31
139.00 28.27
140.00 28.32
141.00 28.47
142.00 28.71
143.00 29.05
144.00 29.51
145.00 30.10
146.00 30.83
147.00 31.72
148.00 32.80
149.00 34.13
150.00 35.76
151.00 37.80
152.00 40.38
153.00 43.63
154.00 46.76
155.00 46.45
156.00 43.51
157.00 40.85
158.00 38.85
159.00 37.37
160.00 36.29
161.00 35.53
162.00 35.01
163.00 34.72
164.00 34.64
165.00 34.75
166.00 35.05
167.00 35.55
168.00 36.26
169.00 37.19
170.00 38.36
171.00 39.75
172.00 41.24
173.00 42.44
174.00 42.74
175.00 41.88
176.00 40.38
177.00 38.79
178.00 37.36
179.00 36.15
180.00 35.16
181.00 34.37
182.00 33.75
183.00 33.29
184.00 32.98
185.00 32.81
186.00 32.78
187.00 32.87
188.00 33.09
189.00 33.45
190.00 33.94
191.00 34.57
192.00 35.33
193.00 36.22
194.00 37.22
195.00 38.26
196.00 39.18
197.00 39.75
198.00 39.77
199.00 39.22
200.00 38.31
201.00 37.26
202.00 36.23
203.00 35.28
204.00 34.45
205.00 33.75
206.00 33.16
207.00 32.68
208.00 32.30
209.00 32.03
210.00 31.84
211.00 31.75
212.00 31.74
213.00 31.83
214.00 32.00
215.00 32.28
216.00 32.66
217.00 33.15
218.00 33.78
219.00 34.57
220.00 35.56
221.00 36.79
222.00 38.37
223.00 40.46
224.00 43.43
225.00 48.22
226.00 58.98
227.00 52.22
228.00 45.13
229.00 41.19
230.00 38.48
231.00 36.42
232.00 34.79
233.00 33.45
234.00 32.33
235.00 31.39
236.00 30.59
237.00 29.91
238.00 29.32
239.00 28.83
240.00 28.41
241.00 28.06
242.00 27.77
243.00 27.53
244.00 27.33
245.00 27.16
246.00 27.02
247.00 26.89
248.00 26.76
249.00 26.63
250.00 26.48
251.00 26.31
252.00 26.11
253.00 25.87
254.00 25.61
255.00 25.31
256.00 24.99
257.00 24.64
258.00 24.28
259.00 23.90
260.00 23.52
261.00 23.13
262.00 22.75
263.00 22.36
264.00 21.99
265.00 21.61
266.00 21.25
267.00 20.89
268.00 20.53
269.00 20.18
270.00 19.83
271.00 19.48
272.00 19.13
273.00 18.78
274.00 18.42
275.00 18.07
276.00 17.72
277.00 17.36
278.00 17.00
279.00 16.64
280.00 16.28
281.00 15.92
282.00 15.55
283.00 15.19
284.00 14.84
285.00 14.48
286.00 14.13
287.00 13.78
288.00 13.44
289.00 13.10
290.00 12.77
291.00 12.44
292.00 12.12
293.00 11.80
294.00 11.50
295.00 11.20
296.00 10.90
297.00 10.61
298.00 10.33
299.00 10.06
300.00 9.78
301.00 9.52
302.00 9.26
303.00 9.01
304.00 8.76
305.00 8.52
306.00 8.29
307.00 8.05
308.00 7.82
309.00 7.60
310.00 7.38
311.00 7.16
312.00 6.94
313.00 6.73
314.00 6.52
315.00 6.32
316.00 6.11
317.00 5.91
318.00 5.71
319.00 5.50
320.00 5.31
321.00 5.11
322.00 4.91
323.00 4.71
324.00 4.52
325.00 4.33
326.00 4.14
327.00 3.95
328.00 3.76
329.00 3.57
330.00 3.39
331.00 3.21
332.00 3.03
333.00 2.86
334.00 2.69
335.00 2.52
336.00 2.36
337.00 2.20
338.00 2.04
339.00 1.89
340.00 1.74
341.00 1.60
342.00 1.46
343.00 1.32
344.00 1.20
345.00 1.07
346.00 0.96
347.00 0.84
348.00 0.74
349.00 0.64
350.00 0.54
351.00 0.46
352.00 0.38
353.00 0.30
354.00 0.24
355.00 0.18
356.00 0.13
357.00 0.09
358.00 0.06
359.00 0.03
VERTICAL 360
0.00 6.85
1.00 3.85
2.00 1.83
3.00 0.59
4.00 0.03
5.00 0.15
6.00 1.00
7.00 2.70
8.00 5.53
9.00 10.25
10.00 20.30
11.00 20.53
12.00 13.09
13.00 10.75
14.00 10.54
15.00 11.97
16.00 15.41
17.00 23.25
18.00 29.25
19.00 18.31
20.00 14.85
21.00 13.78
22.00 14.26
23.00 15.90
24.00 18.01
25.00 19.02
26.00 18.37
27.00 17.30
28.00 16.67
29.00 16.93
30.00 18.54
31.00 22.12
32.00 26.48
33.00 23.14
34.00 19.28
35.00 17.05
36.00 15.73
37.00 15.03
38.00 15.00
39.00 15.83
40.00 17.69
41.00 20.72
42.00 24.86
43.00 29.83
44.00 36.79
45.00 40.91
46.00 31.76
47.00 27.89
48.00 26.39
49.00 26.17
50.00 26.28
51.00 25.60
52.00 24.20
53.00 22.95
54.00 22.20
55.00 21.91
56.00 21.96
57.00 22.35
58.00 23.07
59.00 24.09
60.00 25.32
61.00 26.70
62.00 28.24
63.00 29.96
64.00 31.66
65.00 33.16
66.00 34.71
67.00 36.58
68.00 38.27
69.00 38.78
70.00 38.20
71.00 37.87
72.00 38.72
73.00 40.90
74.00 43.47
75.00 44.55
76.00 44.41
77.00 45.78
78.00 52.36
79.00 52.90
80.00 46.89
81.00 48.98
82.00 59.86
83.00 46.75
84.00 44.54
85.00 44.71
86.00 41.12
87.00 38.68
88.00 39.37
89.00 42.57
90.00 43.73
91.00 43.45
92.00 47.78
93.00 55.40
94.00 44.50
95.00 41.21
96.00 40.51
97.00 41.61
98.00 45.40
99.00 56.77
100.00 52.72
101.00 48.10
102.00 48.48
103.00 50.48
104.00 52.65
105.00 56.42
106.00 56.74
107.00 52.58
108.00 50.74
109.00 50.11
110.00 49.33
111.00 48.07
112.00 46.75
113.00 45.91
114.00 45.75
115.00 46.04
116.00 46.30
117.00 46.53
118.00 47.29
119.00 49.15
120.00 52.11
121.00 54.84
122.00 54.80
123.00 51.37
124.00 46.74
125.00 42.68
126.00 39.46
127.00 36.98
128.00 35.19
129.00 34.13
130.00 33.78
131.00 33.98
132.00 34.44
133.00 34.94
134.00 35.37
135.00 35.66
136.00 35.91
137.00 36.42
138.00 37.51
139.00 39.24
140.00 41.42
141.00 43.19
142.00 43.58
143.00 43.47
144.00 43.94
145.00 44.63
146.00 44.29
147.00 42.53
148.00 40.01
149.00 37.29
150.00 34.93
151.00 33.34
152.00 32.80
153.00 33.52
154.00 35.83
155.00 40.53
156.00 51.36
157.00 44.44
158.00 38.11
159.00 35.12
160.00 34.00
161.00 34.45
162.00 36.39
163.00 38.75
164.00 38.32
165.00 36.33
166.00 35.19
167.00 34.90
168.00 35.01
169.00 35.54
170.00 36.86
171.00 38.38
172.00 37.61
173.00 35.50
174.00 34.17
175.00 33.74
176.00 33.90
177.00 34.53
178.00 35.77
179.00 37.93
180.00 41.20
181.00 44.78
182.00 44.81
183.00 42.46
184.00 41.39
185.00 42.64
186.00 47.17
187.00 46.46
188.00 40.66
189.00 37.89
190.00 36.73
191.00 36.02
192.00 35.56
193.00 36.21
194.00 39.23
195.00 46.37
196.00 42.37
197.00 37.64
198.00 36.58
199.00 37.97
200.00 41.19
201.00 45.53
202.00 51.98
203.00 46.57
204.00 39.52
205.00 35.84
206.00 33.98
207.00 33.18
208.00 32.99
209.00 33.20
210.00 33.82
211.00 34.56
212.00 34.51
213.00 33.46
214.00 32.59
215.00 32.68
216.00 33.84
217.00 35.60
218.00 36.88
219.00 37.13
220.00 37.17
221.00 37.47
222.00 37.88
223.00 38.17
224.00 38.41
225.00 38.97
226.00 40.10
227.00 41.46
228.00 41.77
229.00 40.27
230.00 38.21
231.00 36.71
232.00 36.19
233.00 36.59
234.00 37.52
235.00 38.39
236.00 38.83
237.00 39.17
238.00 40.25
239.00 42.99
240.00 47.09
241.00 45.82
242.00 42.87
243.00 41.94
244.00 42.57
245.00 44.36
246.00 47.06
247.00 49.94
248.00 52.49
249.00 53.30
250.00 48.86
251.00 44.81
252.00 42.40
253.00 41.00
254.00 40.12
255.00 39.62
256.00 39.38
257.00 39.19
258.00 38.96
259.00 38.67
260.00 38.26
261.00 37.82
262.00 37.56
263.00 37.38
264.00 37.00
265.00 36.46
266.00 35.94
267.00 35.56
268.00 35.45
269.00 35.57
270.00 35.55
271.00 34.84
272.00 33.46
273.00 32.00
274.00 31.05
275.00 30.77
276.00 30.98
277.00 31.25
278.00 31.00
279.00 29.87
280.00 28.39
281.00 27.25
282.00 26.68
283.00 26.47
284.00 26.41
285.00 26.40
286.00 26.49
287.00 26.79
288.00 27.45
289.00 28.44
290.00 29.52
291.00 30.48
292.00 31.15
293.00 30.86
294.00 29.29
295.00 27.22
296.00 25.42
297.00 24.19
298.00 23.59
299.00 23.61
300.00 24.27
301.00 25.66
302.00 28.10
303.00 32.37
304.00 38.29
305.00 32.58
306.00 27.08
307.00 23.71
308.00 21.65
309.00 20.58
310.00 20.38
311.00 20.96
312.00 22.30
313.00 24.43
314.00 27.25
315.00 28.52
316.00 25.48
317.00 22.06
318.00 19.81
319.00 18.66
320.00 18.41
321.00 18.88
322.00 19.84
323.00 20.92
324.00 21.58
325.00 21.34
326.00 20.44
327.00 19.53
328.00 19.11
329.00 19.53
330.00 21.18
331.00 24.87
332.00 31.89
333.00 28.26
334.00 23.24
335.00 21.50
336.00 22.17
337.00 25.71
338.00 36.65
339.00 30.18
340.00 23.55
341.00 20.99
342.00 20.45
343.00 21.65
344.00 24.66
345.00 26.07
346.00 21.54
347.00 17.76
348.00 15.66
349.00 14.97
350.00 15.67
351.00 18.14
352.00 23.84
353.00 32.49
354.00 22.70
355.00 19.40
356.00 19.71
357.00 22.61
358.00 17.90
359.00 11.26
