NAME ATR4518R7_2535_X_CO_M45_04T_yL
FREQUENCY 2535
GAIN 15.83 dBd
TILT	ELECTRICAL
COMMENT DATE 05.08.2013 -45 degrees polarized system Lever position 04T deg
HORIZONTAL 360
0.00 0.04
1.00 0.08
2.00 0.13
3.00 0.19
4.00 0.26
5.00 0.34
6.00 0.44
7.00 0.54
8.00 0.65
9.00 0.77
10.00 0.89
11.00 1.02
12.00 1.15
13.00 1.28
14.00 1.42
15.00 1.55
16.00 1.68
17.00 1.81
18.00 1.95
19.00 2.08
20.00 2.21
21.00 2.34
22.00 2.48
23.00 2.62
24.00 2.76
25.00 2.91
26.00 3.06
27.00 3.22
28.00 3.39
29.00 3.56
30.00 3.75
31.00 3.94
32.00 4.15
33.00 4.36
34.00 4.58
35.00 4.81
36.00 5.05
37.00 5.30
38.00 5.55
39.00 5.82
40.00 6.09
41.00 6.37
42.00 6.65
43.00 6.94
44.00 7.24
45.00 7.54
46.00 7.84
47.00 8.14
48.00 8.45
49.00 8.76
50.00 9.07
51.00 9.38
52.00 9.69
53.00 10.00
54.00 10.30
55.00 10.61
56.00 10.91
57.00 11.21
58.00 11.51
59.00 11.81
60.00 12.11
61.00 12.41
62.00 12.72
63.00 13.03
64.00 13.34
65.00 13.66
66.00 13.99
67.00 14.32
68.00 14.67
69.00 15.02
70.00 15.39
71.00 15.77
72.00 16.15
73.00 16.54
74.00 16.94
75.00 17.34
76.00 17.73
77.00 18.13
78.00 18.51
79.00 18.89
80.00 19.25
81.00 19.60
82.00 19.94
83.00 20.26
84.00 20.58
85.00 20.89
86.00 21.20
87.00 21.52
88.00 21.85
89.00 22.19
90.00 22.56
91.00 22.96
92.00 23.39
93.00 23.86
94.00 24.37
95.00 24.92
96.00 25.51
97.00 26.15
98.00 26.84
99.00 27.56
100.00 28.33
101.00 29.14
102.00 29.98
103.00 30.86
104.00 31.78
105.00 32.74
106.00 33.75
107.00 34.83
108.00 35.99
109.00 37.27
110.00 38.70
111.00 40.28
112.00 41.96
113.00 43.51
114.00 44.34
115.00 43.91
116.00 42.54
117.00 40.90
118.00 39.36
119.00 38.02
120.00 36.91
121.00 35.99
122.00 35.27
123.00 34.70
124.00 34.30
125.00 34.04
126.00 33.92
127.00 33.93
128.00 34.09
129.00 34.39
130.00 34.84
131.00 35.45
132.00 36.25
133.00 37.26
134.00 38.50
135.00 40.02
136.00 41.86
137.00 43.96
138.00 45.93
139.00 46.66
140.00 45.57
141.00 43.68
142.00 41.86
143.00 40.33
144.00 39.11
145.00 38.15
146.00 37.41
147.00 36.85
148.00 36.47
149.00 36.22
150.00 36.10
151.00 36.11
152.00 36.23
153.00 36.45
154.00 36.77
155.00 37.19
156.00 37.70
157.00 38.29
158.00 38.96
159.00 39.69
160.00 40.47
161.00 41.28
162.00 42.08
163.00 42.82
164.00 43.49
165.00 44.04
166.00 44.46
167.00 44.74
168.00 44.91
169.00 44.98
170.00 44.97
171.00 44.87
172.00 44.67
173.00 44.38
174.00 43.99
175.00 43.51
176.00 42.99
177.00 42.44
178.00 41.92
179.00 41.45
180.00 41.06
181.00 40.80
182.00 40.67
183.00 40.69
184.00 40.92
185.00 41.36
186.00 42.09
187.00 43.18
188.00 44.77
189.00 47.11
190.00 50.79
191.00 57.06
192.00 56.74
193.00 50.02
194.00 45.86
195.00 43.05
196.00 41.00
197.00 39.46
198.00 38.31
199.00 37.46
200.00 36.88
201.00 36.54
202.00 36.45
203.00 36.59
204.00 37.00
205.00 37.70
206.00 38.77
207.00 40.31
208.00 42.56
209.00 45.96
210.00 51.60
211.00 54.51
212.00 47.69
213.00 43.27
214.00 40.38
215.00 38.34
216.00 36.85
217.00 35.76
218.00 34.99
219.00 34.50
220.00 34.27
221.00 34.27
222.00 34.51
223.00 35.01
224.00 35.79
225.00 36.90
226.00 38.38
227.00 40.28
228.00 42.43
229.00 43.85
230.00 43.06
231.00 40.80
232.00 38.51
233.00 36.60
234.00 35.07
235.00 33.87
236.00 32.94
237.00 32.23
238.00 31.72
239.00 31.39
240.00 31.21
241.00 31.16
242.00 31.24
243.00 31.41
244.00 31.65
245.00 31.91
246.00 32.14
247.00 32.27
248.00 32.23
249.00 31.98
250.00 31.52
251.00 30.90
252.00 30.18
253.00 29.43
254.00 28.67
255.00 27.96
256.00 27.30
257.00 26.70
258.00 26.17
259.00 25.71
260.00 25.32
261.00 24.99
262.00 24.72
263.00 24.50
264.00 24.34
265.00 24.21
266.00 24.12
267.00 24.04
268.00 23.98
269.00 23.90
270.00 23.81
271.00 23.68
272.00 23.50
273.00 23.27
274.00 22.99
275.00 22.65
276.00 22.27
277.00 21.86
278.00 21.43
279.00 20.99
280.00 20.56
281.00 20.13
282.00 19.71
283.00 19.31
284.00 18.93
285.00 18.56
286.00 18.21
287.00 17.86
288.00 17.52
289.00 17.18
290.00 16.85
291.00 16.50
292.00 16.15
293.00 15.79
294.00 15.41
295.00 15.02
296.00 14.63
297.00 14.22
298.00 13.81
299.00 13.40
300.00 12.98
301.00 12.57
302.00 12.16
303.00 11.75
304.00 11.34
305.00 10.94
306.00 10.54
307.00 10.15
308.00 9.76
309.00 9.37
310.00 8.99
311.00 8.60
312.00 8.22
313.00 7.83
314.00 7.44
315.00 7.05
316.00 6.66
317.00 6.27
318.00 5.89
319.00 5.51
320.00 5.13
321.00 4.76
322.00 4.41
323.00 4.06
324.00 3.72
325.00 3.40
326.00 3.10
327.00 2.81
328.00 2.54
329.00 2.28
330.00 2.04
331.00 1.83
332.00 1.62
333.00 1.44
334.00 1.27
335.00 1.12
336.00 0.98
337.00 0.86
338.00 0.76
339.00 0.66
340.00 0.58
341.00 0.51
342.00 0.45
343.00 0.39
344.00 0.34
345.00 0.30
346.00 0.26
347.00 0.22
348.00 0.19
349.00 0.16
350.00 0.13
351.00 0.10
352.00 0.07
353.00 0.04
354.00 0.02
355.00 0.01
356.00 0.00
357.00 0.00
358.00 0.00
359.00 0.02
VERTICAL 360
0.00 10.56
1.00 6.16
2.00 2.98
3.00 0.95
4.00 0.03
5.00 0.27
6.00 1.84
7.00 5.24
8.00 12.27
9.00 27.10
10.00 13.05
11.00 10.81
12.00 12.24
13.00 16.44
14.00 17.42
15.00 13.95
16.00 12.87
17.00 14.67
18.00 21.01
19.00 31.15
20.00 19.24
21.00 16.95
22.00 18.25
23.00 23.66
24.00 30.27
25.00 20.64
26.00 17.34
27.00 17.50
28.00 21.55
29.00 34.52
30.00 21.63
31.00 17.25
32.00 16.23
33.00 17.12
34.00 19.55
35.00 23.92
36.00 31.08
37.00 28.94
38.00 25.41
39.00 25.49
40.00 28.50
41.00 31.63
42.00 29.15
43.00 27.14
44.00 26.97
45.00 28.11
46.00 30.21
47.00 33.28
48.00 37.41
49.00 39.60
50.00 37.31
51.00 35.56
52.00 35.07
53.00 35.48
54.00 36.90
55.00 39.25
56.00 39.32
57.00 35.49
58.00 32.25
59.00 30.60
60.00 30.39
61.00 31.18
62.00 32.10
63.00 32.27
64.00 32.29
65.00 33.37
66.00 35.66
67.00 37.06
68.00 35.87
69.00 34.01
70.00 32.98
71.00 33.24
72.00 34.11
73.00 34.29
74.00 33.23
75.00 31.49
76.00 30.81
77.00 32.23
78.00 35.64
79.00 38.53
80.00 37.08
81.00 33.85
82.00 32.70
83.00 34.86
84.00 41.74
85.00 54.48
86.00 41.18
87.00 34.70
88.00 32.14
89.00 32.80
90.00 35.92
91.00 38.48
92.00 38.16
93.00 36.28
94.00 34.38
95.00 34.08
96.00 35.37
97.00 37.13
98.00 37.86
99.00 37.47
100.00 37.34
101.00 38.58
102.00 41.54
103.00 45.54
104.00 49.39
105.00 51.15
106.00 47.04
107.00 46.02
108.00 49.00
109.00 47.53
110.00 44.61
111.00 44.42
112.00 44.20
113.00 44.49
114.00 46.00
115.00 44.10
116.00 42.42
117.00 42.80
118.00 42.64
119.00 41.11
120.00 39.54
121.00 39.31
122.00 43.14
123.00 55.75
124.00 38.95
125.00 34.76
126.00 33.80
127.00 34.63
128.00 36.87
129.00 40.84
130.00 43.00
131.00 39.03
132.00 36.82
133.00 36.96
134.00 38.39
135.00 38.80
136.00 38.13
137.00 38.75
138.00 41.35
139.00 44.78
140.00 45.24
141.00 40.77
142.00 36.36
143.00 33.92
144.00 33.02
145.00 33.10
146.00 34.25
147.00 37.41
148.00 40.63
149.00 36.84
150.00 34.58
151.00 35.02
152.00 37.52
153.00 40.36
154.00 39.04
155.00 37.28
156.00 38.99
157.00 46.58
158.00 41.49
159.00 37.21
160.00 37.03
161.00 38.92
162.00 41.18
163.00 43.10
164.00 47.03
165.00 53.18
166.00 42.46
167.00 39.19
168.00 40.22
169.00 43.09
170.00 40.62
171.00 37.22
172.00 35.55
173.00 36.36
174.00 41.58
175.00 47.05
176.00 39.94
177.00 39.04
178.00 39.58
179.00 38.66
180.00 39.16
181.00 41.83
182.00 43.64
183.00 46.27
184.00 51.09
185.00 41.63
186.00 37.38
187.00 35.74
188.00 35.24
189.00 35.40
190.00 36.08
191.00 36.53
192.00 36.00
193.00 35.45
194.00 35.76
195.00 36.26
196.00 35.55
197.00 34.31
198.00 33.97
199.00 34.83
200.00 35.95
201.00 36.14
202.00 36.36
203.00 37.76
204.00 40.75
205.00 46.68
206.00 54.16
207.00 47.85
208.00 45.68
209.00 42.69
210.00 39.63
211.00 37.64
212.00 36.10
213.00 35.46
214.00 36.43
215.00 38.93
216.00 41.96
217.00 45.56
218.00 50.76
219.00 51.87
220.00 44.84
221.00 38.69
222.00 35.13
223.00 33.44
224.00 32.60
225.00 31.70
226.00 30.91
227.00 31.00
228.00 32.13
229.00 33.43
230.00 34.09
231.00 34.82
232.00 35.96
233.00 36.61
234.00 36.29
235.00 35.26
236.00 33.44
237.00 31.05
238.00 28.75
239.00 27.08
240.00 26.25
241.00 26.28
242.00 27.13
243.00 28.72
244.00 30.94
245.00 33.79
246.00 37.32
247.00 41.29
248.00 43.80
249.00 44.22
250.00 45.74
251.00 49.10
252.00 49.34
253.00 50.05
254.00 59.79
255.00 48.73
256.00 44.12
257.00 42.76
258.00 39.92
259.00 36.43
260.00 33.83
261.00 31.84
262.00 30.53
263.00 30.28
264.00 31.22
265.00 32.93
266.00 34.93
267.00 38.28
268.00 47.97
269.00 44.30
270.00 36.44
271.00 33.01
272.00 31.58
273.00 31.66
274.00 32.20
275.00 32.41
276.00 33.54
277.00 35.54
278.00 34.45
279.00 33.04
280.00 33.99
281.00 36.94
282.00 39.01
283.00 35.82
284.00 31.84
285.00 29.56
286.00 28.76
287.00 28.78
288.00 28.92
289.00 28.82
290.00 28.56
291.00 28.30
292.00 28.00
293.00 27.55
294.00 26.91
295.00 25.81
296.00 23.87
297.00 21.40
298.00 19.13
299.00 17.38
300.00 16.18
301.00 15.47
302.00 15.25
303.00 15.60
304.00 16.64
305.00 18.56
306.00 21.45
307.00 24.23
308.00 23.50
309.00 20.98
310.00 19.32
311.00 18.81
312.00 19.52
313.00 21.73
314.00 24.89
315.00 23.86
316.00 20.57
317.00 19.04
318.00 19.40
319.00 21.74
320.00 27.36
321.00 53.99
322.00 27.35
323.00 23.07
324.00 22.44
325.00 24.90
326.00 33.80
327.00 30.16
328.00 22.46
329.00 19.39
330.00 18.50
331.00 19.48
332.00 22.97
333.00 29.37
334.00 24.65
335.00 20.77
336.00 20.50
337.00 23.34
338.00 26.20
339.00 22.67
340.00 20.62
341.00 21.46
342.00 26.15
343.00 31.82
344.00 22.67
345.00 19.06
346.00 18.66
347.00 21.13
348.00 27.16
349.00 27.08
350.00 22.84
351.00 22.51
352.00 26.63
353.00 43.82
354.00 24.81
355.00 20.50
356.00 19.62
357.00 20.65
358.00 20.88
359.00 16.14
