NAME ATR4518R7_1950_X_CO_P45_01T_yyR
FREQUENCY 1950
GAIN 15.56 dBd
TILT	ELECTRICAL
COMMENT DATE 05.08.2013 +45 degrees polarized system Lever position 01T deg
HORIZONTAL 360
0.00 0.10
1.00 0.06
2.00 0.04
3.00 0.02
4.00 0.00
5.00 0.00
6.00 0.00
7.00 0.00
8.00 0.02
9.00 0.04
10.00 0.08
11.00 0.12
12.00 0.17
13.00 0.23
14.00 0.29
15.00 0.37
16.00 0.46
17.00 0.56
18.00 0.67
19.00 0.79
20.00 0.92
21.00 1.06
22.00 1.21
23.00 1.38
24.00 1.55
25.00 1.74
26.00 1.93
27.00 2.14
28.00 2.36
29.00 2.59
30.00 2.83
31.00 3.07
32.00 3.33
33.00 3.60
34.00 3.87
35.00 4.16
36.00 4.45
37.00 4.75
38.00 5.05
39.00 5.36
40.00 5.68
41.00 6.00
42.00 6.33
43.00 6.66
44.00 7.00
45.00 7.34
46.00 7.68
47.00 8.03
48.00 8.37
49.00 8.73
50.00 9.08
51.00 9.44
52.00 9.80
53.00 10.16
54.00 10.52
55.00 10.89
56.00 11.26
57.00 11.62
58.00 11.99
59.00 12.36
60.00 12.73
61.00 13.09
62.00 13.46
63.00 13.83
64.00 14.19
65.00 14.55
66.00 14.91
67.00 15.26
68.00 15.62
69.00 15.97
70.00 16.32
71.00 16.67
72.00 17.02
73.00 17.37
74.00 17.72
75.00 18.07
76.00 18.42
77.00 18.78
78.00 19.14
79.00 19.50
80.00 19.87
81.00 20.25
82.00 20.64
83.00 21.03
84.00 21.42
85.00 21.82
86.00 22.23
87.00 22.64
88.00 23.06
89.00 23.49
90.00 23.91
91.00 24.34
92.00 24.78
93.00 25.22
94.00 25.66
95.00 26.12
96.00 26.58
97.00 27.06
98.00 27.56
99.00 28.08
100.00 28.64
101.00 29.22
102.00 29.85
103.00 30.54
104.00 31.29
105.00 32.12
106.00 33.04
107.00 34.07
108.00 35.24
109.00 36.56
110.00 38.09
111.00 39.85
112.00 41.88
113.00 44.11
114.00 46.14
115.00 46.92
116.00 45.99
117.00 44.29
118.00 42.63
119.00 41.23
120.00 40.11
121.00 39.22
122.00 38.52
123.00 38.01
124.00 37.64
125.00 37.39
126.00 37.25
127.00 37.20
128.00 37.23
129.00 37.32
130.00 37.45
131.00 37.59
132.00 37.72
133.00 37.81
134.00 37.82
135.00 37.76
136.00 37.59
137.00 37.33
138.00 36.99
139.00 36.60
140.00 36.18
141.00 35.76
142.00 35.34
143.00 34.95
144.00 34.58
145.00 34.25
146.00 33.96
147.00 33.70
148.00 33.49
149.00 33.31
150.00 33.17
151.00 33.06
152.00 32.99
153.00 32.95
154.00 32.93
155.00 32.95
156.00 33.00
157.00 33.07
158.00 33.18
159.00 33.31
160.00 33.49
161.00 33.69
162.00 33.93
163.00 34.22
164.00 34.54
165.00 34.90
166.00 35.30
167.00 35.73
168.00 36.17
169.00 36.60
170.00 37.01
171.00 37.33
172.00 37.55
173.00 37.63
174.00 37.53
175.00 37.29
176.00 36.92
177.00 36.47
178.00 35.99
179.00 35.50
180.00 35.03
181.00 34.61
182.00 34.24
183.00 33.94
184.00 33.71
185.00 33.55
186.00 33.47
187.00 33.47
188.00 33.55
189.00 33.72
190.00 33.97
191.00 34.31
192.00 34.75
193.00 35.28
194.00 35.91
195.00 36.63
196.00 37.43
197.00 38.27
198.00 39.08
199.00 39.77
200.00 40.19
201.00 40.24
202.00 39.92
203.00 39.32
204.00 38.56
205.00 37.78
206.00 37.03
207.00 36.35
208.00 35.77
209.00 35.29
210.00 34.90
211.00 34.60
212.00 34.39
213.00 34.28
214.00 34.25
215.00 34.31
216.00 34.45
217.00 34.66
218.00 34.95
219.00 35.30
220.00 35.70
221.00 36.14
222.00 36.59
223.00 37.01
224.00 37.33
225.00 37.52
226.00 37.53
227.00 37.33
228.00 36.94
229.00 36.41
230.00 35.79
231.00 35.12
232.00 34.45
233.00 33.79
234.00 33.17
235.00 32.58
236.00 32.03
237.00 31.52
238.00 31.06
239.00 30.63
240.00 30.24
241.00 29.87
242.00 29.54
243.00 29.23
244.00 28.95
245.00 28.69
246.00 28.44
247.00 28.21
248.00 27.99
249.00 27.78
250.00 27.59
251.00 27.40
252.00 27.22
253.00 27.05
254.00 26.88
255.00 26.72
256.00 26.55
257.00 26.39
258.00 26.23
259.00 26.07
260.00 25.91
261.00 25.74
262.00 25.58
263.00 25.40
264.00 25.22
265.00 25.04
266.00 24.85
267.00 24.64
268.00 24.43
269.00 24.21
270.00 23.98
271.00 23.74
272.00 23.48
273.00 23.22
274.00 22.94
275.00 22.65
276.00 22.36
277.00 22.05
278.00 21.73
279.00 21.40
280.00 21.07
281.00 20.72
282.00 20.37
283.00 20.01
284.00 19.65
285.00 19.28
286.00 18.91
287.00 18.54
288.00 18.16
289.00 17.79
290.00 17.41
291.00 17.03
292.00 16.66
293.00 16.28
294.00 15.90
295.00 15.53
296.00 15.16
297.00 14.79
298.00 14.43
299.00 14.07
300.00 13.71
301.00 13.35
302.00 12.99
303.00 12.64
304.00 12.29
305.00 11.94
306.00 11.60
307.00 11.26
308.00 10.92
309.00 10.58
310.00 10.24
311.00 9.91
312.00 9.57
313.00 9.25
314.00 8.92
315.00 8.60
316.00 8.27
317.00 7.96
318.00 7.64
319.00 7.33
320.00 7.03
321.00 6.73
322.00 6.43
323.00 6.13
324.00 5.85
325.00 5.56
326.00 5.29
327.00 5.01
328.00 4.75
329.00 4.49
330.00 4.24
331.00 3.99
332.00 3.76
333.00 3.52
334.00 3.30
335.00 3.08
336.00 2.88
337.00 2.68
338.00 2.48
339.00 2.30
340.00 2.12
341.00 1.95
342.00 1.79
343.00 1.64
344.00 1.49
345.00 1.35
346.00 1.22
347.00 1.10
348.00 0.98
349.00 0.87
350.00 0.77
351.00 0.67
352.00 0.58
353.00 0.50
354.00 0.43
355.00 0.36
356.00 0.29
357.00 0.23
358.00 0.18
359.00 0.14
VERTICAL 360
0.00 0.43
1.00 0.00
2.00 0.30
3.00 1.39
4.00 3.34
5.00 6.43
6.00 11.35
7.00 20.85
8.00 25.77
9.00 17.95
10.00 16.57
11.00 18.42
12.00 24.08
13.00 25.52
14.00 19.18
15.00 16.27
16.00 15.71
17.00 16.95
18.00 20.04
19.00 25.31
20.00 28.64
21.00 25.23
22.00 22.80
23.00 22.44
24.00 24.34
25.00 30.55
26.00 31.56
27.00 23.06
28.00 19.27
29.00 17.84
30.00 17.98
31.00 19.29
32.00 21.35
33.00 23.56
34.00 24.88
35.00 24.31
36.00 22.59
37.00 21.06
38.00 20.15
39.00 19.72
40.00 19.54
41.00 19.60
42.00 20.09
43.00 21.32
44.00 23.56
45.00 27.16
46.00 31.98
47.00 32.87
48.00 29.27
49.00 26.63
50.00 25.39
51.00 25.38
52.00 26.65
53.00 29.47
54.00 34.42
55.00 40.99
56.00 40.41
57.00 37.95
58.00 37.26
59.00 36.72
60.00 35.50
61.00 34.06
62.00 32.85
63.00 31.99
64.00 31.54
65.00 31.42
66.00 31.42
67.00 31.30
68.00 30.97
69.00 30.49
70.00 30.03
71.00 29.74
72.00 29.56
73.00 29.37
74.00 29.04
75.00 28.55
76.00 27.98
77.00 27.43
78.00 26.90
79.00 26.37
80.00 25.84
81.00 25.42
82.00 25.30
83.00 25.59
84.00 26.20
85.00 26.87
86.00 27.39
87.00 27.72
88.00 27.92
89.00 27.99
90.00 27.79
91.00 27.43
92.00 27.29
93.00 27.62
94.00 28.52
95.00 30.06
96.00 32.15
97.00 34.44
98.00 36.27
99.00 37.08
100.00 37.07
101.00 37.11
102.00 37.90
103.00 39.46
104.00 41.13
105.00 42.02
106.00 41.96
107.00 41.72
108.00 42.19
109.00 43.56
110.00 45.10
111.00 46.31
112.00 48.00
113.00 50.36
114.00 51.50
115.00 50.96
116.00 50.09
117.00 48.22
118.00 45.04
119.00 41.93
120.00 39.74
121.00 38.40
122.00 37.48
123.00 36.56
124.00 35.55
125.00 34.51
126.00 33.57
127.00 32.91
128.00 32.72
129.00 33.06
130.00 33.89
131.00 35.11
132.00 36.69
133.00 38.69
134.00 41.45
135.00 45.87
136.00 52.44
137.00 48.82
138.00 43.49
139.00 40.72
140.00 39.25
141.00 38.58
142.00 38.68
143.00 39.86
144.00 42.25
145.00 44.40
146.00 43.29
147.00 40.61
148.00 38.40
149.00 37.13
150.00 37.12
151.00 38.52
152.00 41.01
153.00 42.90
154.00 42.07
155.00 39.78
156.00 37.82
157.00 36.67
158.00 36.38
159.00 37.43
160.00 41.36
161.00 45.78
162.00 39.06
163.00 35.41
164.00 35.37
165.00 38.99
166.00 54.51
167.00 45.10
168.00 38.42
169.00 36.29
170.00 36.17
171.00 37.71
172.00 39.20
173.00 37.23
174.00 34.50
175.00 33.00
176.00 32.56
177.00 32.69
178.00 33.02
179.00 33.50
180.00 34.58
181.00 36.44
182.00 38.95
183.00 41.69
184.00 44.94
185.00 47.68
186.00 45.72
187.00 43.75
188.00 43.53
189.00 42.50
190.00 39.87
191.00 37.88
192.00 37.16
193.00 37.34
194.00 37.75
195.00 37.76
196.00 37.45
197.00 37.64
198.00 39.20
199.00 41.93
200.00 41.98
201.00 39.99
202.00 40.01
203.00 42.40
204.00 43.63
205.00 41.93
206.00 41.62
207.00 41.99
208.00 39.72
209.00 37.15
210.00 36.33
211.00 37.33
212.00 39.69
213.00 41.40
214.00 40.07
215.00 37.61
216.00 35.76
217.00 34.98
218.00 35.32
219.00 36.50
220.00 37.89
221.00 38.79
222.00 38.56
223.00 37.02
224.00 35.17
225.00 33.99
226.00 33.92
227.00 35.16
228.00 37.97
229.00 42.71
230.00 50.10
231.00 54.89
232.00 46.63
233.00 41.27
234.00 38.58
235.00 37.70
236.00 38.32
237.00 40.65
238.00 46.00
239.00 56.47
240.00 48.15
241.00 43.86
242.00 43.06
243.00 43.91
244.00 45.26
245.00 45.98
246.00 45.77
247.00 45.94
248.00 48.40
249.00 53.71
250.00 49.80
251.00 45.36
252.00 43.38
253.00 41.32
254.00 39.22
255.00 38.34
256.00 39.06
257.00 40.90
258.00 42.63
259.00 42.89
260.00 41.64
261.00 40.59
262.00 41.55
263.00 46.50
264.00 54.95
265.00 46.54
266.00 43.61
267.00 44.61
268.00 48.51
269.00 54.10
270.00 56.10
271.00 55.96
272.00 56.55
273.00 55.54
274.00 51.71
275.00 46.79
276.00 42.20
277.00 38.67
278.00 36.49
279.00 35.69
280.00 36.09
281.00 36.75
282.00 36.22
283.00 34.77
284.00 33.24
285.00 31.57
286.00 29.75
287.00 28.12
288.00 26.87
289.00 26.07
290.00 25.74
291.00 25.86
292.00 26.38
293.00 27.23
294.00 28.45
295.00 30.33
296.00 33.43
297.00 38.63
298.00 38.89
299.00 33.12
300.00 29.49
301.00 27.45
302.00 26.30
303.00 25.62
304.00 25.21
305.00 25.02
306.00 25.08
307.00 25.34
308.00 25.58
309.00 25.53
310.00 25.05
311.00 24.30
312.00 23.54
313.00 22.90
314.00 22.45
315.00 22.18
316.00 22.03
317.00 21.90
318.00 21.68
319.00 21.25
320.00 20.71
321.00 20.22
322.00 19.89
323.00 19.71
324.00 19.49
325.00 19.10
326.00 18.60
327.00 18.30
328.00 18.53
329.00 19.67
330.00 22.27
331.00 27.78
332.00 34.70
333.00 26.98
334.00 22.43
335.00 20.71
336.00 21.00
337.00 23.80
338.00 33.00
339.00 32.21
340.00 23.60
341.00 21.17
342.00 21.48
343.00 23.78
344.00 25.55
345.00 23.27
346.00 20.58
347.00 19.35
348.00 19.69
349.00 21.81
350.00 25.33
351.00 24.78
352.00 21.45
353.00 20.38
354.00 20.95
355.00 17.43
356.00 11.43
357.00 6.88
358.00 3.74
359.00 1.65
