NAME ATR4518R7_1850_X_CO_M45_00T_yyR
FREQUENCY 1850
GAIN 15.48 dBd
TILT	ELECTRICAL
COMMENT DATE 05.08.2013 -45 degrees polarized system Lever position 00T deg
HORIZONTAL 360
0.00 0.16
1.00 0.11
2.00 0.08
3.00 0.05
4.00 0.02
5.00 0.00
6.00 0.00
7.00 0.00
8.00 0.00
9.00 0.02
10.00 0.04
11.00 0.08
12.00 0.12
13.00 0.17
14.00 0.23
15.00 0.30
16.00 0.38
17.00 0.47
18.00 0.56
19.00 0.67
20.00 0.78
21.00 0.91
22.00 1.04
23.00 1.18
24.00 1.33
25.00 1.49
26.00 1.66
27.00 1.83
28.00 2.01
29.00 2.20
30.00 2.40
31.00 2.60
32.00 2.81
33.00 3.03
34.00 3.25
35.00 3.48
36.00 3.71
37.00 3.95
38.00 4.20
39.00 4.45
40.00 4.71
41.00 4.97
42.00 5.24
43.00 5.52
44.00 5.80
45.00 6.09
46.00 6.38
47.00 6.68
48.00 6.99
49.00 7.31
50.00 7.63
51.00 7.97
52.00 8.31
53.00 8.66
54.00 9.02
55.00 9.40
56.00 9.78
57.00 10.17
58.00 10.56
59.00 10.97
60.00 11.38
61.00 11.81
62.00 12.24
63.00 12.68
64.00 13.13
65.00 13.58
66.00 14.04
67.00 14.49
68.00 14.96
69.00 15.42
70.00 15.88
71.00 16.35
72.00 16.81
73.00 17.27
74.00 17.72
75.00 18.18
76.00 18.63
77.00 19.08
78.00 19.52
79.00 19.97
80.00 20.42
81.00 20.87
82.00 21.32
83.00 21.78
84.00 22.25
85.00 22.73
86.00 23.23
87.00 23.74
88.00 24.26
89.00 24.81
90.00 25.37
91.00 25.95
92.00 26.55
93.00 27.16
94.00 27.78
95.00 28.41
96.00 29.03
97.00 29.64
98.00 30.23
99.00 30.78
100.00 31.27
101.00 31.70
102.00 32.06
103.00 32.34
104.00 32.54
105.00 32.68
106.00 32.77
107.00 32.82
108.00 32.84
109.00 32.86
110.00 32.87
111.00 32.89
112.00 32.92
113.00 32.97
114.00 33.04
115.00 33.12
116.00 33.21
117.00 33.31
118.00 33.41
119.00 33.51
120.00 33.60
121.00 33.68
122.00 33.74
123.00 33.77
124.00 33.79
125.00 33.78
126.00 33.75
127.00 33.70
128.00 33.64
129.00 33.58
130.00 33.51
131.00 33.45
132.00 33.40
133.00 33.36
134.00 33.35
135.00 33.36
136.00 33.40
137.00 33.48
138.00 33.59
139.00 33.74
140.00 33.94
141.00 34.19
142.00 34.49
143.00 34.85
144.00 35.29
145.00 35.79
146.00 36.39
147.00 37.09
148.00 37.92
149.00 38.89
150.00 40.03
151.00 41.41
152.00 43.04
153.00 44.98
154.00 47.08
155.00 48.65
156.00 48.43
157.00 46.57
158.00 44.36
159.00 42.36
160.00 40.67
161.00 39.24
162.00 38.05
163.00 37.03
164.00 36.17
165.00 35.45
166.00 34.84
167.00 34.33
168.00 33.92
169.00 33.60
170.00 33.37
171.00 33.21
172.00 33.14
173.00 33.14
174.00 33.21
175.00 33.36
176.00 33.59
177.00 33.89
178.00 34.26
179.00 34.70
180.00 35.20
181.00 35.75
182.00 36.34
183.00 36.91
184.00 37.42
185.00 37.81
186.00 38.00
187.00 37.97
188.00 37.72
189.00 37.29
190.00 36.75
191.00 36.15
192.00 35.56
193.00 35.00
194.00 34.49
195.00 34.04
196.00 33.67
197.00 33.36
198.00 33.12
199.00 32.96
200.00 32.87
201.00 32.84
202.00 32.89
203.00 33.00
204.00 33.18
205.00 33.42
206.00 33.72
207.00 34.07
208.00 34.48
209.00 34.93
210.00 35.40
211.00 35.87
212.00 36.32
213.00 36.70
214.00 36.98
215.00 37.13
216.00 37.12
217.00 36.97
218.00 36.70
219.00 36.33
220.00 35.93
221.00 35.50
222.00 35.08
223.00 34.69
224.00 34.33
225.00 34.01
226.00 33.74
227.00 33.52
228.00 33.35
229.00 33.23
230.00 33.16
231.00 33.14
232.00 33.16
233.00 33.23
234.00 33.34
235.00 33.49
236.00 33.69
237.00 33.91
238.00 34.16
239.00 34.43
240.00 34.71
241.00 34.98
242.00 35.23
243.00 35.43
244.00 35.55
245.00 35.58
246.00 35.49
247.00 35.28
248.00 34.95
249.00 34.52
250.00 34.01
251.00 33.45
252.00 32.86
253.00 32.25
254.00 31.64
255.00 31.04
256.00 30.45
257.00 29.88
258.00 29.32
259.00 28.79
260.00 28.27
261.00 27.77
262.00 27.28
263.00 26.81
264.00 26.35
265.00 25.89
266.00 25.44
267.00 24.99
268.00 24.55
269.00 24.11
270.00 23.67
271.00 23.23
272.00 22.79
273.00 22.34
274.00 21.90
275.00 21.46
276.00 21.01
277.00 20.57
278.00 20.13
279.00 19.69
280.00 19.26
281.00 18.83
282.00 18.40
283.00 17.98
284.00 17.56
285.00 17.15
286.00 16.75
287.00 16.35
288.00 15.96
289.00 15.57
290.00 15.19
291.00 14.81
292.00 14.44
293.00 14.08
294.00 13.72
295.00 13.37
296.00 13.02
297.00 12.67
298.00 12.34
299.00 12.00
300.00 11.67
301.00 11.34
302.00 11.02
303.00 10.70
304.00 10.38
305.00 10.07
306.00 9.76
307.00 9.46
308.00 9.15
309.00 8.86
310.00 8.56
311.00 8.27
312.00 7.99
313.00 7.70
314.00 7.43
315.00 7.15
316.00 6.89
317.00 6.62
318.00 6.37
319.00 6.11
320.00 5.87
321.00 5.63
322.00 5.39
323.00 5.16
324.00 4.94
325.00 4.72
326.00 4.50
327.00 4.30
328.00 4.09
329.00 3.90
330.00 3.71
331.00 3.53
332.00 3.35
333.00 3.17
334.00 3.00
335.00 2.84
336.00 2.68
337.00 2.53
338.00 2.38
339.00 2.24
340.00 2.09
341.00 1.96
342.00 1.83
343.00 1.70
344.00 1.57
345.00 1.45
346.00 1.34
347.00 1.22
348.00 1.12
349.00 1.01
350.00 0.91
351.00 0.81
352.00 0.72
353.00 0.63
354.00 0.55
355.00 0.47
356.00 0.40
357.00 0.33
358.00 0.27
359.00 0.21
VERTICAL 360
0.00 0.04
1.00 0.14
2.00 0.99
3.00 2.66
4.00 5.35
5.00 9.55
6.00 16.85
7.00 23.82
8.00 17.11
9.00 14.26
10.00 14.19
11.00 16.45
12.00 22.33
13.00 27.09
14.00 19.41
15.00 15.68
16.00 14.45
17.00 14.90
18.00 16.98
19.00 21.34
20.00 28.55
21.00 25.30
22.00 20.53
23.00 18.90
24.00 19.47
25.00 22.47
26.00 29.91
27.00 30.11
28.00 22.92
29.00 19.83
30.00 18.60
31.00 18.41
32.00 18.89
33.00 19.95
34.00 21.66
35.00 24.09
36.00 26.89
37.00 28.58
38.00 27.84
39.00 25.39
40.00 22.49
41.00 19.97
42.00 18.19
43.00 17.18
44.00 16.88
45.00 17.20
46.00 18.03
47.00 19.36
48.00 21.27
49.00 24.04
50.00 28.38
51.00 36.42
52.00 39.38
53.00 31.77
54.00 28.22
55.00 26.31
56.00 25.22
57.00 24.76
58.00 24.98
59.00 25.98
60.00 27.80
61.00 30.40
62.00 33.37
63.00 35.41
64.00 35.30
65.00 33.92
66.00 32.48
67.00 31.47
68.00 31.06
69.00 31.31
70.00 32.13
71.00 33.13
72.00 33.57
73.00 33.14
74.00 32.46
75.00 32.12
76.00 32.15
77.00 32.09
78.00 31.37
79.00 29.93
80.00 28.34
81.00 27.07
82.00 26.34
83.00 26.14
84.00 26.37
85.00 26.84
86.00 27.39
87.00 28.01
88.00 28.82
89.00 30.04
90.00 31.84
91.00 33.83
92.00 34.43
93.00 33.12
94.00 31.74
95.00 31.34
96.00 32.22
97.00 34.53
98.00 38.53
99.00 44.70
100.00 53.74
101.00 61.49
102.00 64.83
103.00 71.32
104.00 54.42
105.00 47.76
106.00 44.54
107.00 43.38
108.00 43.54
109.00 44.20
110.00 44.33
111.00 43.52
112.00 42.35
113.00 41.67
114.00 42.12
115.00 44.26
116.00 49.49
117.00 60.50
118.00 50.20
119.00 44.28
120.00 41.31
121.00 39.80
122.00 39.45
123.00 40.12
124.00 41.54
125.00 43.17
126.00 44.46
127.00 45.44
128.00 46.62
129.00 48.51
130.00 49.73
131.00 47.41
132.00 44.73
133.00 43.44
134.00 42.55
135.00 41.19
136.00 40.26
137.00 41.02
138.00 44.50
139.00 49.69
140.00 45.55
141.00 41.12
142.00 38.75
143.00 37.34
144.00 36.61
145.00 36.76
146.00 38.09
147.00 40.94
148.00 44.64
149.00 44.57
150.00 42.28
151.00 41.57
152.00 42.69
153.00 45.77
154.00 52.68
155.00 56.28
156.00 48.01
157.00 45.63
158.00 47.64
159.00 55.36
160.00 47.49
161.00 40.65
162.00 37.07
163.00 35.08
164.00 34.40
165.00 35.10
166.00 37.36
167.00 41.17
168.00 45.22
169.00 45.39
170.00 41.53
171.00 37.71
172.00 35.32
173.00 34.30
174.00 34.40
175.00 35.28
176.00 36.65
177.00 38.20
178.00 39.10
179.00 38.58
180.00 37.43
181.00 36.73
182.00 36.85
183.00 37.79
184.00 39.14
185.00 39.53
186.00 38.04
187.00 36.07
188.00 34.77
189.00 34.43
190.00 35.23
191.00 37.09
192.00 38.86
193.00 38.63
194.00 37.93
195.00 39.07
196.00 42.77
197.00 43.47
198.00 39.46
199.00 37.49
200.00 37.22
201.00 37.16
202.00 36.65
203.00 36.09
204.00 35.07
205.00 33.25
206.00 31.70
207.00 31.33
208.00 32.55
209.00 35.91
210.00 42.55
211.00 43.60
212.00 37.98
213.00 35.30
214.00 34.43
215.00 34.71
216.00 35.84
217.00 37.52
218.00 39.23
219.00 40.28
220.00 40.80
221.00 41.86
222.00 44.33
223.00 46.73
224.00 44.92
225.00 42.85
226.00 43.48
227.00 48.44
228.00 49.54
229.00 41.58
230.00 37.69
231.00 36.07
232.00 35.86
233.00 36.65
234.00 38.22
235.00 40.59
236.00 44.27
237.00 51.91
238.00 57.37
239.00 45.70
240.00 40.83
241.00 37.95
242.00 36.14
243.00 35.25
244.00 35.31
245.00 36.30
246.00 38.08
247.00 40.30
248.00 42.58
249.00 45.20
250.00 49.25
251.00 56.21
252.00 55.99
253.00 51.81
254.00 51.88
255.00 54.03
256.00 49.99
257.00 45.06
258.00 42.32
259.00 40.82
260.00 39.71
261.00 38.41
262.00 36.88
263.00 35.44
264.00 34.39
265.00 33.77
266.00 33.42
267.00 33.22
268.00 33.19
269.00 33.37
270.00 33.62
271.00 33.80
272.00 33.79
273.00 33.32
274.00 32.27
275.00 31.08
276.00 30.27
277.00 30.00
278.00 30.14
279.00 30.44
280.00 30.64
281.00 30.61
282.00 30.52
283.00 30.59
284.00 30.81
285.00 30.86
286.00 30.46
287.00 29.73
288.00 28.94
289.00 28.17
290.00 27.36
291.00 26.44
292.00 25.43
293.00 24.43
294.00 23.54
295.00 22.76
296.00 22.05
297.00 21.40
298.00 20.88
299.00 20.62
300.00 20.72
301.00 21.22
302.00 22.09
303.00 23.21
304.00 24.43
305.00 25.61
306.00 26.62
307.00 27.24
308.00 27.16
309.00 26.39
310.00 25.33
311.00 24.32
312.00 23.54
313.00 23.00
314.00 22.69
315.00 22.51
316.00 22.37
317.00 22.12
318.00 21.67
319.00 21.00
320.00 20.24
321.00 19.57
322.00 19.16
323.00 19.11
324.00 19.54
325.00 20.62
326.00 22.68
327.00 26.57
328.00 36.05
329.00 35.22
330.00 26.33
331.00 22.81
332.00 21.37
333.00 21.42
334.00 23.04
335.00 27.03
336.00 34.82
337.00 30.56
338.00 25.07
339.00 23.16
340.00 23.64
341.00 26.63
342.00 29.35
343.00 24.73
344.00 20.61
345.00 18.79
346.00 18.93
347.00 21.41
348.00 28.76
349.00 31.64
350.00 22.50
351.00 19.74
352.00 20.65
353.00 27.80
354.00 22.29
355.00 12.86
356.00 7.70
357.00 4.32
358.00 2.06
359.00 0.67
