NAME ATR4518R7_2655_X_CO_P45_05T_yL
FREQUENCY 2655
GAIN 16.03 dBd
TILT	ELECTRICAL
COMMENT DATE 05.08.2013 +45 degrees polarized system Lever position 05T deg
HORIZONTAL 360
0.00 0.00
1.00 0.02
2.00 0.05
3.00 0.08
4.00 0.13
5.00 0.17
6.00 0.23
7.00 0.30
8.00 0.37
9.00 0.45
10.00 0.53
11.00 0.62
12.00 0.72
13.00 0.81
14.00 0.92
15.00 1.03
16.00 1.14
17.00 1.27
18.00 1.39
19.00 1.53
20.00 1.67
21.00 1.81
22.00 1.96
23.00 2.12
24.00 2.27
25.00 2.44
26.00 2.60
27.00 2.78
28.00 2.95
29.00 3.13
30.00 3.32
31.00 3.51
32.00 3.70
33.00 3.90
34.00 4.11
35.00 4.31
36.00 4.52
37.00 4.73
38.00 4.95
39.00 5.17
40.00 5.39
41.00 5.61
42.00 5.84
43.00 6.06
44.00 6.29
45.00 6.53
46.00 6.75
47.00 6.98
48.00 7.21
49.00 7.44
50.00 7.67
51.00 7.89
52.00 8.11
53.00 8.34
54.00 8.55
55.00 8.76
56.00 8.96
57.00 9.17
58.00 9.37
59.00 9.57
60.00 9.76
61.00 9.96
62.00 10.14
63.00 10.32
64.00 10.51
65.00 10.69
66.00 10.89
67.00 11.08
68.00 11.28
69.00 11.49
70.00 11.72
71.00 11.96
72.00 12.21
73.00 12.47
74.00 12.76
75.00 13.06
76.00 13.39
77.00 13.74
78.00 14.11
79.00 14.51
80.00 14.95
81.00 15.40
82.00 15.90
83.00 16.42
84.00 16.98
85.00 17.59
86.00 18.24
87.00 18.91
88.00 19.64
89.00 20.39
90.00 21.20
91.00 22.04
92.00 22.89
93.00 23.77
94.00 24.66
95.00 25.54
96.00 26.40
97.00 27.22
98.00 27.99
99.00 28.72
100.00 29.41
101.00 30.07
102.00 30.74
103.00 31.42
104.00 32.18
105.00 33.05
106.00 34.03
107.00 35.19
108.00 36.58
109.00 38.25
110.00 40.30
111.00 42.84
112.00 46.06
113.00 49.93
114.00 52.70
115.00 51.43
116.00 49.09
117.00 47.50
118.00 46.70
119.00 46.61
120.00 47.20
121.00 48.56
122.00 50.93
123.00 54.50
124.00 56.31
125.00 52.23
126.00 48.15
127.00 45.20
128.00 43.04
129.00 41.42
130.00 40.19
131.00 39.25
132.00 38.53
133.00 37.97
134.00 37.49
135.00 37.03
136.00 36.54
137.00 35.98
138.00 35.32
139.00 34.58
140.00 33.80
141.00 33.02
142.00 32.27
143.00 31.58
144.00 30.96
145.00 30.43
146.00 30.00
147.00 29.66
148.00 29.40
149.00 29.23
150.00 29.13
151.00 29.10
152.00 29.12
153.00 29.18
154.00 29.26
155.00 29.34
156.00 29.43
157.00 29.51
158.00 29.57
159.00 29.62
160.00 29.68
161.00 29.74
162.00 29.83
163.00 29.95
164.00 30.12
165.00 30.34
166.00 30.62
167.00 30.96
168.00 31.35
169.00 31.77
170.00 32.21
171.00 32.62
172.00 32.97
173.00 33.22
174.00 33.34
175.00 33.35
176.00 33.24
177.00 33.06
178.00 32.86
179.00 32.67
180.00 32.53
181.00 32.46
182.00 32.48
183.00 32.61
184.00 32.85
185.00 33.22
186.00 33.71
187.00 34.30
188.00 34.97
189.00 35.63
190.00 36.13
191.00 36.30
192.00 36.02
193.00 35.32
194.00 34.36
195.00 33.32
196.00 32.31
197.00 31.40
198.00 30.62
199.00 29.98
200.00 29.49
201.00 29.13
202.00 28.92
203.00 28.85
204.00 28.94
205.00 29.17
206.00 29.57
207.00 30.14
208.00 30.89
209.00 31.84
210.00 32.98
211.00 34.30
212.00 35.65
213.00 36.72
214.00 37.05
215.00 36.47
216.00 35.33
217.00 34.07
218.00 32.91
219.00 31.94
220.00 31.17
221.00 30.60
222.00 30.23
223.00 30.02
224.00 29.99
225.00 30.14
226.00 30.44
227.00 30.93
228.00 31.59
229.00 32.45
230.00 33.52
231.00 34.83
232.00 36.38
233.00 38.17
234.00 40.05
235.00 41.62
236.00 42.21
237.00 41.66
238.00 40.55
239.00 39.41
240.00 38.46
241.00 37.74
242.00 37.21
243.00 36.81
244.00 36.50
245.00 36.19
246.00 35.79
247.00 35.26
248.00 34.57
249.00 33.74
250.00 32.83
251.00 31.87
252.00 30.94
253.00 30.05
254.00 29.23
255.00 28.49
256.00 27.84
257.00 27.28
258.00 26.81
259.00 26.43
260.00 26.13
261.00 25.92
262.00 25.79
263.00 25.73
264.00 25.75
265.00 25.82
266.00 25.93
267.00 26.06
268.00 26.18
269.00 26.26
270.00 26.27
271.00 26.16
272.00 25.92
273.00 25.57
274.00 25.12
275.00 24.60
276.00 24.06
277.00 23.51
278.00 22.99
279.00 22.51
280.00 22.08
281.00 21.69
282.00 21.35
283.00 21.06
284.00 20.80
285.00 20.58
286.00 20.37
287.00 20.17
288.00 19.96
289.00 19.74
290.00 19.49
291.00 19.22
292.00 18.91
293.00 18.57
294.00 18.23
295.00 17.85
296.00 17.48
297.00 17.10
298.00 16.74
299.00 16.38
300.00 16.04
301.00 15.70
302.00 15.38
303.00 15.05
304.00 14.72
305.00 14.39
306.00 14.02
307.00 13.62
308.00 13.20
309.00 12.74
310.00 12.25
311.00 11.74
312.00 11.21
313.00 10.66
314.00 10.10
315.00 9.58
316.00 9.07
317.00 8.58
318.00 8.12
319.00 7.67
320.00 7.26
321.00 6.86
322.00 6.49
323.00 6.16
324.00 5.84
325.00 5.53
326.00 5.25
327.00 4.99
328.00 4.73
329.00 4.48
330.00 4.25
331.00 4.03
332.00 3.81
333.00 3.58
334.00 3.37
335.00 3.16
336.00 2.96
337.00 2.74
338.00 2.54
339.00 2.35
340.00 2.14
341.00 1.95
342.00 1.77
343.00 1.58
344.00 1.41
345.00 1.23
346.00 1.07
347.00 0.91
348.00 0.77
349.00 0.63
350.00 0.52
351.00 0.40
352.00 0.30
353.00 0.22
354.00 0.15
355.00 0.09
356.00 0.05
357.00 0.02
358.00 0.00
359.00 0.00
VERTICAL 360
0.00 16.73
1.00 10.47
2.00 5.78
3.00 2.54
4.00 0.64
5.00 0.00
6.00 0.67
7.00 2.97
8.00 7.88
9.00 21.32
10.00 15.53
11.00 10.50
12.00 10.47
13.00 13.90
14.00 22.74
15.00 19.22
16.00 14.83
17.00 14.91
18.00 18.66
19.00 22.58
20.00 17.95
21.00 16.03
22.00 17.48
23.00 23.61
24.00 33.00
25.00 20.58
26.00 17.42
27.00 17.50
28.00 20.60
29.00 28.75
30.00 27.49
31.00 22.43
32.00 21.74
33.00 23.77
34.00 29.12
35.00 41.37
36.00 27.97
37.00 23.29
38.00 22.10
39.00 23.62
40.00 27.96
41.00 30.89
42.00 28.35
43.00 27.94
44.00 29.89
45.00 33.34
46.00 38.19
47.00 42.48
48.00 35.45
49.00 31.61
50.00 31.04
51.00 33.37
52.00 39.23
53.00 50.62
54.00 46.58
55.00 43.56
56.00 46.07
57.00 63.55
58.00 44.70
59.00 42.08
60.00 44.94
61.00 54.85
62.00 49.13
63.00 42.77
64.00 38.65
65.00 35.38
66.00 32.87
67.00 31.16
68.00 30.14
69.00 29.54
70.00 29.06
71.00 28.44
72.00 27.85
73.00 27.66
74.00 28.04
75.00 28.85
76.00 29.79
77.00 30.91
78.00 32.64
79.00 35.10
80.00 37.89
81.00 40.68
82.00 43.20
83.00 40.07
84.00 33.98
85.00 30.40
86.00 29.18
87.00 29.57
88.00 30.36
89.00 31.65
90.00 36.27
91.00 42.93
92.00 33.63
93.00 31.57
94.00 33.64
95.00 38.04
96.00 39.81
97.00 43.14
98.00 52.23
99.00 46.60
100.00 48.85
101.00 46.23
102.00 41.78
103.00 41.63
104.00 43.14
105.00 44.21
106.00 43.21
107.00 40.54
108.00 39.33
109.00 39.72
110.00 40.41
111.00 40.06
112.00 38.70
113.00 37.82
114.00 38.32
115.00 39.83
116.00 40.47
117.00 39.40
118.00 38.80
119.00 40.11
120.00 43.10
121.00 43.49
122.00 40.80
123.00 38.63
124.00 37.42
125.00 36.71
126.00 36.24
127.00 37.10
128.00 41.28
129.00 55.49
130.00 45.25
131.00 42.04
132.00 42.23
133.00 44.28
134.00 48.16
135.00 43.57
136.00 39.30
137.00 37.44
138.00 36.28
139.00 35.33
140.00 35.02
141.00 35.46
142.00 36.21
143.00 36.67
144.00 36.90
145.00 37.03
146.00 36.16
147.00 34.01
148.00 31.93
149.00 30.91
150.00 31.09
151.00 32.04
152.00 33.30
153.00 34.91
154.00 36.24
155.00 36.46
156.00 36.24
157.00 35.53
158.00 35.59
159.00 38.10
160.00 37.89
161.00 33.93
162.00 32.92
163.00 34.60
164.00 37.12
165.00 39.23
166.00 43.72
167.00 46.63
168.00 44.76
169.00 48.43
170.00 48.92
171.00 45.06
172.00 42.44
173.00 38.37
174.00 34.92
175.00 32.67
176.00 31.86
177.00 32.71
178.00 34.81
179.00 36.31
180.00 35.65
181.00 34.80
182.00 35.34
183.00 36.18
184.00 35.00
185.00 34.26
186.00 35.71
187.00 39.17
188.00 43.20
189.00 45.60
190.00 45.64
191.00 40.80
192.00 35.95
193.00 33.76
194.00 34.18
195.00 37.04
196.00 42.29
197.00 49.74
198.00 48.77
199.00 40.70
200.00 35.32
201.00 32.22
202.00 31.00
203.00 31.35
204.00 33.08
205.00 36.19
206.00 39.38
207.00 38.03
208.00 36.26
209.00 36.54
210.00 37.32
211.00 36.89
212.00 37.45
213.00 40.95
214.00 48.07
215.00 59.74
216.00 48.01
217.00 39.29
218.00 35.92
219.00 35.47
220.00 36.75
221.00 37.99
222.00 38.05
223.00 37.94
224.00 37.68
225.00 36.64
226.00 35.73
227.00 36.09
228.00 38.30
229.00 42.63
230.00 48.39
231.00 50.83
232.00 49.76
233.00 52.21
234.00 53.09
235.00 42.86
236.00 38.31
237.00 36.45
238.00 36.09
239.00 36.49
240.00 37.21
241.00 38.14
242.00 39.25
243.00 40.19
244.00 40.28
245.00 39.11
246.00 37.57
247.00 37.04
248.00 38.17
249.00 41.13
250.00 46.12
251.00 51.43
252.00 48.69
253.00 48.69
254.00 59.26
255.00 51.18
256.00 46.61
257.00 46.55
258.00 45.53
259.00 44.69
260.00 43.45
261.00 41.75
262.00 44.44
263.00 46.68
264.00 37.85
265.00 34.79
266.00 34.13
267.00 33.59
268.00 33.23
269.00 33.70
270.00 33.81
271.00 33.07
272.00 32.29
273.00 31.58
274.00 31.59
275.00 33.47
276.00 38.79
277.00 47.33
278.00 37.64
279.00 33.18
280.00 31.22
281.00 30.97
282.00 32.15
283.00 34.15
284.00 35.40
285.00 35.19
286.00 34.93
287.00 35.58
288.00 37.12
289.00 38.90
290.00 39.98
291.00 40.36
292.00 42.59
293.00 58.11
294.00 41.47
295.00 34.02
296.00 29.63
297.00 26.16
298.00 23.15
299.00 20.53
300.00 18.23
301.00 16.21
302.00 14.42
303.00 12.85
304.00 11.59
305.00 10.74
306.00 10.43
307.00 10.75
308.00 11.81
309.00 13.82
310.00 17.35
311.00 24.34
312.00 27.22
313.00 19.08
314.00 15.60
315.00 14.44
316.00 15.18
317.00 18.30
318.00 26.94
319.00 28.94
320.00 20.01
321.00 17.55
322.00 17.91
323.00 21.20
324.00 28.15
325.00 22.26
326.00 17.56
327.00 16.11
328.00 17.19
329.00 21.77
330.00 38.87
331.00 21.30
332.00 16.49
333.00 15.24
334.00 16.41
335.00 20.10
336.00 26.87
337.00 31.68
338.00 27.38
339.00 22.60
340.00 18.96
341.00 17.08
342.00 17.02
343.00 19.10
344.00 24.25
345.00 27.56
346.00 22.38
347.00 20.51
348.00 21.43
349.00 23.70
350.00 22.82
351.00 20.48
352.00 20.14
353.00 22.58
354.00 29.43
355.00 33.68
356.00 28.53
357.00 29.76
358.00 32.87
359.00 24.50
