NAME ATR4518R7_2655_X_CO_M45_02T_yL
FREQUENCY 2655
GAIN 16.07 dBd
TILT	ELECTRICAL
COMMENT DATE 05.08.2013 -45 degrees polarized system Lever position 02T deg
HORIZONTAL 360
0.00 0.04
1.00 0.09
2.00 0.15
3.00 0.23
4.00 0.31
5.00 0.40
6.00 0.50
7.00 0.60
8.00 0.69
9.00 0.78
10.00 0.87
11.00 0.96
12.00 1.03
13.00 1.11
14.00 1.18
15.00 1.25
16.00 1.32
17.00 1.40
18.00 1.49
19.00 1.59
20.00 1.70
21.00 1.83
22.00 1.97
23.00 2.14
24.00 2.31
25.00 2.51
26.00 2.71
27.00 2.94
28.00 3.17
29.00 3.41
30.00 3.67
31.00 3.92
32.00 4.17
33.00 4.43
34.00 4.67
35.00 4.92
36.00 5.15
37.00 5.37
38.00 5.59
39.00 5.79
40.00 5.99
41.00 6.18
42.00 6.36
43.00 6.53
44.00 6.71
45.00 6.88
46.00 7.05
47.00 7.23
48.00 7.41
49.00 7.60
50.00 7.79
51.00 8.00
52.00 8.21
53.00 8.43
54.00 8.66
55.00 8.90
56.00 9.15
57.00 9.41
58.00 9.67
59.00 9.95
60.00 10.23
61.00 10.53
62.00 10.83
63.00 11.14
64.00 11.46
65.00 11.78
66.00 12.11
67.00 12.45
68.00 12.80
69.00 13.16
70.00 13.53
71.00 13.91
72.00 14.30
73.00 14.71
74.00 15.14
75.00 15.59
76.00 16.06
77.00 16.56
78.00 17.09
79.00 17.66
80.00 18.27
81.00 18.93
82.00 19.64
83.00 20.41
84.00 21.26
85.00 22.19
86.00 23.22
87.00 24.36
88.00 25.62
89.00 27.04
90.00 28.63
91.00 30.44
92.00 32.47
93.00 34.71
94.00 36.92
95.00 38.46
96.00 38.60
97.00 37.59
98.00 36.26
99.00 35.02
100.00 33.99
101.00 33.13
102.00 32.42
103.00 31.82
104.00 31.28
105.00 30.78
106.00 30.31
107.00 29.86
108.00 29.41
109.00 28.97
110.00 28.55
111.00 28.17
112.00 27.82
113.00 27.53
114.00 27.29
115.00 27.10
116.00 26.99
117.00 26.94
118.00 26.95
119.00 27.02
120.00 27.16
121.00 27.34
122.00 27.58
123.00 27.85
124.00 28.14
125.00 28.45
126.00 28.76
127.00 29.08
128.00 29.40
129.00 29.73
130.00 30.09
131.00 30.48
132.00 30.94
133.00 31.49
134.00 32.14
135.00 32.94
136.00 33.88
137.00 35.00
138.00 36.25
139.00 37.52
140.00 38.53
141.00 38.90
142.00 38.44
143.00 37.45
144.00 36.30
145.00 35.24
146.00 34.36
147.00 33.69
148.00 33.22
149.00 32.94
150.00 32.86
151.00 32.95
152.00 33.21
153.00 33.63
154.00 34.20
155.00 34.90
156.00 35.69
157.00 36.53
158.00 37.35
159.00 38.09
160.00 38.69
161.00 39.15
162.00 39.53
163.00 39.89
164.00 40.34
165.00 40.94
166.00 41.72
167.00 42.62
168.00 43.39
169.00 43.58
170.00 42.84
171.00 41.41
172.00 39.76
173.00 38.21
174.00 36.86
175.00 35.75
176.00 34.87
177.00 34.21
178.00 33.75
179.00 33.49
180.00 33.41
181.00 33.54
182.00 33.85
183.00 34.37
184.00 35.13
185.00 36.15
186.00 37.49
187.00 39.24
188.00 41.55
189.00 44.69
190.00 48.83
191.00 51.36
192.00 48.17
193.00 44.65
194.00 42.16
195.00 40.41
196.00 39.17
197.00 38.31
198.00 37.74
199.00 37.41
200.00 37.26
201.00 37.24
202.00 37.30
203.00 37.36
204.00 37.32
205.00 37.10
206.00 36.67
207.00 36.05
208.00 35.30
209.00 34.50
210.00 33.73
211.00 33.04
212.00 32.45
213.00 31.98
214.00 31.66
215.00 31.47
216.00 31.45
217.00 31.59
218.00 31.91
219.00 32.42
220.00 33.15
221.00 34.14
222.00 35.44
223.00 37.12
224.00 39.29
225.00 41.99
226.00 44.73
227.00 45.35
228.00 43.22
229.00 40.77
230.00 38.85
231.00 37.44
232.00 36.47
233.00 35.86
234.00 35.55
235.00 35.50
236.00 35.68
237.00 36.03
238.00 36.49
239.00 36.89
240.00 37.04
241.00 36.73
242.00 35.94
243.00 34.83
244.00 33.61
245.00 32.42
246.00 31.33
247.00 30.37
248.00 29.54
249.00 28.85
250.00 28.29
251.00 27.84
252.00 27.50
253.00 27.25
254.00 27.11
255.00 27.05
256.00 27.08
257.00 27.19
258.00 27.37
259.00 27.62
260.00 27.93
261.00 28.29
262.00 28.69
263.00 29.11
264.00 29.51
265.00 29.86
266.00 30.11
267.00 30.21
268.00 30.13
269.00 29.86
270.00 29.42
271.00 28.85
272.00 28.20
273.00 27.52
274.00 26.83
275.00 26.16
276.00 25.52
277.00 24.92
278.00 24.37
279.00 23.85
280.00 23.38
281.00 22.95
282.00 22.54
283.00 22.17
284.00 21.82
285.00 21.48
286.00 21.15
287.00 20.82
288.00 20.49
289.00 20.14
290.00 19.78
291.00 19.39
292.00 18.99
293.00 18.57
294.00 18.13
295.00 17.68
296.00 17.22
297.00 16.76
298.00 16.29
299.00 15.82
300.00 15.35
301.00 14.89
302.00 14.43
303.00 13.96
304.00 13.50
305.00 13.03
306.00 12.56
307.00 12.07
308.00 11.58
309.00 11.08
310.00 10.57
311.00 10.05
312.00 9.53
313.00 9.01
314.00 8.49
315.00 7.98
316.00 7.48
317.00 6.99
318.00 6.51
319.00 6.06
320.00 5.63
321.00 5.22
322.00 4.84
323.00 4.48
324.00 4.15
325.00 3.85
326.00 3.57
327.00 3.31
328.00 3.08
329.00 2.87
330.00 2.68
331.00 2.51
332.00 2.36
333.00 2.23
334.00 2.10
335.00 1.99
336.00 1.89
337.00 1.80
338.00 1.71
339.00 1.62
340.00 1.54
341.00 1.45
342.00 1.36
343.00 1.27
344.00 1.17
345.00 1.07
346.00 0.96
347.00 0.85
348.00 0.73
349.00 0.62
350.00 0.51
351.00 0.40
352.00 0.30
353.00 0.22
354.00 0.14
355.00 0.08
356.00 0.04
357.00 0.01
358.00 0.00
359.00 0.01
VERTICAL 360
0.00 3.02
1.00 0.79
2.00 0.00
3.00 0.61
4.00 2.82
5.00 7.32
6.00 16.17
7.00 15.20
8.00 11.09
9.00 11.34
10.00 15.14
11.00 20.26
12.00 16.40
13.00 14.55
14.00 15.99
15.00 19.69
16.00 19.10
17.00 16.31
18.00 16.21
19.00 19.40
20.00 24.81
21.00 19.68
22.00 15.96
23.00 15.07
24.00 16.46
25.00 20.15
26.00 23.34
27.00 21.81
28.00 22.01
29.00 26.69
30.00 30.34
31.00 22.40
32.00 19.42
33.00 19.41
34.00 22.19
35.00 29.37
36.00 30.40
37.00 24.31
38.00 22.45
39.00 23.13
40.00 26.77
41.00 40.46
42.00 30.74
43.00 24.82
44.00 23.37
45.00 24.33
46.00 26.93
47.00 29.22
48.00 28.88
49.00 28.35
50.00 29.39
51.00 32.46
52.00 39.19
53.00 48.28
54.00 33.71
55.00 28.57
56.00 26.23
57.00 25.21
58.00 23.98
59.00 22.24
60.00 20.91
61.00 20.09
62.00 19.24
63.00 18.23
64.00 17.55
65.00 17.50
66.00 18.05
67.00 18.87
68.00 19.58
69.00 20.15
70.00 20.92
71.00 22.14
72.00 23.74
73.00 25.33
74.00 26.33
75.00 26.89
76.00 27.71
77.00 28.95
78.00 30.82
79.00 34.61
80.00 42.92
81.00 59.93
82.00 50.56
83.00 45.85
84.00 43.72
85.00 35.08
86.00 30.22
87.00 29.29
88.00 31.71
89.00 36.24
90.00 36.72
91.00 32.14
92.00 28.73
93.00 28.27
94.00 31.19
95.00 39.04
96.00 49.76
97.00 39.59
98.00 36.36
99.00 36.17
100.00 37.99
101.00 40.34
102.00 43.17
103.00 43.09
104.00 41.71
105.00 40.28
106.00 37.93
107.00 37.31
108.00 37.94
109.00 38.27
110.00 37.71
111.00 35.35
112.00 33.61
113.00 33.73
114.00 35.10
115.00 36.49
116.00 36.99
117.00 37.89
118.00 41.26
119.00 40.17
120.00 36.60
121.00 37.36
122.00 42.27
123.00 39.80
124.00 37.07
125.00 39.03
126.00 46.42
127.00 50.30
128.00 57.66
129.00 44.20
130.00 39.06
131.00 40.20
132.00 48.86
133.00 45.35
134.00 42.96
135.00 48.03
136.00 46.53
137.00 40.34
138.00 39.47
139.00 43.57
140.00 56.89
141.00 47.49
142.00 41.51
143.00 37.38
144.00 36.48
145.00 38.15
146.00 37.76
147.00 34.43
148.00 32.51
149.00 32.14
150.00 30.62
151.00 28.20
152.00 27.73
153.00 29.29
154.00 30.99
155.00 33.86
156.00 49.69
157.00 36.55
158.00 33.41
159.00 35.54
160.00 35.81
161.00 35.55
162.00 35.24
163.00 32.73
164.00 33.91
165.00 43.37
166.00 43.68
167.00 41.44
168.00 41.18
169.00 36.37
170.00 35.08
171.00 32.69
172.00 30.78
173.00 32.44
174.00 37.42
175.00 34.97
176.00 33.03
177.00 33.46
178.00 33.75
179.00 36.37
180.00 52.52
181.00 38.11
182.00 34.83
183.00 35.80
184.00 37.60
185.00 41.16
186.00 36.21
187.00 31.53
188.00 31.44
189.00 35.39
190.00 40.92
191.00 39.94
192.00 38.07
193.00 37.91
194.00 36.89
195.00 32.91
196.00 31.87
197.00 35.14
198.00 41.30
199.00 39.20
200.00 40.15
201.00 44.07
202.00 40.65
203.00 35.25
204.00 32.62
205.00 32.24
206.00 32.57
207.00 33.46
208.00 36.64
209.00 39.87
210.00 39.41
211.00 44.35
212.00 46.30
213.00 38.52
214.00 35.80
215.00 33.62
216.00 32.40
217.00 33.01
218.00 35.66
219.00 40.96
220.00 52.28
221.00 45.52
222.00 41.95
223.00 42.28
224.00 44.47
225.00 46.99
226.00 48.29
227.00 47.96
228.00 52.12
229.00 56.90
230.00 45.83
231.00 44.01
232.00 43.28
233.00 40.64
234.00 39.04
235.00 37.66
236.00 35.63
237.00 34.33
238.00 34.03
239.00 33.92
240.00 33.38
241.00 33.05
242.00 33.54
243.00 34.24
244.00 34.01
245.00 32.95
246.00 32.07
247.00 32.46
248.00 34.84
249.00 39.19
250.00 43.91
251.00 45.64
252.00 45.38
253.00 51.74
254.00 45.37
255.00 38.79
256.00 38.09
257.00 41.50
258.00 45.67
259.00 41.54
260.00 36.74
261.00 34.15
262.00 34.29
263.00 37.38
264.00 42.82
265.00 43.16
266.00 38.42
267.00 34.43
268.00 32.32
269.00 31.96
270.00 33.27
271.00 36.63
272.00 40.94
273.00 39.64
274.00 38.77
275.00 41.25
276.00 47.10
277.00 58.44
278.00 49.60
279.00 42.03
280.00 38.30
281.00 36.32
282.00 34.99
283.00 33.81
284.00 32.94
285.00 32.46
286.00 32.33
287.00 32.50
288.00 32.42
289.00 31.85
290.00 31.97
291.00 34.14
292.00 38.27
293.00 34.50
294.00 28.94
295.00 24.99
296.00 21.83
297.00 19.26
298.00 17.32
299.00 16.01
300.00 15.24
301.00 14.91
302.00 15.04
303.00 15.75
304.00 17.27
305.00 19.84
306.00 24.06
307.00 31.38
308.00 29.82
309.00 23.99
310.00 21.48
311.00 21.10
312.00 22.66
313.00 26.97
314.00 42.18
315.00 30.13
316.00 23.99
317.00 22.03
318.00 22.63
319.00 25.47
320.00 26.34
321.00 22.20
322.00 19.57
323.00 19.24
324.00 21.54
325.00 28.66
326.00 29.25
327.00 21.21
328.00 17.75
329.00 16.31
330.00 16.35
331.00 17.51
332.00 18.43
333.00 17.58
334.00 16.13
335.00 15.10
336.00 14.52
337.00 14.47
338.00 15.35
339.00 17.94
340.00 24.56
341.00 34.51
342.00 21.59
343.00 18.83
344.00 20.01
345.00 27.05
346.00 27.59
347.00 18.91
348.00 16.45
349.00 17.29
350.00 21.76
351.00 26.76
352.00 21.24
353.00 19.36
354.00 20.60
355.00 23.28
356.00 27.16
357.00 25.40
358.00 13.52
359.00 6.99
