NAME ATR4518R7_2140_X_CO_M45_05T_yyR
FREQUENCY 2140
GAIN 15.77 dBd
TILT	ELECTRICAL
COMMENT DATE 05.08.2013 -45 degrees polarized system Lever position 05T deg
HORIZONTAL 360
0.00 0.04
1.00 0.02
2.00 0.01
3.00 0.00
4.00 0.00
5.00 0.00
6.00 0.01
7.00 0.02
8.00 0.03
9.00 0.06
10.00 0.08
11.00 0.12
12.00 0.16
13.00 0.21
14.00 0.27
15.00 0.34
16.00 0.42
17.00 0.51
18.00 0.61
19.00 0.73
20.00 0.85
21.00 0.99
22.00 1.15
23.00 1.32
24.00 1.50
25.00 1.70
26.00 1.91
27.00 2.14
28.00 2.38
29.00 2.64
30.00 2.92
31.00 3.22
32.00 3.53
33.00 3.85
34.00 4.20
35.00 4.56
36.00 4.93
37.00 5.32
38.00 5.73
39.00 6.15
40.00 6.59
41.00 7.05
42.00 7.52
43.00 8.00
44.00 8.50
45.00 9.01
46.00 9.54
47.00 10.08
48.00 10.63
49.00 11.18
50.00 11.75
51.00 12.33
52.00 12.91
53.00 13.49
54.00 14.08
55.00 14.66
56.00 15.24
57.00 15.82
58.00 16.38
59.00 16.93
60.00 17.46
61.00 17.97
62.00 18.46
63.00 18.92
64.00 19.36
65.00 19.78
66.00 20.17
67.00 20.54
68.00 20.89
69.00 21.24
70.00 21.57
71.00 21.90
72.00 22.23
73.00 22.56
74.00 22.90
75.00 23.25
76.00 23.62
77.00 24.00
78.00 24.39
79.00 24.80
80.00 25.22
81.00 25.66
82.00 26.10
83.00 26.55
84.00 26.99
85.00 27.43
86.00 27.85
87.00 28.24
88.00 28.60
89.00 28.91
90.00 29.18
91.00 29.40
92.00 29.58
93.00 29.71
94.00 29.80
95.00 29.86
96.00 29.90
97.00 29.92
98.00 29.93
99.00 29.95
100.00 29.97
101.00 30.00
102.00 30.04
103.00 30.10
104.00 30.17
105.00 30.27
106.00 30.38
107.00 30.52
108.00 30.67
109.00 30.84
110.00 31.04
111.00 31.25
112.00 31.48
113.00 31.73
114.00 31.99
115.00 32.27
116.00 32.56
117.00 32.87
118.00 33.19
119.00 33.53
120.00 33.88
121.00 34.25
122.00 34.63
123.00 35.04
124.00 35.47
125.00 35.92
126.00 36.39
127.00 36.88
128.00 37.39
129.00 37.91
130.00 38.42
131.00 38.90
132.00 39.34
133.00 39.70
134.00 39.97
135.00 40.12
136.00 40.16
137.00 40.11
138.00 39.99
139.00 39.82
140.00 39.65
141.00 39.52
142.00 39.44
143.00 39.45
144.00 39.54
145.00 39.76
146.00 40.11
147.00 40.63
148.00 41.35
149.00 42.32
150.00 43.62
151.00 45.36
152.00 47.79
153.00 51.30
154.00 55.97
155.00 55.26
156.00 50.25
157.00 46.53
158.00 43.82
159.00 41.78
160.00 40.15
161.00 38.85
162.00 37.79
163.00 36.92
164.00 36.22
165.00 35.66
166.00 35.23
167.00 34.92
168.00 34.72
169.00 34.63
170.00 34.63
171.00 34.74
172.00 34.95
173.00 35.25
174.00 35.65
175.00 36.16
176.00 36.77
177.00 37.50
178.00 38.35
179.00 39.32
180.00 40.42
181.00 41.68
182.00 43.09
183.00 44.66
184.00 46.40
185.00 48.29
186.00 50.30
187.00 52.34
188.00 54.37
189.00 56.33
190.00 58.37
191.00 60.74
192.00 63.17
193.00 62.64
194.00 58.66
195.00 54.73
196.00 51.53
197.00 48.91
198.00 46.74
199.00 44.90
200.00 43.33
201.00 41.99
202.00 40.83
203.00 39.84
204.00 38.98
205.00 38.26
206.00 37.65
207.00 37.15
208.00 36.74
209.00 36.43
210.00 36.20
211.00 36.04
212.00 35.96
213.00 35.94
214.00 35.98
215.00 36.06
216.00 36.17
217.00 36.29
218.00 36.41
219.00 36.51
220.00 36.55
221.00 36.53
222.00 36.42
223.00 36.22
224.00 35.94
225.00 35.59
226.00 35.20
227.00 34.77
228.00 34.32
229.00 33.88
230.00 33.46
231.00 33.05
232.00 32.68
233.00 32.34
234.00 32.04
235.00 31.77
236.00 31.54
237.00 31.35
238.00 31.19
239.00 31.06
240.00 30.96
241.00 30.89
242.00 30.84
243.00 30.82
244.00 30.80
245.00 30.79
246.00 30.78
247.00 30.75
248.00 30.72
249.00 30.65
250.00 30.55
251.00 30.41
252.00 30.21
253.00 29.98
254.00 29.69
255.00 29.37
256.00 29.00
257.00 28.61
258.00 28.19
259.00 27.76
260.00 27.31
261.00 26.87
262.00 26.42
263.00 25.97
264.00 25.53
265.00 25.09
266.00 24.66
267.00 24.23
268.00 23.80
269.00 23.38
270.00 22.97
271.00 22.55
272.00 22.14
273.00 21.73
274.00 21.32
275.00 20.90
276.00 20.49
277.00 20.07
278.00 19.65
279.00 19.23
280.00 18.81
281.00 18.38
282.00 17.95
283.00 17.53
284.00 17.11
285.00 16.68
286.00 16.26
287.00 15.84
288.00 15.43
289.00 15.02
290.00 14.62
291.00 14.22
292.00 13.83
293.00 13.44
294.00 13.06
295.00 12.69
296.00 12.32
297.00 11.97
298.00 11.62
299.00 11.28
300.00 10.95
301.00 10.62
302.00 10.31
303.00 10.00
304.00 9.70
305.00 9.41
306.00 9.12
307.00 8.84
308.00 8.57
309.00 8.31
310.00 8.04
311.00 7.79
312.00 7.54
313.00 7.30
314.00 7.06
315.00 6.82
316.00 6.59
317.00 6.36
318.00 6.14
319.00 5.91
320.00 5.69
321.00 5.47
322.00 5.25
323.00 5.03
324.00 4.81
325.00 4.60
326.00 4.39
327.00 4.17
328.00 3.96
329.00 3.75
330.00 3.54
331.00 3.34
332.00 3.14
333.00 2.94
334.00 2.75
335.00 2.56
336.00 2.37
337.00 2.19
338.00 2.02
339.00 1.85
340.00 1.69
341.00 1.54
342.00 1.39
343.00 1.25
344.00 1.12
345.00 1.00
346.00 0.89
347.00 0.78
348.00 0.68
349.00 0.59
350.00 0.51
351.00 0.43
352.00 0.36
353.00 0.30
354.00 0.25
355.00 0.20
356.00 0.16
357.00 0.12
358.00 0.09
359.00 0.06
VERTICAL 360
0.00 11.39
1.00 7.15
2.00 4.01
3.00 1.83
4.00 0.50
5.00 0.00
6.00 0.34
7.00 1.61
8.00 3.98
9.00 7.92
10.00 14.35
11.00 18.98
12.00 14.87
13.00 13.01
14.00 13.80
15.00 17.14
16.00 22.28
17.00 21.05
18.00 18.01
19.00 17.84
20.00 20.55
21.00 27.97
22.00 31.05
23.00 22.34
24.00 18.86
25.00 17.73
26.00 18.56
27.00 21.96
28.00 29.67
29.00 27.72
30.00 22.02
31.00 20.18
32.00 20.24
33.00 21.21
34.00 22.24
35.00 22.82
36.00 22.87
37.00 22.63
38.00 22.63
39.00 23.29
40.00 24.73
41.00 26.65
42.00 28.26
43.00 28.70
44.00 28.07
45.00 27.24
46.00 26.91
47.00 27.58
48.00 29.66
49.00 33.77
50.00 39.39
51.00 37.46
52.00 33.05
53.00 30.44
54.00 28.89
55.00 28.19
56.00 28.50
57.00 30.01
58.00 32.80
59.00 36.32
60.00 38.78
61.00 39.43
62.00 39.31
63.00 38.56
64.00 37.26
65.00 36.16
66.00 35.91
67.00 36.70
68.00 38.17
69.00 39.51
70.00 39.67
71.00 38.35
72.00 36.72
73.00 35.66
74.00 34.98
75.00 34.17
76.00 32.94
77.00 31.44
78.00 30.10
79.00 29.19
80.00 28.66
81.00 28.35
82.00 28.25
83.00 28.42
84.00 28.88
85.00 29.75
86.00 31.17
87.00 33.02
88.00 34.82
89.00 35.81
90.00 35.17
91.00 33.29
92.00 31.47
93.00 30.19
94.00 29.48
95.00 29.42
96.00 30.10
97.00 31.40
98.00 32.92
99.00 34.14
100.00 34.89
101.00 35.36
102.00 35.94
103.00 37.07
104.00 39.07
105.00 41.96
106.00 45.37
107.00 48.46
108.00 50.84
109.00 52.71
110.00 53.66
111.00 54.00
112.00 54.91
113.00 54.87
114.00 52.07
115.00 48.54
116.00 45.50
117.00 43.41
118.00 42.41
119.00 42.45
120.00 43.55
121.00 45.66
122.00 47.77
123.00 48.04
124.00 46.64
125.00 44.54
126.00 42.92
127.00 42.49
128.00 42.70
129.00 42.97
130.00 44.61
131.00 52.66
132.00 52.86
133.00 42.11
134.00 38.47
135.00 36.99
136.00 36.51
137.00 36.55
138.00 37.30
139.00 39.37
140.00 43.66
141.00 50.46
142.00 53.55
143.00 56.99
144.00 50.18
145.00 42.07
146.00 38.29
147.00 36.63
148.00 36.21
149.00 36.88
150.00 39.49
151.00 46.07
152.00 46.70
153.00 41.49
154.00 41.56
155.00 44.38
156.00 43.11
157.00 41.09
158.00 41.88
159.00 42.31
160.00 40.45
161.00 39.49
162.00 39.03
163.00 37.75
164.00 36.72
165.00 36.67
166.00 36.99
167.00 36.99
168.00 36.62
169.00 36.22
170.00 36.98
171.00 39.52
172.00 45.39
173.00 55.72
174.00 50.56
175.00 47.33
176.00 45.98
177.00 45.03
178.00 43.62
179.00 41.50
180.00 39.21
181.00 37.27
182.00 36.00
183.00 35.83
184.00 37.01
185.00 39.43
186.00 42.97
187.00 46.69
188.00 48.43
189.00 47.79
190.00 46.60
191.00 45.86
192.00 45.24
193.00 44.24
194.00 44.00
195.00 44.95
196.00 43.72
197.00 40.60
198.00 38.94
199.00 38.80
200.00 39.40
201.00 40.80
202.00 43.93
203.00 49.20
204.00 56.21
205.00 50.62
206.00 41.86
207.00 37.91
208.00 36.68
209.00 37.12
210.00 38.28
211.00 39.35
212.00 38.85
213.00 36.46
214.00 34.38
215.00 33.48
216.00 33.56
217.00 34.29
218.00 35.55
219.00 37.41
220.00 40.05
221.00 43.88
222.00 49.03
223.00 51.57
224.00 49.39
225.00 47.08
226.00 45.72
227.00 46.24
228.00 50.03
229.00 53.57
230.00 48.73
231.00 48.22
232.00 50.10
233.00 42.82
234.00 37.75
235.00 36.11
236.00 37.37
237.00 41.98
238.00 43.98
239.00 38.36
240.00 35.29
241.00 34.28
242.00 34.71
243.00 36.28
244.00 38.05
245.00 37.82
246.00 36.08
247.00 34.98
248.00 34.95
249.00 35.62
250.00 36.52
251.00 37.72
252.00 39.48
253.00 40.61
254.00 39.38
255.00 37.77
256.00 37.39
257.00 37.89
258.00 37.68
259.00 35.91
260.00 33.83
261.00 32.16
262.00 30.78
263.00 29.42
264.00 28.02
265.00 26.78
266.00 25.82
267.00 25.17
268.00 24.74
269.00 24.41
270.00 24.10
271.00 23.83
272.00 23.62
273.00 23.46
274.00 23.33
275.00 23.23
276.00 23.16
277.00 23.17
278.00 23.24
279.00 23.35
280.00 23.39
281.00 23.31
282.00 23.11
283.00 22.88
284.00 22.77
285.00 22.88
286.00 23.26
287.00 23.82
288.00 24.45
289.00 25.03
290.00 25.58
291.00 26.13
292.00 26.66
293.00 27.11
294.00 27.34
295.00 27.26
296.00 26.98
297.00 26.79
298.00 27.01
299.00 27.80
300.00 28.98
301.00 29.73
302.00 29.25
303.00 28.11
304.00 27.18
305.00 26.68
306.00 26.56
307.00 26.87
308.00 27.95
309.00 30.32
310.00 34.75
311.00 37.37
312.00 32.37
313.00 28.79
314.00 27.24
315.00 26.98
316.00 27.63
317.00 29.65
318.00 34.75
319.00 32.97
320.00 24.80
321.00 20.27
322.00 17.78
323.00 16.70
324.00 16.79
325.00 17.94
326.00 19.82
327.00 20.96
328.00 19.97
329.00 18.29
330.00 17.26
331.00 17.10
332.00 17.79
333.00 19.37
334.00 22.05
335.00 26.44
336.00 34.93
337.00 43.17
338.00 30.39
339.00 25.24
340.00 22.18
341.00 20.69
342.00 20.80
343.00 22.85
344.00 27.93
345.00 32.77
346.00 26.48
347.00 23.08
348.00 22.95
349.00 26.84
350.00 36.59
351.00 25.27
352.00 19.86
353.00 17.93
354.00 17.95
355.00 19.33
356.00 21.41
357.00 23.03
358.00 21.75
359.00 16.72
