NAME ATR4518R7_1950_X_CO_M45_10T_yL
FREQUENCY 1950
GAIN 14.92 dBd
TILT	ELECTRICAL
COMMENT DATE 05.08.2013 -45 degrees polarized system Lever position 10T deg
HORIZONTAL 360
0.00 0.01
1.00 0.03
2.00 0.04
3.00 0.06
4.00 0.09
5.00 0.11
6.00 0.14
7.00 0.17
8.00 0.21
9.00 0.25
10.00 0.29
11.00 0.33
12.00 0.38
13.00 0.44
14.00 0.50
15.00 0.56
16.00 0.63
17.00 0.71
18.00 0.80
19.00 0.89
20.00 0.99
21.00 1.10
22.00 1.21
23.00 1.34
24.00 1.47
25.00 1.60
26.00 1.75
27.00 1.90
28.00 2.06
29.00 2.23
30.00 2.40
31.00 2.59
32.00 2.77
33.00 2.97
34.00 3.18
35.00 3.39
36.00 3.61
37.00 3.84
38.00 4.08
39.00 4.32
40.00 4.57
41.00 4.83
42.00 5.10
43.00 5.37
44.00 5.65
45.00 5.94
46.00 6.23
47.00 6.53
48.00 6.84
49.00 7.14
50.00 7.46
51.00 7.77
52.00 8.09
53.00 8.41
54.00 8.73
55.00 9.04
56.00 9.36
57.00 9.68
58.00 10.00
59.00 10.32
60.00 10.64
61.00 10.95
62.00 11.26
63.00 11.58
64.00 11.89
65.00 12.21
66.00 12.52
67.00 12.84
68.00 13.15
69.00 13.47
70.00 13.79
71.00 14.11
72.00 14.43
73.00 14.75
74.00 15.07
75.00 15.39
76.00 15.71
77.00 16.03
78.00 16.34
79.00 16.64
80.00 16.94
81.00 17.24
82.00 17.52
83.00 17.80
84.00 18.07
85.00 18.33
86.00 18.58
87.00 18.82
88.00 19.06
89.00 19.29
90.00 19.52
91.00 19.75
92.00 19.98
93.00 20.20
94.00 20.43
95.00 20.65
96.00 20.87
97.00 21.10
98.00 21.32
99.00 21.53
100.00 21.74
101.00 21.94
102.00 22.12
103.00 22.30
104.00 22.45
105.00 22.59
106.00 22.72
107.00 22.82
108.00 22.92
109.00 23.00
110.00 23.07
111.00 23.13
112.00 23.20
113.00 23.25
114.00 23.31
115.00 23.38
116.00 23.44
117.00 23.51
118.00 23.58
119.00 23.65
120.00 23.72
121.00 23.79
122.00 23.86
123.00 23.91
124.00 23.97
125.00 24.01
126.00 24.06
127.00 24.10
128.00 24.15
129.00 24.21
130.00 24.27
131.00 24.35
132.00 24.46
133.00 24.58
134.00 24.73
135.00 24.90
136.00 25.10
137.00 25.32
138.00 25.56
139.00 25.81
140.00 26.08
141.00 26.34
142.00 26.61
143.00 26.87
144.00 27.12
145.00 27.36
146.00 27.59
147.00 27.83
148.00 28.07
149.00 28.33
150.00 28.63
151.00 28.98
152.00 29.38
153.00 29.84
154.00 30.36
155.00 30.95
156.00 31.56
157.00 32.17
158.00 32.69
159.00 33.02
160.00 33.09
161.00 32.86
162.00 32.38
163.00 31.74
164.00 31.03
165.00 30.35
166.00 29.73
167.00 29.20
168.00 28.78
169.00 28.47
170.00 28.28
171.00 28.21
172.00 28.26
173.00 28.44
174.00 28.73
175.00 29.15
176.00 29.69
177.00 30.32
178.00 31.03
179.00 31.76
180.00 32.42
181.00 32.88
182.00 33.04
183.00 32.87
184.00 32.42
185.00 31.84
186.00 31.22
187.00 30.66
188.00 30.20
189.00 29.87
190.00 29.68
191.00 29.66
192.00 29.80
193.00 30.14
194.00 30.68
195.00 31.48
196.00 32.57
197.00 34.06
198.00 36.10
199.00 38.94
200.00 42.90
201.00 45.62
202.00 42.07
203.00 38.03
204.00 35.08
205.00 32.90
206.00 31.23
207.00 29.93
208.00 28.91
209.00 28.12
210.00 27.53
211.00 27.11
212.00 26.85
213.00 26.74
214.00 26.77
215.00 26.94
216.00 27.27
217.00 27.76
218.00 28.43
219.00 29.31
220.00 30.44
221.00 31.90
222.00 33.80
223.00 36.42
224.00 40.34
225.00 47.86
226.00 54.60
227.00 42.73
228.00 37.91
229.00 34.92
230.00 32.81
231.00 31.21
232.00 29.97
233.00 28.98
234.00 28.19
235.00 27.55
236.00 27.04
237.00 26.64
238.00 26.32
239.00 26.06
240.00 25.86
241.00 25.69
242.00 25.55
243.00 25.41
244.00 25.25
245.00 25.08
246.00 24.88
247.00 24.63
248.00 24.35
249.00 24.04
250.00 23.69
251.00 23.33
252.00 22.95
253.00 22.58
254.00 22.20
255.00 21.84
256.00 21.49
257.00 21.16
258.00 20.85
259.00 20.56
260.00 20.28
261.00 20.03
262.00 19.78
263.00 19.54
264.00 19.31
265.00 19.09
266.00 18.85
267.00 18.61
268.00 18.37
269.00 18.11
270.00 17.84
271.00 17.56
272.00 17.26
273.00 16.96
274.00 16.64
275.00 16.32
276.00 16.00
277.00 15.67
278.00 15.35
279.00 15.03
280.00 14.72
281.00 14.41
282.00 14.11
283.00 13.81
284.00 13.52
285.00 13.24
286.00 12.95
287.00 12.68
288.00 12.39
289.00 12.12
290.00 11.84
291.00 11.56
292.00 11.27
293.00 10.98
294.00 10.69
295.00 10.39
296.00 10.10
297.00 9.80
298.00 9.50
299.00 9.20
300.00 8.91
301.00 8.62
302.00 8.34
303.00 8.06
304.00 7.80
305.00 7.54
306.00 7.29
307.00 7.05
308.00 6.83
309.00 6.61
310.00 6.41
311.00 6.21
312.00 6.02
313.00 5.85
314.00 5.67
315.00 5.51
316.00 5.35
317.00 5.19
318.00 5.03
319.00 4.88
320.00 4.72
321.00 4.56
322.00 4.40
323.00 4.23
324.00 4.07
325.00 3.90
326.00 3.72
327.00 3.54
328.00 3.36
329.00 3.18
330.00 3.00
331.00 2.81
332.00 2.63
333.00 2.45
334.00 2.27
335.00 2.09
336.00 1.92
337.00 1.75
338.00 1.59
339.00 1.43
340.00 1.28
341.00 1.14
342.00 1.00
343.00 0.88
344.00 0.75
345.00 0.64
346.00 0.54
347.00 0.45
348.00 0.36
349.00 0.29
350.00 0.22
351.00 0.17
352.00 0.12
353.00 0.08
354.00 0.05
355.00 0.03
356.00 0.01
357.00 0.00
358.00 0.00
359.00 0.00
VERTICAL 360
0.00 17.13
1.00 18.61
2.00 20.64
3.00 17.42
4.00 12.18
5.00 7.80
6.00 4.65
7.00 2.43
8.00 0.97
9.00 0.16
10.00 0.01
11.00 0.59
12.00 2.07
13.00 4.74
14.00 9.24
15.00 17.96
16.00 26.04
17.00 15.68
18.00 12.90
19.00 12.34
20.00 13.34
21.00 16.07
22.00 19.78
23.00 18.78
24.00 15.97
25.00 15.13
26.00 16.40
27.00 20.02
28.00 26.42
29.00 26.67
30.00 22.80
31.00 20.84
32.00 19.73
33.00 19.39
34.00 20.46
35.00 24.09
36.00 34.62
37.00 27.88
38.00 21.92
39.00 19.86
40.00 19.84
41.00 21.35
42.00 23.89
43.00 24.94
44.00 22.38
45.00 19.27
46.00 16.83
47.00 15.08
48.00 13.92
49.00 13.28
50.00 13.11
51.00 13.41
52.00 14.13
53.00 15.23
54.00 16.51
55.00 17.64
56.00 18.44
57.00 19.16
58.00 20.21
59.00 21.88
60.00 24.28
61.00 27.41
62.00 31.14
63.00 34.15
64.00 33.68
65.00 31.64
66.00 30.37
67.00 30.22
68.00 31.10
69.00 32.79
70.00 34.75
71.00 35.81
72.00 35.69
73.00 35.84
74.00 37.20
75.00 39.83
76.00 41.85
77.00 39.62
78.00 36.61
79.00 35.34
80.00 36.24
81.00 39.62
82.00 45.35
83.00 48.47
84.00 43.60
85.00 37.67
86.00 34.18
87.00 33.04
88.00 34.10
89.00 37.64
90.00 45.42
91.00 50.64
92.00 42.96
93.00 40.29
94.00 39.31
95.00 38.95
96.00 39.09
97.00 40.50
98.00 44.40
99.00 48.95
100.00 44.28
101.00 41.61
102.00 41.60
103.00 43.29
104.00 44.94
105.00 44.32
106.00 42.95
107.00 42.66
108.00 43.70
109.00 45.01
110.00 45.12
111.00 45.02
112.00 46.13
113.00 48.48
114.00 49.66
115.00 47.59
116.00 45.33
117.00 43.87
118.00 42.70
119.00 41.34
120.00 39.90
121.00 39.08
122.00 39.86
123.00 43.81
124.00 52.91
125.00 43.56
126.00 39.81
127.00 39.43
128.00 39.53
129.00 37.50
130.00 35.20
131.00 34.01
132.00 33.92
133.00 34.90
134.00 36.99
135.00 39.99
136.00 41.84
137.00 38.97
138.00 35.21
139.00 33.18
140.00 33.40
141.00 36.84
142.00 50.19
143.00 40.87
144.00 35.40
145.00 34.02
146.00 33.80
147.00 33.24
148.00 32.90
149.00 34.14
150.00 37.76
151.00 39.43
152.00 35.19
153.00 32.90
154.00 32.86
155.00 34.48
156.00 36.47
157.00 37.13
158.00 37.56
159.00 38.92
160.00 39.08
161.00 37.42
162.00 37.29
163.00 41.17
164.00 50.95
165.00 37.24
166.00 32.34
167.00 30.37
168.00 29.99
169.00 30.41
170.00 30.86
171.00 31.28
172.00 32.55
173.00 35.75
174.00 40.87
175.00 39.54
176.00 37.18
177.00 38.37
178.00 44.40
179.00 50.69
180.00 44.51
181.00 46.33
182.00 51.98
183.00 45.23
184.00 44.62
185.00 41.51
186.00 34.48
187.00 30.70
188.00 29.57
189.00 30.75
190.00 34.14
191.00 37.09
192.00 35.14
193.00 33.50
194.00 33.84
195.00 36.59
196.00 42.97
197.00 43.64
198.00 40.25
199.00 42.10
200.00 44.41
201.00 39.56
202.00 39.22
203.00 47.95
204.00 37.20
205.00 30.23
206.00 27.16
207.00 26.19
208.00 26.73
209.00 28.56
210.00 31.68
211.00 36.38
212.00 43.95
213.00 62.56
214.00 44.44
215.00 38.65
216.00 35.40
217.00 33.88
218.00 33.97
219.00 35.49
220.00 37.62
221.00 38.61
222.00 39.37
223.00 42.43
224.00 45.26
225.00 39.68
226.00 36.47
227.00 36.09
228.00 38.46
229.00 45.21
230.00 49.20
231.00 41.18
232.00 38.43
233.00 37.98
234.00 39.10
235.00 41.57
236.00 43.53
237.00 41.60
238.00 39.15
239.00 38.00
240.00 37.96
241.00 38.66
242.00 40.35
243.00 44.67
244.00 68.63
245.00 44.28
246.00 38.58
247.00 36.10
248.00 35.02
249.00 34.46
250.00 33.87
251.00 33.24
252.00 32.99
253.00 33.50
254.00 34.90
255.00 37.03
256.00 39.41
257.00 41.56
258.00 43.11
259.00 42.78
260.00 38.78
261.00 33.95
262.00 30.18
263.00 27.59
264.00 25.96
265.00 24.95
266.00 24.23
267.00 23.52
268.00 22.74
269.00 21.94
270.00 21.20
271.00 20.65
272.00 20.32
273.00 20.23
274.00 20.34
275.00 20.61
276.00 21.03
277.00 21.63
278.00 22.47
279.00 23.61
280.00 25.07
281.00 26.83
282.00 28.76
283.00 30.38
284.00 30.83
285.00 30.04
286.00 28.94
287.00 28.21
288.00 27.90
289.00 27.48
290.00 26.22
291.00 24.16
292.00 22.04
293.00 20.35
294.00 19.27
295.00 18.91
296.00 19.34
297.00 20.74
298.00 23.46
299.00 28.03
300.00 30.81
301.00 26.71
302.00 23.82
303.00 22.57
304.00 22.07
305.00 21.45
306.00 20.61
307.00 20.20
308.00 20.83
309.00 22.89
310.00 26.92
311.00 34.25
312.00 33.71
313.00 26.43
314.00 22.19
315.00 19.81
316.00 19.05
317.00 19.99
318.00 23.19
319.00 31.10
320.00 36.82
321.00 26.83
322.00 23.36
323.00 21.27
324.00 19.90
325.00 19.62
326.00 20.93
327.00 23.42
328.00 22.50
329.00 19.56
330.00 17.10
331.00 15.57
332.00 15.04
333.00 15.48
334.00 16.87
335.00 19.25
336.00 22.72
337.00 26.89
338.00 29.18
339.00 29.89
340.00 34.03
341.00 36.21
342.00 24.81
343.00 20.44
344.00 18.79
345.00 18.94
346.00 20.72
347.00 24.83
348.00 32.20
349.00 24.91
350.00 19.92
351.00 18.29
352.00 19.48
353.00 25.18
354.00 35.02
355.00 23.00
356.00 18.98
357.00 17.22
358.00 16.58
359.00 16.56
