NAME ATR4518R7_1950_X_CO_M45_06T_yL
FREQUENCY 1950
GAIN 15.24 dBd
TILT	ELECTRICAL
COMMENT DATE 05.08.2013 -45 degrees polarized system Lever position 06T deg
HORIZONTAL 360
0.00 0.00
1.00 0.01
2.00 0.02
3.00 0.04
4.00 0.06
5.00 0.08
6.00 0.11
7.00 0.13
8.00 0.17
9.00 0.20
10.00 0.24
11.00 0.29
12.00 0.33
13.00 0.38
14.00 0.44
15.00 0.50
16.00 0.56
17.00 0.63
18.00 0.71
19.00 0.79
20.00 0.88
21.00 0.98
22.00 1.09
23.00 1.20
24.00 1.32
25.00 1.46
26.00 1.60
27.00 1.74
28.00 1.90
29.00 2.07
30.00 2.24
31.00 2.43
32.00 2.62
33.00 2.82
34.00 3.04
35.00 3.26
36.00 3.49
37.00 3.73
38.00 3.97
39.00 4.23
40.00 4.50
41.00 4.77
42.00 5.05
43.00 5.34
44.00 5.64
45.00 5.94
46.00 6.25
47.00 6.57
48.00 6.89
49.00 7.22
50.00 7.55
51.00 7.89
52.00 8.23
53.00 8.57
54.00 8.91
55.00 9.25
56.00 9.60
57.00 9.95
58.00 10.29
59.00 10.64
60.00 10.99
61.00 11.34
62.00 11.69
63.00 12.04
64.00 12.40
65.00 12.75
66.00 13.11
67.00 13.47
68.00 13.83
69.00 14.19
70.00 14.56
71.00 14.93
72.00 15.30
73.00 15.67
74.00 16.05
75.00 16.42
76.00 16.79
77.00 17.15
78.00 17.51
79.00 17.87
80.00 18.22
81.00 18.56
82.00 18.90
83.00 19.22
84.00 19.55
85.00 19.87
86.00 20.18
87.00 20.50
88.00 20.83
89.00 21.16
90.00 21.51
91.00 21.88
92.00 22.27
93.00 22.68
94.00 23.13
95.00 23.61
96.00 24.13
97.00 24.68
98.00 25.28
99.00 25.90
100.00 26.55
101.00 27.20
102.00 27.84
103.00 28.41
104.00 28.89
105.00 29.22
106.00 29.38
107.00 29.37
108.00 29.21
109.00 28.93
110.00 28.60
111.00 28.24
112.00 27.89
113.00 27.57
114.00 27.29
115.00 27.07
116.00 26.90
117.00 26.79
118.00 26.74
119.00 26.73
120.00 26.77
121.00 26.84
122.00 26.94
123.00 27.05
124.00 27.16
125.00 27.27
126.00 27.36
127.00 27.42
128.00 27.44
129.00 27.44
130.00 27.40
131.00 27.34
132.00 27.26
133.00 27.18
134.00 27.11
135.00 27.05
136.00 27.00
137.00 26.99
138.00 27.00
139.00 27.05
140.00 27.13
141.00 27.24
142.00 27.39
143.00 27.57
144.00 27.79
145.00 28.03
146.00 28.31
147.00 28.63
148.00 28.97
149.00 29.34
150.00 29.74
151.00 30.17
152.00 30.61
153.00 31.05
154.00 31.45
155.00 31.79
156.00 32.01
157.00 32.09
158.00 31.99
159.00 31.72
160.00 31.32
161.00 30.83
162.00 30.30
163.00 29.79
164.00 29.31
165.00 28.89
166.00 28.55
167.00 28.30
168.00 28.15
169.00 28.11
170.00 28.18
171.00 28.37
172.00 28.69
173.00 29.13
174.00 29.72
175.00 30.45
176.00 31.30
177.00 32.24
178.00 33.16
179.00 33.88
180.00 34.15
181.00 33.83
182.00 33.05
183.00 32.03
184.00 30.99
185.00 30.03
186.00 29.20
187.00 28.53
188.00 28.01
189.00 27.65
190.00 27.43
191.00 27.38
192.00 27.48
193.00 27.74
194.00 28.19
195.00 28.85
196.00 29.75
197.00 30.95
198.00 32.55
199.00 34.74
200.00 37.92
201.00 43.20
202.00 52.47
203.00 44.02
204.00 38.27
205.00 34.86
206.00 32.51
207.00 30.78
208.00 29.47
209.00 28.47
210.00 27.71
211.00 27.16
212.00 26.79
213.00 26.58
214.00 26.53
215.00 26.64
216.00 26.91
217.00 27.34
218.00 27.96
219.00 28.79
220.00 29.86
221.00 31.24
222.00 33.03
223.00 35.37
224.00 38.39
225.00 41.36
226.00 40.89
227.00 37.62
228.00 34.62
229.00 32.28
230.00 30.45
231.00 28.99
232.00 27.80
233.00 26.83
234.00 26.03
235.00 25.37
236.00 24.83
237.00 24.40
238.00 24.05
239.00 23.78
240.00 23.57
241.00 23.42
242.00 23.31
243.00 23.25
244.00 23.20
245.00 23.17
246.00 23.14
247.00 23.10
248.00 23.04
249.00 22.96
250.00 22.84
251.00 22.69
252.00 22.51
253.00 22.29
254.00 22.05
255.00 21.80
256.00 21.53
257.00 21.26
258.00 20.99
259.00 20.73
260.00 20.48
261.00 20.24
262.00 20.01
263.00 19.79
264.00 19.58
265.00 19.37
266.00 19.17
267.00 18.97
268.00 18.76
269.00 18.54
270.00 18.30
271.00 18.05
272.00 17.77
273.00 17.48
274.00 17.17
275.00 16.85
276.00 16.51
277.00 16.15
278.00 15.80
279.00 15.43
280.00 15.07
281.00 14.70
282.00 14.34
283.00 13.99
284.00 13.64
285.00 13.30
286.00 12.96
287.00 12.64
288.00 12.32
289.00 12.01
290.00 11.71
291.00 11.41
292.00 11.12
293.00 10.83
294.00 10.54
295.00 10.26
296.00 9.99
297.00 9.72
298.00 9.44
299.00 9.18
300.00 8.91
301.00 8.65
302.00 8.39
303.00 8.14
304.00 7.90
305.00 7.65
306.00 7.42
307.00 7.19
308.00 6.96
309.00 6.74
310.00 6.53
311.00 6.32
312.00 6.12
313.00 5.92
314.00 5.73
315.00 5.54
316.00 5.35
317.00 5.17
318.00 4.99
319.00 4.81
320.00 4.63
321.00 4.45
322.00 4.28
323.00 4.10
324.00 3.92
325.00 3.75
326.00 3.57
327.00 3.40
328.00 3.23
329.00 3.06
330.00 2.89
331.00 2.72
332.00 2.56
333.00 2.39
334.00 2.24
335.00 2.08
336.00 1.93
337.00 1.78
338.00 1.63
339.00 1.49
340.00 1.35
341.00 1.22
342.00 1.09
343.00 0.97
344.00 0.86
345.00 0.75
346.00 0.64
347.00 0.55
348.00 0.46
349.00 0.38
350.00 0.30
351.00 0.24
352.00 0.18
353.00 0.13
354.00 0.09
355.00 0.06
356.00 0.03
357.00 0.02
358.00 0.00
359.00 0.00
VERTICAL 360
0.00 12.72
1.00 8.31
2.00 4.99
3.00 2.59
4.00 0.99
5.00 0.15
6.00 0.04
7.00 0.68
8.00 2.18
9.00 4.78
10.00 9.10
11.00 17.24
12.00 21.07
13.00 14.05
14.00 12.02
15.00 12.38
16.00 14.52
17.00 17.97
18.00 19.52
19.00 17.10
20.00 14.96
21.00 14.22
22.00 14.99
23.00 17.61
24.00 23.13
25.00 28.28
26.00 22.29
27.00 19.41
28.00 18.94
29.00 20.30
30.00 23.53
31.00 27.28
32.00 25.01
33.00 21.61
34.00 19.80
35.00 19.23
36.00 19.64
37.00 21.08
38.00 23.52
39.00 24.99
40.00 22.54
41.00 19.54
42.00 17.53
43.00 16.34
44.00 15.73
45.00 15.61
46.00 16.02
47.00 17.03
48.00 18.65
49.00 20.76
50.00 23.21
51.00 26.04
52.00 29.81
53.00 35.83
54.00 43.35
55.00 37.81
56.00 33.84
57.00 30.70
58.00 27.87
59.00 25.82
60.00 24.74
61.00 24.55
62.00 24.99
63.00 25.73
64.00 26.41
65.00 26.94
66.00 27.51
67.00 28.41
68.00 29.76
69.00 31.49
70.00 33.33
71.00 34.91
72.00 36.20
73.00 37.73
74.00 40.14
75.00 43.52
76.00 46.16
77.00 43.55
78.00 40.03
79.00 38.47
80.00 39.09
81.00 42.10
82.00 47.89
83.00 52.83
84.00 53.60
85.00 54.66
86.00 47.19
87.00 42.48
88.00 40.45
89.00 39.82
90.00 39.02
91.00 37.44
92.00 36.03
93.00 35.18
94.00 34.77
95.00 34.83
96.00 35.53
97.00 36.66
98.00 37.51
99.00 37.79
100.00 37.91
101.00 38.18
102.00 38.88
103.00 40.20
104.00 41.48
105.00 41.77
106.00 41.83
107.00 42.64
108.00 44.27
109.00 46.27
110.00 47.27
111.00 46.07
112.00 44.26
113.00 42.77
114.00 41.42
115.00 40.19
116.00 39.41
117.00 39.38
118.00 40.40
119.00 42.79
120.00 46.87
121.00 50.77
122.00 48.98
123.00 46.73
124.00 46.11
125.00 46.59
126.00 46.72
127.00 44.36
128.00 40.78
129.00 38.02
130.00 36.47
131.00 36.02
132.00 36.26
133.00 36.75
134.00 37.44
135.00 38.58
136.00 40.35
137.00 42.12
138.00 42.07
139.00 40.35
140.00 38.90
141.00 38.54
142.00 39.56
143.00 42.50
144.00 48.04
145.00 48.59
146.00 43.40
147.00 39.67
148.00 36.74
149.00 34.68
150.00 33.54
151.00 32.98
152.00 32.68
153.00 32.72
154.00 33.34
155.00 34.02
156.00 33.52
157.00 32.21
158.00 31.33
159.00 31.26
160.00 31.88
161.00 33.03
162.00 34.73
163.00 37.22
164.00 40.54
165.00 42.50
166.00 41.19
167.00 40.11
168.00 40.29
169.00 40.84
170.00 40.50
171.00 39.33
172.00 37.80
173.00 36.08
174.00 34.60
175.00 33.77
176.00 33.81
177.00 34.75
178.00 36.40
179.00 38.38
180.00 40.22
181.00 41.34
182.00 40.71
183.00 38.80
184.00 37.02
185.00 35.88
186.00 35.35
187.00 35.13
188.00 34.83
189.00 34.55
190.00 34.83
191.00 35.96
192.00 37.54
193.00 38.44
194.00 38.20
195.00 37.45
196.00 36.83
197.00 36.61
198.00 36.60
199.00 36.90
200.00 38.17
201.00 38.72
202.00 35.14
203.00 31.98
204.00 30.94
205.00 32.18
206.00 36.19
207.00 39.87
208.00 34.80
209.00 31.32
210.00 29.78
211.00 29.53
212.00 30.39
213.00 32.42
214.00 36.00
215.00 42.62
216.00 55.26
217.00 41.07
218.00 36.25
219.00 34.12
220.00 33.67
221.00 34.44
222.00 35.75
223.00 36.57
224.00 36.76
225.00 37.44
226.00 39.85
227.00 44.67
228.00 42.85
229.00 38.05
230.00 35.86
231.00 35.36
232.00 35.91
233.00 37.16
234.00 39.12
235.00 41.24
236.00 41.07
237.00 39.00
238.00 37.63
239.00 37.56
240.00 38.64
241.00 40.42
242.00 42.98
243.00 48.70
244.00 51.08
245.00 41.93
246.00 37.95
247.00 36.26
248.00 36.02
249.00 36.96
250.00 39.02
251.00 42.12
252.00 45.62
253.00 45.49
254.00 41.27
255.00 37.84
256.00 35.75
257.00 34.56
258.00 33.83
259.00 33.35
260.00 33.07
261.00 33.05
262.00 33.15
263.00 33.05
264.00 32.53
265.00 31.70
266.00 30.79
267.00 29.98
268.00 29.34
269.00 28.80
270.00 28.26
271.00 27.65
272.00 26.96
273.00 26.22
274.00 25.54
275.00 25.06
276.00 24.87
277.00 24.98
278.00 25.37
279.00 25.97
280.00 26.61
281.00 27.16
282.00 27.59
283.00 27.95
284.00 28.37
285.00 29.03
286.00 29.99
287.00 31.10
288.00 32.04
289.00 32.62
290.00 32.80
291.00 32.32
292.00 30.78
293.00 28.58
294.00 26.39
295.00 24.48
296.00 22.93
297.00 21.80
298.00 21.17
299.00 21.13
300.00 21.74
301.00 22.91
302.00 24.40
303.00 25.98
304.00 27.63
305.00 28.74
306.00 27.61
307.00 25.19
308.00 23.32
309.00 22.39
310.00 22.24
311.00 22.64
312.00 23.50
313.00 25.18
314.00 28.72
315.00 33.13
316.00 27.65
317.00 23.07
318.00 20.78
319.00 20.00
320.00 20.36
321.00 21.73
322.00 24.25
323.00 28.43
324.00 32.40
325.00 27.52
326.00 23.14
327.00 20.75
328.00 19.86
329.00 20.30
330.00 22.13
331.00 25.63
332.00 31.10
333.00 34.31
334.00 32.49
335.00 33.89
336.00 43.19
337.00 30.26
338.00 23.58
339.00 20.32
340.00 19.13
341.00 19.78
342.00 22.64
343.00 30.00
344.00 37.26
345.00 25.70
346.00 22.34
347.00 21.60
348.00 23.05
349.00 28.24
350.00 33.49
351.00 23.10
352.00 18.52
353.00 16.36
354.00 15.69
355.00 16.11
356.00 17.52
357.00 19.85
358.00 21.89
359.00 18.19
