NAME ATR4518R7_2140_X_CO_P45_04T_yyR
FREQUENCY 2140
GAIN 15.70 dBd
TILT	ELECTRICAL
COMMENT DATE 05.08.2013 +45 degrees polarized system Lever position 04T deg
HORIZONTAL 360
0.00 0.12
1.00 0.09
2.00 0.06
3.00 0.04
4.00 0.02
5.00 0.01
6.00 0.01
7.00 0.01
8.00 0.01
9.00 0.02
10.00 0.03
11.00 0.05
12.00 0.08
13.00 0.12
14.00 0.16
15.00 0.21
16.00 0.27
17.00 0.34
18.00 0.42
19.00 0.51
20.00 0.61
21.00 0.72
22.00 0.84
23.00 0.97
24.00 1.12
25.00 1.28
26.00 1.45
27.00 1.63
28.00 1.83
29.00 2.03
30.00 2.26
31.00 2.49
32.00 2.73
33.00 2.99
34.00 3.26
35.00 3.54
36.00 3.83
37.00 4.13
38.00 4.44
39.00 4.76
40.00 5.09
41.00 5.43
42.00 5.77
43.00 6.13
44.00 6.48
45.00 6.85
46.00 7.22
47.00 7.59
48.00 7.97
49.00 8.36
50.00 8.75
51.00 9.14
52.00 9.54
53.00 9.94
54.00 10.35
55.00 10.76
56.00 11.18
57.00 11.60
58.00 12.03
59.00 12.46
60.00 12.89
61.00 13.33
62.00 13.77
63.00 14.22
64.00 14.66
65.00 15.11
66.00 15.55
67.00 15.98
68.00 16.41
69.00 16.84
70.00 17.26
71.00 17.66
72.00 18.06
73.00 18.44
74.00 18.81
75.00 19.17
76.00 19.53
77.00 19.87
78.00 20.20
79.00 20.54
80.00 20.87
81.00 21.20
82.00 21.54
83.00 21.88
84.00 22.24
85.00 22.61
86.00 22.99
87.00 23.39
88.00 23.81
89.00 24.24
90.00 24.70
91.00 25.18
92.00 25.68
93.00 26.19
94.00 26.73
95.00 27.28
96.00 27.85
97.00 28.42
98.00 29.01
99.00 29.60
100.00 30.19
101.00 30.78
102.00 31.36
103.00 31.95
104.00 32.54
105.00 33.13
106.00 33.74
107.00 34.36
108.00 35.01
109.00 35.70
110.00 36.44
111.00 37.25
112.00 38.14
113.00 39.13
114.00 40.27
115.00 41.57
116.00 43.09
117.00 44.91
118.00 47.15
119.00 50.05
120.00 54.02
121.00 59.20
122.00 59.12
123.00 54.43
124.00 51.03
125.00 48.66
126.00 46.92
127.00 45.59
128.00 44.55
129.00 43.72
130.00 43.06
131.00 42.53
132.00 42.11
133.00 41.77
134.00 41.52
135.00 41.32
136.00 41.19
137.00 41.11
138.00 41.07
139.00 41.08
140.00 41.12
141.00 41.20
142.00 41.30
143.00 41.42
144.00 41.55
145.00 41.68
146.00 41.78
147.00 41.86
148.00 41.88
149.00 41.84
150.00 41.72
151.00 41.53
152.00 41.29
153.00 40.99
154.00 40.65
155.00 40.30
156.00 39.95
157.00 39.62
158.00 39.32
159.00 39.05
160.00 38.83
161.00 38.65
162.00 38.52
163.00 38.43
164.00 38.39
165.00 38.40
166.00 38.44
167.00 38.52
168.00 38.61
169.00 38.72
170.00 38.82
171.00 38.91
172.00 38.97
173.00 38.98
174.00 38.93
175.00 38.83
176.00 38.68
177.00 38.47
178.00 38.22
179.00 37.94
180.00 37.64
181.00 37.33
182.00 37.02
183.00 36.72
184.00 36.43
185.00 36.15
186.00 35.88
187.00 35.62
188.00 35.38
189.00 35.14
190.00 34.92
191.00 34.70
192.00 34.50
193.00 34.31
194.00 34.13
195.00 33.96
196.00 33.81
197.00 33.67
198.00 33.56
199.00 33.47
200.00 33.41
201.00 33.37
202.00 33.38
203.00 33.41
204.00 33.49
205.00 33.61
206.00 33.77
207.00 33.97
208.00 34.22
209.00 34.52
210.00 34.87
211.00 35.27
212.00 35.73
213.00 36.23
214.00 36.80
215.00 37.41
216.00 38.09
217.00 38.82
218.00 39.60
219.00 40.44
220.00 41.34
221.00 42.29
222.00 43.30
223.00 44.36
224.00 45.48
225.00 46.67
226.00 47.94
227.00 49.32
228.00 50.81
229.00 52.45
230.00 54.25
231.00 56.13
232.00 57.58
233.00 57.90
234.00 56.84
235.00 55.15
236.00 53.38
237.00 51.74
238.00 50.28
239.00 48.98
240.00 47.79
241.00 46.70
242.00 45.68
243.00 44.68
244.00 43.71
245.00 42.75
246.00 41.78
247.00 40.83
248.00 39.88
249.00 38.93
250.00 38.00
251.00 37.10
252.00 36.21
253.00 35.36
254.00 34.55
255.00 33.76
256.00 33.02
257.00 32.31
258.00 31.63
259.00 30.99
260.00 30.38
261.00 29.80
262.00 29.25
263.00 28.71
264.00 28.20
265.00 27.71
266.00 27.23
267.00 26.76
268.00 26.30
269.00 25.84
270.00 25.39
271.00 24.93
272.00 24.48
273.00 24.03
274.00 23.57
275.00 23.12
276.00 22.66
277.00 22.20
278.00 21.74
279.00 21.28
280.00 20.83
281.00 20.37
282.00 19.93
283.00 19.48
284.00 19.04
285.00 18.61
286.00 18.18
287.00 17.77
288.00 17.35
289.00 16.95
290.00 16.55
291.00 16.16
292.00 15.78
293.00 15.40
294.00 15.03
295.00 14.67
296.00 14.31
297.00 13.95
298.00 13.61
299.00 13.26
300.00 12.92
301.00 12.59
302.00 12.26
303.00 11.93
304.00 11.60
305.00 11.28
306.00 10.97
307.00 10.65
308.00 10.34
309.00 10.03
310.00 9.73
311.00 9.42
312.00 9.12
313.00 8.82
314.00 8.53
315.00 8.24
316.00 7.95
317.00 7.66
318.00 7.38
319.00 7.10
320.00 6.82
321.00 6.54
322.00 6.27
323.00 6.00
324.00 5.73
325.00 5.47
326.00 5.21
327.00 4.96
328.00 4.70
329.00 4.45
330.00 4.21
331.00 3.97
332.00 3.74
333.00 3.51
334.00 3.29
335.00 3.07
336.00 2.86
337.00 2.66
338.00 2.46
339.00 2.27
340.00 2.09
341.00 1.92
342.00 1.76
343.00 1.60
344.00 1.45
345.00 1.31
346.00 1.18
347.00 1.06
348.00 0.94
349.00 0.83
350.00 0.74
351.00 0.64
352.00 0.56
353.00 0.48
354.00 0.41
355.00 0.35
356.00 0.29
357.00 0.24
358.00 0.19
359.00 0.15
VERTICAL 360
0.00 6.78
1.00 3.74
2.00 1.65
3.00 0.42
4.00 0.00
5.00 0.43
6.00 1.81
7.00 4.36
8.00 8.64
9.00 16.52
10.00 24.59
11.00 16.95
12.00 15.17
13.00 16.88
14.00 21.51
15.00 21.53
16.00 17.02
17.00 15.23
18.00 15.88
19.00 19.01
20.00 25.53
21.00 26.15
22.00 20.33
23.00 17.68
24.00 16.99
25.00 17.79
26.00 20.08
27.00 23.54
28.00 24.80
29.00 22.34
30.00 20.43
31.00 20.04
32.00 21.01
33.00 22.90
34.00 24.53
35.00 24.99
36.00 25.44
37.00 26.96
38.00 28.37
39.00 26.65
40.00 23.79
41.00 21.96
42.00 21.34
43.00 21.82
44.00 23.39
45.00 26.10
46.00 29.73
47.00 32.44
48.00 31.62
49.00 29.35
50.00 27.53
51.00 26.51
52.00 26.24
53.00 26.53
54.00 27.15
55.00 28.26
56.00 30.49
57.00 34.87
58.00 44.21
59.00 46.52
60.00 39.49
61.00 36.90
62.00 35.39
63.00 34.32
64.00 33.82
65.00 33.97
66.00 34.47
67.00 34.78
68.00 34.55
69.00 33.96
70.00 33.23
71.00 32.44
72.00 31.61
73.00 30.77
74.00 29.96
75.00 29.23
76.00 28.52
77.00 27.79
78.00 27.14
79.00 26.72
80.00 26.53
81.00 26.40
82.00 26.14
83.00 25.76
84.00 25.61
85.00 26.15
86.00 27.67
87.00 30.05
88.00 32.41
89.00 32.95
90.00 31.20
91.00 29.20
92.00 28.33
93.00 28.85
94.00 30.38
95.00 31.77
96.00 31.76
97.00 30.72
98.00 30.04
99.00 30.67
100.00 32.98
101.00 36.62
102.00 39.01
103.00 37.92
104.00 36.32
105.00 36.34
106.00 38.77
107.00 44.34
108.00 53.54
109.00 54.30
110.00 46.85
111.00 43.22
112.00 42.48
113.00 43.41
114.00 44.66
115.00 45.00
116.00 44.77
117.00 44.92
118.00 42.92
119.00 39.24
120.00 37.01
121.00 36.42
122.00 36.65
123.00 36.74
124.00 36.35
125.00 36.15
126.00 36.81
127.00 38.36
128.00 39.82
129.00 39.80
130.00 38.61
131.00 37.81
132.00 38.35
133.00 40.29
134.00 43.11
135.00 45.93
136.00 45.63
137.00 43.07
138.00 42.27
139.00 43.10
140.00 43.76
141.00 43.06
142.00 41.23
143.00 39.61
144.00 39.57
145.00 41.68
146.00 45.22
147.00 45.24
148.00 42.78
149.00 41.80
150.00 41.91
151.00 42.57
152.00 44.40
153.00 47.20
154.00 46.73
155.00 40.96
156.00 35.47
157.00 32.60
158.00 32.55
159.00 35.77
160.00 42.40
161.00 42.38
162.00 39.64
163.00 37.56
164.00 35.38
165.00 34.34
166.00 34.09
167.00 34.56
168.00 36.63
169.00 38.95
170.00 38.56
171.00 39.75
172.00 41.62
173.00 37.19
174.00 34.54
175.00 34.59
176.00 35.75
177.00 37.47
178.00 40.47
179.00 42.90
180.00 44.03
181.00 48.47
182.00 43.74
183.00 38.78
184.00 38.07
185.00 39.84
186.00 42.31
187.00 44.29
188.00 46.38
189.00 48.28
190.00 46.22
191.00 42.44
192.00 40.70
193.00 40.04
194.00 38.87
195.00 38.35
196.00 40.28
197.00 45.38
198.00 46.62
199.00 43.75
200.00 44.85
201.00 53.01
202.00 46.45
203.00 38.60
204.00 35.70
205.00 35.77
206.00 38.59
207.00 41.63
208.00 40.06
209.00 39.98
210.00 45.83
211.00 48.29
212.00 39.33
213.00 36.81
214.00 36.93
215.00 37.82
216.00 37.46
217.00 35.84
218.00 34.62
219.00 34.79
220.00 36.59
221.00 39.26
222.00 39.92
223.00 38.65
224.00 37.87
225.00 37.89
226.00 38.30
227.00 38.23
228.00 36.80
229.00 34.82
230.00 33.52
231.00 33.58
232.00 35.67
233.00 41.25
234.00 44.13
235.00 37.79
236.00 35.43
237.00 36.07
238.00 39.69
239.00 46.69
240.00 43.66
241.00 38.55
242.00 36.75
243.00 36.96
244.00 38.72
245.00 41.36
246.00 42.65
247.00 41.67
248.00 40.90
249.00 40.34
250.00 38.59
251.00 36.67
252.00 35.74
253.00 35.37
254.00 34.63
255.00 33.62
256.00 32.98
257.00 32.64
258.00 31.95
259.00 30.62
260.00 29.19
261.00 28.21
262.00 27.81
263.00 27.71
264.00 27.46
265.00 26.89
266.00 26.22
267.00 25.69
268.00 25.33
269.00 25.07
270.00 24.90
271.00 24.87
272.00 25.13
273.00 25.64
274.00 26.18
275.00 26.45
276.00 26.32
277.00 25.99
278.00 25.74
279.00 25.69
280.00 25.73
281.00 25.75
282.00 25.75
283.00 25.83
284.00 26.08
285.00 26.55
286.00 27.27
287.00 28.34
288.00 29.90
289.00 32.05
290.00 34.65
291.00 36.91
292.00 38.33
293.00 40.52
294.00 45.26
295.00 43.78
296.00 37.27
297.00 33.39
298.00 31.07
299.00 29.63
300.00 28.58
301.00 27.48
302.00 26.26
303.00 25.24
304.00 24.78
305.00 25.03
306.00 25.96
307.00 27.58
308.00 30.32
309.00 34.95
310.00 35.18
311.00 29.41
312.00 26.07
313.00 24.93
314.00 25.70
315.00 28.77
316.00 34.46
317.00 31.33
318.00 24.62
319.00 20.49
320.00 17.89
321.00 16.45
322.00 16.05
323.00 16.69
324.00 18.49
325.00 21.65
326.00 25.43
327.00 25.00
328.00 21.92
329.00 20.19
330.00 19.91
331.00 20.59
332.00 21.51
333.00 21.98
334.00 22.25
335.00 23.41
336.00 27.01
337.00 39.83
338.00 30.83
339.00 23.76
340.00 21.40
341.00 21.68
342.00 25.18
343.00 35.93
344.00 27.81
345.00 21.71
346.00 20.14
347.00 21.46
348.00 26.05
349.00 28.34
350.00 22.58
351.00 19.34
352.00 18.30
353.00 18.88
354.00 21.00
355.00 24.92
356.00 29.59
357.00 24.62
358.00 16.75
359.00 10.99
