NAME ATR4518R7_0832_X_CO_M45_06T
FREQUENCY 0832
GAIN 14.77 dBd
TILT	ELECTRICAL
COMMENT DATE 05.08.2013 -45 degrees polarized system Lever position 06T deg
HORIZONTAL 360
0.00 0.00
1.00 0.01
2.00 0.02
3.00 0.04
4.00 0.06
5.00 0.10
6.00 0.13
7.00 0.18
8.00 0.23
9.00 0.28
10.00 0.34
11.00 0.41
12.00 0.49
13.00 0.57
14.00 0.65
15.00 0.74
16.00 0.84
17.00 0.95
18.00 1.05
19.00 1.17
20.00 1.29
21.00 1.42
22.00 1.56
23.00 1.70
24.00 1.84
25.00 1.99
26.00 2.15
27.00 2.32
28.00 2.49
29.00 2.66
30.00 2.85
31.00 3.03
32.00 3.23
33.00 3.43
34.00 3.64
35.00 3.85
36.00 4.07
37.00 4.29
38.00 4.52
39.00 4.76
40.00 5.00
41.00 5.25
42.00 5.50
43.00 5.76
44.00 6.03
45.00 6.30
46.00 6.58
47.00 6.86
48.00 7.15
49.00 7.45
50.00 7.75
51.00 8.05
52.00 8.36
53.00 8.68
54.00 9.01
55.00 9.34
56.00 9.67
57.00 10.01
58.00 10.36
59.00 10.71
60.00 11.07
61.00 11.43
62.00 11.80
63.00 12.18
64.00 12.55
65.00 12.94
66.00 13.33
67.00 13.73
68.00 14.13
69.00 14.54
70.00 14.96
71.00 15.37
72.00 15.80
73.00 16.22
74.00 16.66
75.00 17.09
76.00 17.53
77.00 17.98
78.00 18.43
79.00 18.88
80.00 19.33
81.00 19.78
82.00 20.23
83.00 20.68
84.00 21.12
85.00 21.56
86.00 22.00
87.00 22.42
88.00 22.84
89.00 23.24
90.00 23.64
91.00 24.01
92.00 24.38
93.00 24.72
94.00 25.05
95.00 25.36
96.00 25.64
97.00 25.92
98.00 26.18
99.00 26.42
100.00 26.64
101.00 26.86
102.00 27.07
103.00 27.28
104.00 27.48
105.00 27.68
106.00 27.88
107.00 28.08
108.00 28.29
109.00 28.51
110.00 28.74
111.00 28.98
112.00 29.24
113.00 29.51
114.00 29.81
115.00 30.12
116.00 30.45
117.00 30.81
118.00 31.20
119.00 31.61
120.00 32.06
121.00 32.53
122.00 33.04
123.00 33.59
124.00 34.18
125.00 34.81
126.00 35.50
127.00 36.23
128.00 37.03
129.00 37.89
130.00 38.80
131.00 39.79
132.00 40.83
133.00 41.92
134.00 43.00
135.00 44.03
136.00 44.88
137.00 45.41
138.00 45.52
139.00 45.25
140.00 44.68
141.00 43.96
142.00 43.19
143.00 42.44
144.00 41.73
145.00 41.07
146.00 40.48
147.00 39.95
148.00 39.47
149.00 39.04
150.00 38.65
151.00 38.31
152.00 38.00
153.00 37.72
154.00 37.45
155.00 37.22
156.00 37.00
157.00 36.79
158.00 36.58
159.00 36.38
160.00 36.20
161.00 36.00
162.00 35.80
163.00 35.60
164.00 35.40
165.00 35.19
166.00 34.97
167.00 34.76
168.00 34.53
169.00 34.30
170.00 34.08
171.00 33.85
172.00 33.62
173.00 33.40
174.00 33.17
175.00 32.96
176.00 32.76
177.00 32.55
178.00 32.37
179.00 32.19
180.00 32.02
181.00 31.87
182.00 31.73
183.00 31.60
184.00 31.49
185.00 31.39
186.00 31.31
187.00 31.24
188.00 31.19
189.00 31.16
190.00 31.15
191.00 31.15
192.00 31.17
193.00 31.20
194.00 31.26
195.00 31.34
196.00 31.43
197.00 31.54
198.00 31.68
199.00 31.83
200.00 32.01
201.00 32.20
202.00 32.43
203.00 32.67
204.00 32.94
205.00 33.23
206.00 33.54
207.00 33.89
208.00 34.26
209.00 34.67
210.00 35.10
211.00 35.57
212.00 36.07
213.00 36.61
214.00 37.20
215.00 37.82
216.00 38.50
217.00 39.23
218.00 40.02
219.00 40.87
220.00 41.79
221.00 42.79
222.00 43.88
223.00 45.02
224.00 46.25
225.00 47.46
226.00 48.56
227.00 49.33
228.00 49.52
229.00 49.08
230.00 48.20
231.00 47.05
232.00 45.82
233.00 44.61
234.00 43.46
235.00 42.37
236.00 41.33
237.00 40.35
238.00 39.40
239.00 38.50
240.00 37.63
241.00 36.79
242.00 35.98
243.00 35.19
244.00 34.42
245.00 33.67
246.00 32.93
247.00 32.22
248.00 31.52
249.00 30.85
250.00 30.18
251.00 29.53
252.00 28.90
253.00 28.29
254.00 27.69
255.00 27.10
256.00 26.53
257.00 25.98
258.00 25.43
259.00 24.90
260.00 24.39
261.00 23.88
262.00 23.39
263.00 22.91
264.00 22.44
265.00 21.98
266.00 21.54
267.00 21.10
268.00 20.67
269.00 20.25
270.00 19.84
271.00 19.44
272.00 19.04
273.00 18.66
274.00 18.28
275.00 17.90
276.00 17.53
277.00 17.17
278.00 16.81
279.00 16.46
280.00 16.11
281.00 15.77
282.00 15.43
283.00 15.09
284.00 14.76
285.00 14.43
286.00 14.10
287.00 13.78
288.00 13.46
289.00 13.14
290.00 12.82
291.00 12.50
292.00 12.19
293.00 11.88
294.00 11.57
295.00 11.26
296.00 10.96
297.00 10.66
298.00 10.36
299.00 10.06
300.00 9.76
301.00 9.47
302.00 9.18
303.00 8.89
304.00 8.60
305.00 8.32
306.00 8.04
307.00 7.76
308.00 7.49
309.00 7.21
310.00 6.95
311.00 6.68
312.00 6.42
313.00 6.17
314.00 5.92
315.00 5.67
316.00 5.43
317.00 5.19
318.00 4.95
319.00 4.72
320.00 4.50
321.00 4.28
322.00 4.06
323.00 3.85
324.00 3.65
325.00 3.45
326.00 3.25
327.00 3.06
328.00 2.88
329.00 2.70
330.00 2.53
331.00 2.36
332.00 2.20
333.00 2.04
334.00 1.89
335.00 1.74
336.00 1.60
337.00 1.47
338.00 1.34
339.00 1.22
340.00 1.10
341.00 0.99
342.00 0.88
343.00 0.78
344.00 0.69
345.00 0.60
346.00 0.52
347.00 0.45
348.00 0.38
349.00 0.31
350.00 0.25
351.00 0.20
352.00 0.15
353.00 0.11
354.00 0.08
355.00 0.05
356.00 0.03
357.00 0.01
358.00 0.00
359.00 0.00
VERTICAL 360
0.00 6.45
1.00 4.26
2.00 2.60
3.00 1.39
4.00 0.58
5.00 0.12
6.00 0.00
7.00 0.21
8.00 0.76
9.00 1.67
10.00 2.97
11.00 4.71
12.00 7.02
13.00 10.07
14.00 14.26
15.00 20.64
16.00 31.56
17.00 26.01
18.00 22.30
19.00 21.61
20.00 22.83
21.00 26.00
22.00 30.98
23.00 29.25
24.00 24.47
25.00 21.61
26.00 20.06
27.00 19.46
28.00 19.65
29.00 20.62
30.00 22.51
31.00 25.72
32.00 31.48
33.00 50.57
34.00 35.23
35.00 30.20
36.00 28.65
37.00 29.04
38.00 31.42
39.00 37.72
40.00 44.34
41.00 31.90
42.00 26.76
43.00 23.66
44.00 21.59
45.00 20.19
46.00 19.30
47.00 18.83
48.00 18.73
49.00 18.98
50.00 19.58
51.00 20.49
52.00 21.71
53.00 23.25
54.00 25.11
55.00 27.40
56.00 30.33
57.00 34.43
58.00 40.59
59.00 41.60
60.00 36.13
61.00 32.90
62.00 31.17
63.00 30.42
64.00 30.40
65.00 30.99
66.00 32.11
67.00 33.62
68.00 35.26
69.00 36.60
70.00 37.51
71.00 38.46
72.00 40.10
73.00 43.22
74.00 50.05
75.00 56.50
76.00 43.75
77.00 38.36
78.00 35.03
79.00 32.87
80.00 31.50
81.00 30.66
82.00 30.06
83.00 29.49
84.00 28.89
85.00 28.35
86.00 27.95
87.00 27.73
88.00 27.69
89.00 27.81
90.00 28.08
91.00 28.50
92.00 28.99
93.00 29.48
94.00 29.90
95.00 30.21
96.00 30.41
97.00 30.59
98.00 30.90
99.00 31.51
100.00 32.55
101.00 34.07
102.00 35.92
103.00 37.76
104.00 39.12
105.00 39.68
106.00 39.54
107.00 39.09
108.00 38.74
109.00 38.66
110.00 38.74
111.00 38.69
112.00 38.35
113.00 37.84
114.00 37.39
115.00 37.09
116.00 36.99
117.00 37.12
118.00 37.50
119.00 38.13
120.00 38.89
121.00 39.54
122.00 39.77
123.00 39.37
124.00 38.54
125.00 37.62
126.00 36.86
127.00 36.34
128.00 36.05
129.00 35.89
130.00 35.83
131.00 35.85
132.00 36.03
133.00 36.49
134.00 37.36
135.00 38.80
136.00 41.00
137.00 44.29
138.00 49.43
139.00 56.54
140.00 51.14
141.00 45.95
142.00 42.91
143.00 41.09
144.00 40.08
145.00 39.56
146.00 39.08
147.00 38.14
148.00 36.64
149.00 34.92
150.00 33.39
151.00 32.29
152.00 31.74
153.00 31.81
154.00 32.54
155.00 34.03
156.00 36.42
157.00 39.99
158.00 45.14
159.00 49.46
160.00 46.97
161.00 44.61
162.00 43.83
163.00 44.05
164.00 44.28
165.00 42.97
166.00 40.33
167.00 37.74
168.00 35.70
169.00 34.23
170.00 33.23
171.00 32.59
172.00 32.22
173.00 32.07
174.00 32.11
175.00 32.28
176.00 32.63
177.00 33.14
178.00 33.71
179.00 34.27
180.00 34.76
181.00 35.32
182.00 36.09
183.00 37.33
184.00 39.23
185.00 41.90
186.00 45.44
187.00 49.73
188.00 51.47
189.00 46.75
190.00 42.31
191.00 39.31
192.00 37.48
193.00 36.52
194.00 36.19
195.00 36.20
196.00 36.29
197.00 36.25
198.00 35.99
199.00 35.61
200.00 35.28
201.00 35.21
202.00 35.57
203.00 36.39
204.00 37.63
205.00 39.17
206.00 40.91
207.00 42.52
208.00 42.91
209.00 41.59
210.00 40.02
211.00 39.24
212.00 39.57
213.00 41.13
214.00 44.11
215.00 48.63
216.00 53.72
217.00 56.49
218.00 60.01
219.00 57.45
220.00 49.96
221.00 45.43
222.00 42.58
223.00 40.64
224.00 39.17
225.00 37.82
226.00 36.46
227.00 35.12
228.00 33.95
229.00 33.04
230.00 32.43
231.00 32.10
232.00 32.04
233.00 32.18
234.00 32.47
235.00 32.83
236.00 33.18
237.00 33.55
238.00 34.00
239.00 34.68
240.00 35.71
241.00 37.23
242.00 39.48
243.00 42.98
244.00 48.93
245.00 53.21
246.00 47.02
247.00 43.71
248.00 42.44
249.00 42.44
250.00 43.27
251.00 44.39
252.00 44.98
253.00 44.33
254.00 42.64
255.00 40.74
256.00 39.25
257.00 38.47
258.00 38.56
259.00 39.64
260.00 41.88
261.00 45.61
262.00 51.90
263.00 64.59
264.00 53.86
265.00 48.22
266.00 45.28
267.00 44.07
268.00 44.54
269.00 46.80
270.00 48.72
271.00 45.38
272.00 41.74
273.00 39.61
274.00 38.65
275.00 38.48
276.00 38.71
277.00 38.93
278.00 38.82
279.00 38.34
280.00 37.80
281.00 37.53
282.00 37.80
283.00 38.75
284.00 40.50
285.00 43.07
286.00 46.12
287.00 48.01
288.00 47.51
289.00 46.72
290.00 46.97
291.00 47.39
292.00 44.64
293.00 40.42
294.00 37.13
295.00 34.95
296.00 33.66
297.00 33.05
298.00 32.87
299.00 32.86
300.00 32.77
301.00 32.55
302.00 32.35
303.00 32.53
304.00 33.53
305.00 36.06
306.00 42.14
307.00 44.32
308.00 34.81
309.00 29.86
310.00 26.70
311.00 24.47
312.00 22.84
313.00 21.61
314.00 20.71
315.00 20.11
316.00 19.84
317.00 19.94
318.00 20.48
319.00 21.57
320.00 23.36
321.00 26.12
322.00 30.43
323.00 36.38
324.00 34.72
325.00 30.25
326.00 27.69
327.00 26.36
328.00 25.87
329.00 26.09
330.00 27.05
331.00 28.98
332.00 32.21
333.00 35.26
334.00 32.47
335.00 28.73
336.00 26.54
337.00 25.74
338.00 26.30
339.00 28.55
340.00 32.95
341.00 32.67
342.00 26.93
343.00 23.24
344.00 21.15
345.00 20.22
346.00 20.34
347.00 21.60
348.00 24.45
349.00 30.40
350.00 37.49
351.00 28.06
352.00 24.12
353.00 22.91
354.00 24.17
355.00 30.63
356.00 30.97
357.00 19.07
358.00 13.26
359.00 9.34
