NAME ATR4518R7_2140_X_CO_M45_06T_yL
FREQUENCY 2140
GAIN 15.74 dBd
TILT	ELECTRICAL
COMMENT DATE 05.08.2013 -45 degrees polarized system Lever position 06T deg
HORIZONTAL 360
0.00 0.04
1.00 0.05
2.00 0.07
3.00 0.10
4.00 0.12
5.00 0.16
6.00 0.19
7.00 0.24
8.00 0.29
9.00 0.35
10.00 0.41
11.00 0.49
12.00 0.57
13.00 0.66
14.00 0.75
15.00 0.86
16.00 0.97
17.00 1.10
18.00 1.23
19.00 1.36
20.00 1.51
21.00 1.66
22.00 1.82
23.00 1.98
24.00 2.15
25.00 2.33
26.00 2.51
27.00 2.70
28.00 2.89
29.00 3.09
30.00 3.29
31.00 3.50
32.00 3.71
33.00 3.92
34.00 4.15
35.00 4.37
36.00 4.60
37.00 4.84
38.00 5.07
39.00 5.32
40.00 5.57
41.00 5.82
42.00 6.08
43.00 6.34
44.00 6.60
45.00 6.86
46.00 7.13
47.00 7.40
48.00 7.67
49.00 7.94
50.00 8.21
51.00 8.48
52.00 8.75
53.00 9.03
54.00 9.30
55.00 9.58
56.00 9.86
57.00 10.14
58.00 10.42
59.00 10.71
60.00 11.00
61.00 11.29
62.00 11.60
63.00 11.90
64.00 12.22
65.00 12.53
66.00 12.86
67.00 13.20
68.00 13.54
69.00 13.90
70.00 14.26
71.00 14.63
72.00 15.01
73.00 15.40
74.00 15.80
75.00 16.20
76.00 16.61
77.00 17.01
78.00 17.43
79.00 17.84
80.00 18.25
81.00 18.65
82.00 19.05
83.00 19.44
84.00 19.83
85.00 20.21
86.00 20.58
87.00 20.95
88.00 21.32
89.00 21.69
90.00 22.06
91.00 22.44
92.00 22.85
93.00 23.27
94.00 23.72
95.00 24.21
96.00 24.75
97.00 25.33
98.00 25.98
99.00 26.71
100.00 27.51
101.00 28.41
102.00 29.43
103.00 30.59
104.00 31.91
105.00 33.45
106.00 35.25
107.00 37.43
108.00 40.15
109.00 43.79
110.00 49.35
111.00 61.84
112.00 54.62
113.00 48.33
114.00 45.29
115.00 43.55
116.00 42.55
117.00 42.08
118.00 42.03
119.00 42.36
120.00 43.05
121.00 44.10
122.00 45.49
123.00 47.00
124.00 48.00
125.00 47.56
126.00 45.89
127.00 43.91
128.00 42.10
129.00 40.56
130.00 39.30
131.00 38.27
132.00 37.43
133.00 36.75
134.00 36.20
135.00 35.75
136.00 35.39
137.00 35.07
138.00 34.79
139.00 34.51
140.00 34.24
141.00 33.95
142.00 33.66
143.00 33.37
144.00 33.08
145.00 32.81
146.00 32.59
147.00 32.41
148.00 32.30
149.00 32.26
150.00 32.32
151.00 32.48
152.00 32.74
153.00 33.13
154.00 33.63
155.00 34.27
156.00 35.02
157.00 35.86
158.00 36.72
159.00 37.45
160.00 37.88
161.00 37.83
162.00 37.32
163.00 36.51
164.00 35.59
165.00 34.70
166.00 33.91
167.00 33.25
168.00 32.74
169.00 32.38
170.00 32.17
171.00 32.11
172.00 32.20
173.00 32.45
174.00 32.86
175.00 33.44
176.00 34.19
177.00 35.13
178.00 36.23
179.00 37.43
180.00 38.56
181.00 39.29
182.00 39.30
183.00 38.59
184.00 37.50
185.00 36.34
186.00 35.29
187.00 34.41
188.00 33.71
189.00 33.21
190.00 32.87
191.00 32.71
192.00 32.72
193.00 32.92
194.00 33.29
195.00 33.87
196.00 34.67
197.00 35.74
198.00 37.16
199.00 39.05
200.00 41.62
201.00 45.36
202.00 50.83
203.00 51.33
204.00 45.87
205.00 42.09
206.00 39.53
207.00 37.67
208.00 36.29
209.00 35.26
210.00 34.48
211.00 33.93
212.00 33.58
213.00 33.39
214.00 33.36
215.00 33.48
216.00 33.77
217.00 34.22
218.00 34.85
219.00 35.68
220.00 36.77
221.00 38.17
222.00 40.00
223.00 42.46
224.00 45.84
225.00 49.70
226.00 48.93
227.00 44.70
228.00 41.27
229.00 38.70
230.00 36.69
231.00 35.07
232.00 33.74
233.00 32.63
234.00 31.69
235.00 30.91
236.00 30.25
237.00 29.70
238.00 29.25
239.00 28.89
240.00 28.62
241.00 28.43
242.00 28.31
243.00 28.25
244.00 28.25
245.00 28.30
246.00 28.38
247.00 28.48
248.00 28.58
249.00 28.66
250.00 28.69
251.00 28.65
252.00 28.54
253.00 28.34
254.00 28.06
255.00 27.71
256.00 27.33
257.00 26.91
258.00 26.49
259.00 26.08
260.00 25.68
261.00 25.31
262.00 24.96
263.00 24.63
264.00 24.33
265.00 24.05
266.00 23.78
267.00 23.51
268.00 23.23
269.00 22.95
270.00 22.64
271.00 22.31
272.00 21.95
273.00 21.56
274.00 21.14
275.00 20.69
276.00 20.22
277.00 19.74
278.00 19.25
279.00 18.76
280.00 18.26
281.00 17.77
282.00 17.29
283.00 16.83
284.00 16.37
285.00 15.93
286.00 15.51
287.00 15.10
288.00 14.71
289.00 14.33
290.00 13.96
291.00 13.61
292.00 13.28
293.00 12.94
294.00 12.63
295.00 12.31
296.00 12.01
297.00 11.70
298.00 11.40
299.00 11.10
300.00 10.80
301.00 10.50
302.00 10.20
303.00 9.89
304.00 9.59
305.00 9.28
306.00 8.97
307.00 8.66
308.00 8.35
309.00 8.03
310.00 7.73
311.00 7.42
312.00 7.11
313.00 6.81
314.00 6.51
315.00 6.21
316.00 5.92
317.00 5.63
318.00 5.34
319.00 5.06
320.00 4.79
321.00 4.52
322.00 4.25
323.00 3.99
324.00 3.73
325.00 3.48
326.00 3.23
327.00 2.99
328.00 2.76
329.00 2.53
330.00 2.31
331.00 2.10
332.00 1.90
333.00 1.70
334.00 1.52
335.00 1.35
336.00 1.18
337.00 1.03
338.00 0.89
339.00 0.76
340.00 0.65
341.00 0.54
342.00 0.44
343.00 0.36
344.00 0.29
345.00 0.23
346.00 0.17
347.00 0.13
348.00 0.09
349.00 0.06
350.00 0.04
351.00 0.02
352.00 0.01
353.00 0.00
354.00 0.00
355.00 0.00
356.00 0.00
357.00 0.01
358.00 0.02
359.00 0.03
VERTICAL 360
0.00 16.93
1.00 11.90
2.00 7.47
3.00 4.13
4.00 1.84
5.00 0.48
6.00 0.00
7.00 0.35
8.00 1.62
9.00 4.03
10.00 8.30
11.00 17.15
12.00 23.69
13.00 14.22
14.00 12.43
15.00 13.32
16.00 15.91
17.00 18.48
18.00 17.96
19.00 16.19
20.00 15.45
21.00 16.36
22.00 19.50
23.00 24.67
24.00 22.45
25.00 19.12
26.00 18.59
27.00 20.20
28.00 22.58
29.00 22.86
30.00 21.69
31.00 20.58
32.00 19.46
33.00 18.82
34.00 19.38
35.00 21.78
36.00 26.67
37.00 29.09
38.00 24.44
39.00 21.75
40.00 20.78
41.00 20.90
42.00 21.72
43.00 22.94
44.00 24.41
45.00 26.31
46.00 29.06
47.00 32.27
48.00 32.93
49.00 31.47
50.00 30.99
51.00 31.87
52.00 32.32
53.00 29.96
54.00 27.28
55.00 25.90
56.00 25.83
57.00 26.84
58.00 28.63
59.00 30.99
60.00 34.12
61.00 39.20
62.00 53.26
63.00 42.64
64.00 36.58
65.00 34.24
66.00 33.65
67.00 33.93
68.00 34.32
69.00 34.36
70.00 34.16
71.00 34.21
72.00 34.94
73.00 36.38
74.00 38.09
75.00 39.37
76.00 39.96
77.00 40.93
78.00 44.16
79.00 53.07
80.00 52.20
81.00 48.72
82.00 52.33
83.00 62.42
84.00 56.50
85.00 52.79
86.00 45.32
87.00 41.14
88.00 40.20
89.00 42.76
90.00 52.83
91.00 50.88
92.00 46.18
93.00 49.20
94.00 49.94
95.00 44.69
96.00 44.48
97.00 48.52
98.00 50.34
99.00 48.29
100.00 49.13
101.00 50.06
102.00 50.66
103.00 49.80
104.00 45.97
105.00 44.37
106.00 45.19
107.00 45.72
108.00 44.68
109.00 44.84
110.00 47.19
111.00 51.33
112.00 53.75
113.00 53.91
114.00 54.58
115.00 51.18
116.00 48.78
117.00 50.53
118.00 54.31
119.00 47.96
120.00 44.52
121.00 44.17
122.00 46.53
123.00 53.63
124.00 62.49
125.00 52.87
126.00 54.29
127.00 54.65
128.00 48.26
129.00 45.10
130.00 43.28
131.00 42.55
132.00 43.89
133.00 47.99
134.00 51.38
135.00 50.00
136.00 47.97
137.00 45.73
138.00 46.00
139.00 46.29
140.00 40.51
141.00 36.26
142.00 34.19
143.00 33.61
144.00 33.99
145.00 35.03
146.00 36.67
147.00 39.00
148.00 41.12
149.00 40.89
150.00 39.72
151.00 39.70
152.00 41.07
153.00 41.57
154.00 39.18
155.00 37.41
156.00 37.44
157.00 38.43
158.00 38.71
159.00 38.28
160.00 37.82
161.00 37.60
162.00 38.38
163.00 39.86
164.00 39.22
165.00 38.01
166.00 39.02
167.00 42.26
168.00 43.73
169.00 44.33
170.00 52.67
171.00 44.44
172.00 37.07
173.00 34.13
174.00 33.44
175.00 33.95
176.00 34.39
177.00 33.97
178.00 34.07
179.00 36.04
180.00 40.00
181.00 39.17
182.00 35.26
183.00 33.39
184.00 33.40
185.00 35.11
186.00 38.09
187.00 39.61
188.00 39.14
189.00 40.28
190.00 44.47
191.00 47.60
192.00 44.47
193.00 43.25
194.00 42.36
195.00 40.79
196.00 40.71
197.00 43.42
198.00 44.39
199.00 40.23
200.00 38.80
201.00 40.69
202.00 44.78
203.00 43.94
204.00 42.80
205.00 45.79
206.00 54.89
207.00 51.76
208.00 51.67
209.00 50.98
210.00 42.06
211.00 37.68
212.00 35.87
213.00 35.32
214.00 34.75
215.00 33.79
216.00 33.30
217.00 33.90
218.00 35.73
219.00 38.52
220.00 42.12
221.00 49.26
222.00 53.97
223.00 44.46
224.00 44.50
225.00 56.16
226.00 42.60
227.00 37.22
228.00 36.29
229.00 38.16
230.00 39.29
231.00 35.87
232.00 32.98
233.00 31.84
234.00 32.50
235.00 35.34
236.00 41.06
237.00 44.15
238.00 40.55
239.00 39.28
240.00 39.29
241.00 39.30
242.00 39.41
243.00 40.46
244.00 42.57
245.00 44.32
246.00 43.54
247.00 40.78
248.00 38.06
249.00 36.47
250.00 36.20
251.00 37.32
252.00 40.06
253.00 43.17
254.00 41.06
255.00 37.00
256.00 33.40
257.00 30.39
258.00 28.14
259.00 26.56
260.00 25.41
261.00 24.41
262.00 23.44
263.00 22.50
264.00 21.67
265.00 21.01
266.00 20.51
267.00 20.12
268.00 19.79
269.00 19.56
270.00 19.46
271.00 19.49
272.00 19.61
273.00 19.73
274.00 19.84
275.00 20.05
276.00 20.48
277.00 21.22
278.00 22.22
279.00 23.25
280.00 23.98
281.00 24.12
282.00 23.73
283.00 23.11
284.00 22.59
285.00 22.40
286.00 22.62
287.00 23.28
288.00 24.42
289.00 26.22
290.00 29.06
291.00 33.51
292.00 36.76
293.00 33.46
294.00 30.99
295.00 30.48
296.00 31.53
297.00 33.20
298.00 32.70
299.00 30.26
300.00 28.67
301.00 28.83
302.00 31.14
303.00 35.13
304.00 33.87
305.00 30.27
306.00 28.04
307.00 26.35
308.00 24.99
309.00 24.58
310.00 25.90
311.00 30.31
312.00 37.90
313.00 30.15
314.00 26.76
315.00 26.39
316.00 26.84
317.00 26.13
318.00 25.65
319.00 27.23
320.00 28.53
321.00 23.86
322.00 20.00
323.00 18.18
324.00 17.95
325.00 19.00
326.00 21.06
327.00 23.29
328.00 23.38
329.00 21.26
330.00 19.31
331.00 18.36
332.00 18.59
333.00 20.18
334.00 23.21
335.00 26.11
336.00 25.46
337.00 24.28
338.00 24.61
339.00 26.06
340.00 26.35
341.00 23.46
342.00 20.53
343.00 19.36
344.00 20.56
345.00 25.64
346.00 37.30
347.00 24.85
348.00 21.54
349.00 21.66
350.00 24.73
351.00 35.05
352.00 29.10
353.00 21.61
354.00 18.64
355.00 17.76
356.00 18.08
357.00 18.86
358.00 19.65
359.00 19.84
