NAME ATR4518R7_2140_X_CO_M45_03T_yL
FREQUENCY 2140
GAIN 16.10 dBd
TILT	ELECTRICAL
COMMENT DATE 05.08.2013 -45 degrees polarized system Lever position 03T deg
HORIZONTAL 360
0.00 0.04
1.00 0.07
2.00 0.10
3.00 0.14
4.00 0.18
5.00 0.22
6.00 0.27
7.00 0.34
8.00 0.40
9.00 0.48
10.00 0.56
11.00 0.65
12.00 0.75
13.00 0.85
14.00 0.97
15.00 1.10
16.00 1.22
17.00 1.37
18.00 1.51
19.00 1.68
20.00 1.84
21.00 2.01
22.00 2.19
23.00 2.37
24.00 2.57
25.00 2.76
26.00 2.96
27.00 3.17
28.00 3.38
29.00 3.59
30.00 3.80
31.00 4.03
32.00 4.25
33.00 4.47
34.00 4.70
35.00 4.93
36.00 5.16
37.00 5.40
38.00 5.63
39.00 5.87
40.00 6.10
41.00 6.34
42.00 6.58
43.00 6.82
44.00 7.06
45.00 7.30
46.00 7.55
47.00 7.79
48.00 8.03
49.00 8.27
50.00 8.51
51.00 8.75
52.00 8.99
53.00 9.23
54.00 9.47
55.00 9.73
56.00 9.99
57.00 10.24
58.00 10.50
59.00 10.78
60.00 11.05
61.00 11.33
62.00 11.63
63.00 11.93
64.00 12.23
65.00 12.56
66.00 12.89
67.00 13.23
68.00 13.60
69.00 13.97
70.00 14.36
71.00 14.76
72.00 15.18
73.00 15.62
74.00 16.07
75.00 16.54
76.00 17.01
77.00 17.51
78.00 18.01
79.00 18.52
80.00 19.03
81.00 19.56
82.00 20.07
83.00 20.59
84.00 21.10
85.00 21.60
86.00 22.09
87.00 22.58
88.00 23.05
89.00 23.52
90.00 23.98
91.00 24.44
92.00 24.92
93.00 25.41
94.00 25.93
95.00 26.49
96.00 27.09
97.00 27.77
98.00 28.51
99.00 29.36
100.00 30.33
101.00 31.45
102.00 32.74
103.00 34.27
104.00 36.12
105.00 38.36
106.00 41.19
107.00 44.73
108.00 47.98
109.00 47.33
110.00 44.40
111.00 41.91
112.00 40.10
113.00 38.83
114.00 37.95
115.00 37.41
116.00 37.13
117.00 37.09
118.00 37.27
119.00 37.66
120.00 38.24
121.00 38.99
122.00 39.86
123.00 40.75
124.00 41.46
125.00 41.74
126.00 41.45
127.00 40.70
128.00 39.75
129.00 38.76
130.00 37.86
131.00 37.08
132.00 36.43
133.00 35.90
134.00 35.47
135.00 35.12
136.00 34.82
137.00 34.55
138.00 34.28
139.00 33.98
140.00 33.65
141.00 33.28
142.00 32.89
143.00 32.49
144.00 32.09
145.00 31.73
146.00 31.42
147.00 31.17
148.00 31.00
149.00 30.92
150.00 30.95
151.00 31.08
152.00 31.33
153.00 31.70
154.00 32.20
155.00 32.81
156.00 33.51
157.00 34.24
158.00 34.89
159.00 35.31
160.00 35.35
161.00 34.95
162.00 34.22
163.00 33.33
164.00 32.41
165.00 31.56
166.00 30.82
167.00 30.21
168.00 29.73
169.00 29.39
170.00 29.19
171.00 29.12
172.00 29.19
173.00 29.39
174.00 29.74
175.00 30.24
176.00 30.89
177.00 31.69
178.00 32.64
179.00 33.71
180.00 34.80
181.00 35.73
182.00 36.25
183.00 36.17
184.00 35.55
185.00 34.65
186.00 33.70
187.00 32.84
188.00 32.11
189.00 31.55
190.00 31.14
191.00 30.90
192.00 30.82
193.00 30.91
194.00 31.16
195.00 31.59
196.00 32.21
197.00 33.06
198.00 34.17
199.00 35.61
200.00 37.50
201.00 40.08
202.00 43.84
203.00 49.96
204.00 52.68
205.00 45.86
206.00 41.64
207.00 38.91
208.00 36.99
209.00 35.58
210.00 34.54
211.00 33.78
212.00 33.25
213.00 32.92
214.00 32.77
215.00 32.79
216.00 32.99
217.00 33.36
218.00 33.94
219.00 34.74
220.00 35.82
221.00 37.26
222.00 39.23
223.00 42.03
224.00 46.44
225.00 53.76
226.00 49.61
227.00 43.42
228.00 39.64
229.00 36.98
230.00 34.97
231.00 33.38
232.00 32.09
233.00 31.04
234.00 30.17
235.00 29.47
236.00 28.90
237.00 28.45
238.00 28.12
239.00 27.89
240.00 27.75
241.00 27.71
242.00 27.76
243.00 27.88
244.00 28.07
245.00 28.32
246.00 28.60
247.00 28.88
248.00 29.15
249.00 29.33
250.00 29.41
251.00 29.35
252.00 29.13
253.00 28.77
254.00 28.31
255.00 27.78
256.00 27.22
257.00 26.66
258.00 26.12
259.00 25.62
260.00 25.13
261.00 24.69
262.00 24.28
263.00 23.89
264.00 23.52
265.00 23.16
266.00 22.80
267.00 22.44
268.00 22.07
269.00 21.67
270.00 21.27
271.00 20.85
272.00 20.40
273.00 19.96
274.00 19.50
275.00 19.03
276.00 18.57
277.00 18.11
278.00 17.67
279.00 17.24
280.00 16.81
281.00 16.42
282.00 16.03
283.00 15.65
284.00 15.31
285.00 14.97
286.00 14.64
287.00 14.34
288.00 14.04
289.00 13.75
290.00 13.47
291.00 13.20
292.00 12.92
293.00 12.65
294.00 12.37
295.00 12.09
296.00 11.81
297.00 11.52
298.00 11.22
299.00 10.91
300.00 10.61
301.00 10.29
302.00 9.98
303.00 9.65
304.00 9.34
305.00 9.02
306.00 8.72
307.00 8.41
308.00 8.11
309.00 7.82
310.00 7.53
311.00 7.24
312.00 6.96
313.00 6.67
314.00 6.39
315.00 6.12
316.00 5.85
317.00 5.58
318.00 5.32
319.00 5.05
320.00 4.79
321.00 4.54
322.00 4.29
323.00 4.04
324.00 3.79
325.00 3.56
326.00 3.31
327.00 3.09
328.00 2.87
329.00 2.65
330.00 2.45
331.00 2.24
332.00 2.05
333.00 1.87
334.00 1.69
335.00 1.53
336.00 1.37
337.00 1.22
338.00 1.08
339.00 0.96
340.00 0.83
341.00 0.72
342.00 0.62
343.00 0.52
344.00 0.44
345.00 0.36
346.00 0.29
347.00 0.23
348.00 0.18
349.00 0.14
350.00 0.10
351.00 0.06
352.00 0.04
353.00 0.02
354.00 0.00
355.00 0.00
356.00 0.00
357.00 0.00
358.00 0.01
359.00 0.02
VERTICAL 360
0.00 4.19
1.00 1.85
2.00 0.48
3.00 0.00
4.00 0.38
5.00 1.71
6.00 4.24
7.00 8.52
8.00 16.65
9.00 24.51
10.00 15.54
11.00 13.66
12.00 14.81
13.00 18.36
14.00 20.62
15.00 17.82
16.00 16.23
17.00 16.80
18.00 19.41
19.00 24.15
20.00 27.06
21.00 22.81
22.00 19.79
23.00 18.89
24.00 20.04
25.00 23.14
26.00 23.89
27.00 20.36
28.00 18.09
29.00 17.48
30.00 18.15
31.00 19.84
32.00 22.54
33.00 26.40
34.00 30.13
35.00 29.50
36.00 27.46
37.00 25.87
38.00 24.09
39.00 22.37
40.00 21.43
41.00 21.66
42.00 23.22
43.00 26.35
44.00 31.28
45.00 36.20
46.00 35.39
47.00 33.27
48.00 31.36
49.00 29.46
50.00 27.97
51.00 27.23
52.00 27.38
53.00 28.53
54.00 30.99
55.00 35.22
56.00 38.92
57.00 35.52
58.00 32.47
59.00 31.06
60.00 30.64
61.00 30.70
62.00 30.93
63.00 31.30
64.00 31.97
65.00 33.13
66.00 34.86
67.00 37.04
68.00 39.38
69.00 41.61
70.00 44.05
71.00 47.95
72.00 58.00
73.00 55.93
74.00 48.59
75.00 46.40
76.00 45.73
77.00 44.93
78.00 43.33
79.00 41.22
80.00 39.63
81.00 39.50
82.00 41.52
83.00 45.76
84.00 46.64
85.00 45.15
86.00 47.85
87.00 52.37
88.00 44.52
89.00 41.25
90.00 41.20
91.00 43.43
92.00 46.89
93.00 48.70
94.00 46.65
95.00 43.41
96.00 41.19
97.00 40.34
98.00 40.60
99.00 41.56
100.00 42.62
101.00 43.22
102.00 43.72
103.00 45.04
104.00 47.80
105.00 51.75
106.00 55.12
107.00 57.54
108.00 60.07
109.00 59.78
110.00 56.65
111.00 53.46
112.00 51.46
113.00 50.78
114.00 50.96
115.00 51.63
116.00 52.83
117.00 55.16
118.00 60.10
119.00 60.78
120.00 54.50
121.00 52.49
122.00 53.29
123.00 51.99
124.00 48.32
125.00 46.58
126.00 47.25
127.00 50.80
128.00 63.07
129.00 54.28
130.00 46.67
131.00 43.28
132.00 41.86
133.00 41.68
134.00 42.11
135.00 42.46
136.00 42.78
137.00 44.28
138.00 49.45
139.00 50.75
140.00 41.76
141.00 37.52
142.00 35.47
143.00 34.72
144.00 34.82
145.00 35.50
146.00 36.49
147.00 37.66
148.00 39.19
149.00 40.59
150.00 39.66
151.00 37.67
152.00 37.08
153.00 38.60
154.00 42.42
155.00 46.65
156.00 47.48
157.00 49.73
158.00 55.06
159.00 54.65
160.00 47.44
161.00 41.61
162.00 38.66
163.00 38.25
164.00 39.71
165.00 40.75
166.00 40.29
167.00 41.17
168.00 44.28
169.00 45.55
170.00 44.63
171.00 47.65
172.00 49.46
173.00 40.65
174.00 36.16
175.00 33.74
176.00 32.17
177.00 30.89
178.00 30.12
179.00 30.45
180.00 32.43
181.00 36.33
182.00 38.70
183.00 36.58
184.00 35.61
185.00 36.35
186.00 37.50
187.00 37.58
188.00 37.13
189.00 37.57
190.00 39.72
191.00 44.41
192.00 51.59
193.00 49.75
194.00 46.73
195.00 45.91
196.00 47.04
197.00 48.84
198.00 46.61
199.00 43.89
200.00 43.09
201.00 43.83
202.00 45.26
203.00 45.89
204.00 45.16
205.00 44.75
206.00 45.90
207.00 48.89
208.00 51.84
209.00 48.10
210.00 43.05
211.00 39.94
212.00 38.72
213.00 39.11
214.00 39.97
215.00 38.62
216.00 35.88
217.00 33.98
218.00 33.36
219.00 33.91
220.00 35.40
221.00 37.71
222.00 41.28
223.00 48.14
224.00 57.21
225.00 47.53
226.00 44.65
227.00 43.50
228.00 42.47
229.00 41.85
230.00 42.33
231.00 42.65
232.00 39.80
233.00 36.54
234.00 34.84
235.00 34.77
236.00 36.05
237.00 38.11
238.00 39.65
239.00 39.59
240.00 38.71
241.00 38.25
242.00 38.85
243.00 40.83
244.00 44.20
245.00 48.10
246.00 50.10
247.00 50.48
248.00 49.75
249.00 47.86
250.00 47.19
251.00 49.69
252.00 55.22
253.00 46.53
254.00 41.01
255.00 37.91
256.00 35.85
257.00 34.16
258.00 32.69
259.00 31.53
260.00 30.72
261.00 30.15
262.00 29.60
263.00 28.94
264.00 28.20
265.00 27.50
266.00 26.97
267.00 26.62
268.00 26.39
269.00 26.26
270.00 26.22
271.00 26.27
272.00 26.35
273.00 26.45
274.00 26.61
275.00 26.94
276.00 27.52
277.00 28.42
278.00 29.56
279.00 30.72
280.00 31.62
281.00 32.30
282.00 32.99
283.00 33.80
284.00 34.59
285.00 34.93
286.00 34.36
287.00 32.86
288.00 30.97
289.00 29.35
290.00 28.34
291.00 28.08
292.00 28.60
293.00 30.01
294.00 32.58
295.00 37.10
296.00 44.03
297.00 40.22
298.00 35.93
299.00 33.93
300.00 32.58
301.00 30.88
302.00 29.08
303.00 27.90
304.00 27.70
305.00 28.59
306.00 30.60
307.00 34.01
308.00 41.19
309.00 41.36
310.00 32.20
311.00 28.27
312.00 26.97
313.00 27.77
314.00 30.08
315.00 29.76
316.00 26.22
317.00 23.46
318.00 21.64
319.00 20.27
320.00 19.30
321.00 19.05
322.00 19.87
323.00 21.88
324.00 24.10
325.00 23.60
326.00 21.66
327.00 20.56
328.00 20.38
329.00 20.51
330.00 20.26
331.00 19.61
332.00 19.15
333.00 19.49
334.00 21.14
335.00 24.80
336.00 28.73
337.00 24.43
338.00 20.83
339.00 19.60
340.00 20.45
341.00 24.03
342.00 35.27
343.00 28.93
344.00 22.33
345.00 20.30
346.00 21.04
347.00 25.39
348.00 34.26
349.00 23.51
350.00 19.05
351.00 17.58
352.00 18.01
353.00 19.87
354.00 22.16
355.00 24.30
356.00 31.23
357.00 22.72
358.00 13.24
359.00 7.77
