NAME ATR4518R7_1750_X_CO_P45_08T_yL
FREQUENCY 1750
GAIN 14.97 dBd
TILT	ELECTRICAL
COMMENT DATE 05.08.2013 +45 degrees polarized system Lever position 08T deg
HORIZONTAL 360
0.00 0.00
1.00 0.00
2.00 0.00
3.00 0.02
4.00 0.04
5.00 0.07
6.00 0.10
7.00 0.14
8.00 0.19
9.00 0.24
10.00 0.29
11.00 0.35
12.00 0.42
13.00 0.49
14.00 0.56
15.00 0.63
16.00 0.71
17.00 0.79
18.00 0.88
19.00 0.97
20.00 1.06
21.00 1.16
22.00 1.26
23.00 1.37
24.00 1.48
25.00 1.60
26.00 1.72
27.00 1.84
28.00 1.97
29.00 2.11
30.00 2.25
31.00 2.40
32.00 2.55
33.00 2.71
34.00 2.88
35.00 3.05
36.00 3.23
37.00 3.41
38.00 3.60
39.00 3.79
40.00 3.99
41.00 4.19
42.00 4.39
43.00 4.60
44.00 4.81
45.00 5.02
46.00 5.24
47.00 5.46
48.00 5.69
49.00 5.91
50.00 6.14
51.00 6.37
52.00 6.60
53.00 6.84
54.00 7.07
55.00 7.32
56.00 7.56
57.00 7.81
58.00 8.06
59.00 8.32
60.00 8.58
61.00 8.84
62.00 9.11
63.00 9.39
64.00 9.67
65.00 9.96
66.00 10.26
67.00 10.56
68.00 10.87
69.00 11.19
70.00 11.52
71.00 11.85
72.00 12.19
73.00 12.54
74.00 12.89
75.00 13.25
76.00 13.62
77.00 14.00
78.00 14.37
79.00 14.76
80.00 15.14
81.00 15.53
82.00 15.92
83.00 16.31
84.00 16.69
85.00 17.08
86.00 17.45
87.00 17.83
88.00 18.20
89.00 18.57
90.00 18.93
91.00 19.29
92.00 19.64
93.00 19.99
94.00 20.33
95.00 20.68
96.00 21.02
97.00 21.37
98.00 21.72
99.00 22.08
100.00 22.44
101.00 22.80
102.00 23.17
103.00 23.55
104.00 23.93
105.00 24.32
106.00 24.71
107.00 25.11
108.00 25.50
109.00 25.89
110.00 26.28
111.00 26.67
112.00 27.06
113.00 27.44
114.00 27.83
115.00 28.22
116.00 28.61
117.00 29.01
118.00 29.42
119.00 29.84
120.00 30.26
121.00 30.69
122.00 31.11
123.00 31.50
124.00 31.86
125.00 32.14
126.00 32.34
127.00 32.44
128.00 32.42
129.00 32.29
130.00 32.09
131.00 31.83
132.00 31.54
133.00 31.26
134.00 30.99
135.00 30.77
136.00 30.60
137.00 30.50
138.00 30.48
139.00 30.54
140.00 30.69
141.00 30.94
142.00 31.31
143.00 31.79
144.00 32.41
145.00 33.20
146.00 34.17
147.00 35.38
148.00 36.87
149.00 38.78
150.00 41.28
151.00 44.74
152.00 49.78
153.00 52.99
154.00 48.09
155.00 44.04
156.00 41.36
157.00 39.49
158.00 38.14
159.00 37.17
160.00 36.50
161.00 36.08
162.00 35.89
163.00 35.92
164.00 36.15
165.00 36.60
166.00 37.28
167.00 38.23
168.00 39.48
169.00 41.07
170.00 42.91
171.00 44.62
172.00 45.06
173.00 43.66
174.00 41.52
175.00 39.48
176.00 37.74
177.00 36.32
178.00 35.16
179.00 34.22
180.00 33.48
181.00 32.91
182.00 32.50
183.00 32.24
184.00 32.11
185.00 32.12
186.00 32.26
187.00 32.55
188.00 32.98
189.00 33.56
190.00 34.32
191.00 35.25
192.00 36.36
193.00 37.63
194.00 38.95
195.00 40.00
196.00 40.28
197.00 39.59
198.00 38.25
199.00 36.74
200.00 35.30
201.00 34.02
202.00 32.91
203.00 31.96
204.00 31.16
205.00 30.48
206.00 29.92
207.00 29.47
208.00 29.11
209.00 28.85
210.00 28.67
211.00 28.57
212.00 28.56
213.00 28.62
214.00 28.77
215.00 29.01
216.00 29.33
217.00 29.76
218.00 30.29
219.00 30.95
220.00 31.76
221.00 32.75
222.00 33.98
223.00 35.51
224.00 37.51
225.00 40.23
226.00 44.43
227.00 53.10
228.00 54.55
229.00 44.78
230.00 40.25
231.00 37.30
232.00 35.14
233.00 33.44
234.00 32.07
235.00 30.93
236.00 29.98
237.00 29.17
238.00 28.48
239.00 27.90
240.00 27.40
241.00 26.98
242.00 26.62
243.00 26.32
244.00 26.07
245.00 25.86
246.00 25.67
247.00 25.51
248.00 25.36
249.00 25.22
250.00 25.08
251.00 24.93
252.00 24.76
253.00 24.57
254.00 24.36
255.00 24.12
256.00 23.87
257.00 23.59
258.00 23.29
259.00 22.98
260.00 22.67
261.00 22.34
262.00 22.02
263.00 21.69
264.00 21.36
265.00 21.04
266.00 20.72
267.00 20.40
268.00 20.09
269.00 19.78
270.00 19.47
271.00 19.16
272.00 18.84
273.00 18.52
274.00 18.20
275.00 17.87
276.00 17.54
277.00 17.20
278.00 16.86
279.00 16.50
280.00 16.15
281.00 15.79
282.00 15.42
283.00 15.06
284.00 14.69
285.00 14.32
286.00 13.96
287.00 13.59
288.00 13.23
289.00 12.88
290.00 12.53
291.00 12.19
292.00 11.85
293.00 11.52
294.00 11.20
295.00 10.89
296.00 10.58
297.00 10.29
298.00 10.00
299.00 9.73
300.00 9.46
301.00 9.20
302.00 8.94
303.00 8.70
304.00 8.46
305.00 8.23
306.00 8.01
307.00 7.80
308.00 7.59
309.00 7.39
310.00 7.19
311.00 7.00
312.00 6.82
313.00 6.64
314.00 6.46
315.00 6.29
316.00 6.11
317.00 5.95
318.00 5.78
319.00 5.62
320.00 5.45
321.00 5.29
322.00 5.12
323.00 4.96
324.00 4.79
325.00 4.62
326.00 4.45
327.00 4.27
328.00 4.10
329.00 3.92
330.00 3.74
331.00 3.56
332.00 3.37
333.00 3.19
334.00 3.00
335.00 2.82
336.00 2.64
337.00 2.45
338.00 2.27
339.00 2.10
340.00 1.92
341.00 1.75
342.00 1.59
343.00 1.43
344.00 1.28
345.00 1.13
346.00 1.00
347.00 0.87
348.00 0.74
349.00 0.63
350.00 0.53
351.00 0.43
352.00 0.35
353.00 0.27
354.00 0.20
355.00 0.15
356.00 0.10
357.00 0.06
358.00 0.03
359.00 0.01
VERTICAL 360
0.00 23.93
1.00 23.28
2.00 14.90
3.00 9.35
4.00 5.62
5.00 3.04
6.00 1.33
7.00 0.33
8.00 0.00
9.00 0.30
10.00 1.29
11.00 3.06
12.00 5.86
13.00 10.37
14.00 19.29
15.00 24.20
16.00 15.03
17.00 12.42
18.00 12.17
19.00 13.70
20.00 17.31
21.00 25.22
22.00 28.01
23.00 19.77
24.00 16.66
25.00 15.66
26.00 16.11
27.00 17.82
28.00 20.36
29.00 21.52
30.00 19.90
31.00 18.00
32.00 16.92
33.00 16.79
34.00 17.74
35.00 20.06
36.00 23.80
37.00 24.76
38.00 21.32
39.00 18.83
40.00 17.54
41.00 16.86
42.00 16.42
43.00 16.24
44.00 16.59
45.00 17.74
46.00 19.98
47.00 23.70
48.00 29.64
49.00 35.47
50.00 30.65
51.00 26.53
52.00 23.68
53.00 21.74
54.00 20.70
55.00 20.47
56.00 20.86
57.00 21.47
58.00 21.94
59.00 22.33
60.00 22.95
61.00 23.98
62.00 25.30
63.00 26.49
64.00 27.17
65.00 27.46
66.00 27.72
67.00 28.18
68.00 28.73
69.00 29.14
70.00 29.29
71.00 29.30
72.00 29.48
73.00 29.98
74.00 30.73
75.00 31.40
76.00 31.65
77.00 31.55
78.00 31.57
79.00 32.24
80.00 33.84
81.00 36.33
82.00 39.20
83.00 41.77
84.00 43.84
85.00 46.10
86.00 51.92
87.00 56.94
88.00 44.55
89.00 40.14
90.00 37.74
91.00 36.08
92.00 35.24
93.00 35.83
94.00 38.46
95.00 43.23
96.00 43.93
97.00 40.76
98.00 39.05
99.00 38.34
100.00 38.50
101.00 39.79
102.00 41.99
103.00 43.71
104.00 43.83
105.00 43.23
106.00 42.65
107.00 42.61
108.00 43.40
109.00 44.58
110.00 45.19
111.00 45.05
112.00 44.39
113.00 43.28
114.00 42.08
115.00 41.09
116.00 40.34
117.00 39.85
118.00 39.60
119.00 39.25
120.00 38.33
121.00 36.92
122.00 35.52
123.00 34.42
124.00 33.72
125.00 33.40
126.00 33.37
127.00 33.58
128.00 34.03
129.00 34.80
130.00 35.81
131.00 36.93
132.00 38.19
133.00 39.78
134.00 41.59
135.00 42.95
136.00 43.76
137.00 45.17
138.00 48.54
139.00 57.74
140.00 53.65
141.00 44.99
142.00 40.43
143.00 37.50
144.00 35.60
145.00 34.53
146.00 34.13
147.00 34.25
148.00 34.86
149.00 36.23
150.00 39.19
151.00 46.43
152.00 51.80
153.00 40.15
154.00 35.87
155.00 33.71
156.00 32.73
157.00 32.63
158.00 33.28
159.00 34.39
160.00 35.18
161.00 35.04
162.00 34.61
163.00 34.73
164.00 35.55
165.00 36.81
166.00 37.93
167.00 38.10
168.00 36.74
169.00 34.72
170.00 33.18
171.00 32.54
172.00 32.91
173.00 34.34
174.00 36.76
175.00 40.13
176.00 44.52
177.00 49.93
178.00 50.92
179.00 46.19
180.00 43.31
181.00 42.68
182.00 44.38
183.00 46.75
184.00 43.31
185.00 39.60
186.00 37.95
187.00 37.74
188.00 37.93
189.00 37.68
190.00 37.69
191.00 39.20
192.00 41.84
193.00 39.73
194.00 35.97
195.00 34.27
196.00 34.67
197.00 37.29
198.00 42.94
199.00 50.98
200.00 45.92
201.00 41.42
202.00 37.58
203.00 34.67
204.00 33.13
205.00 33.04
206.00 34.61
207.00 38.45
208.00 43.65
209.00 39.08
210.00 34.94
211.00 33.08
212.00 32.67
213.00 33.20
214.00 34.17
215.00 35.03
216.00 35.67
217.00 36.45
218.00 37.69
219.00 39.21
220.00 40.30
221.00 40.18
222.00 39.18
223.00 38.38
224.00 38.67
225.00 40.70
226.00 45.62
227.00 52.14
228.00 44.53
229.00 40.15
230.00 38.19
231.00 37.94
232.00 39.45
233.00 43.34
234.00 51.21
235.00 47.42
236.00 41.48
237.00 38.21
238.00 36.27
239.00 35.33
240.00 35.41
241.00 36.69
242.00 39.59
243.00 45.35
244.00 67.40
245.00 47.65
246.00 42.00
247.00 39.18
248.00 37.71
249.00 37.20
250.00 37.39
251.00 37.82
252.00 37.96
253.00 37.90
254.00 38.45
255.00 40.44
256.00 44.79
257.00 55.69
258.00 52.59
259.00 44.48
260.00 41.16
261.00 39.94
262.00 39.55
263.00 38.46
264.00 36.87
265.00 35.93
266.00 35.70
267.00 35.40
268.00 34.26
269.00 32.44
270.00 30.57
271.00 29.24
272.00 28.79
273.00 29.37
274.00 30.93
275.00 33.21
276.00 35.60
277.00 37.14
278.00 37.42
279.00 37.06
280.00 36.54
281.00 35.52
282.00 33.67
283.00 31.58
284.00 29.75
285.00 28.24
286.00 26.87
287.00 25.49
288.00 24.12
289.00 22.98
290.00 22.25
291.00 22.02
292.00 22.25
293.00 22.85
294.00 23.67
295.00 24.61
296.00 25.62
297.00 26.77
298.00 28.17
299.00 29.68
300.00 30.02
301.00 28.04
302.00 25.45
303.00 23.52
304.00 22.46
305.00 22.17
306.00 22.57
307.00 23.65
308.00 25.58
309.00 29.15
310.00 37.24
311.00 33.06
312.00 25.60
313.00 21.87
314.00 20.00
315.00 19.40
316.00 19.83
317.00 21.21
318.00 23.75
319.00 28.23
320.00 30.82
321.00 24.07
322.00 19.39
323.00 16.66
324.00 15.28
325.00 14.95
326.00 15.55
327.00 17.05
328.00 19.57
329.00 23.25
330.00 26.63
331.00 25.62
332.00 23.70
333.00 23.25
334.00 24.39
335.00 27.32
336.00 33.29
337.00 49.69
338.00 34.75
339.00 30.39
340.00 29.34
341.00 30.70
342.00 33.36
343.00 30.40
344.00 25.99
345.00 23.61
346.00 22.99
347.00 23.87
348.00 25.18
349.00 23.43
350.00 19.87
351.00 17.31
352.00 16.14
353.00 16.39
354.00 18.29
355.00 22.82
356.00 37.14
357.00 27.73
358.00 22.11
359.00 21.20
