NAME ATR4518R7_0894_X_CO_M45_03T
FREQUENCY 0894
GAIN 14.86 dBd
TILT	ELECTRICAL
COMMENT DATE 05.08.2013 -45 degrees polarized system Lever position 03T deg
HORIZONTAL 360
0.00 0.02
1.00 0.00
2.00 0.00
3.00 0.00
4.00 0.01
5.00 0.02
6.00 0.05
7.00 0.07
8.00 0.11
9.00 0.15
10.00 0.20
11.00 0.25
12.00 0.31
13.00 0.38
14.00 0.45
15.00 0.54
16.00 0.62
17.00 0.72
18.00 0.82
19.00 0.93
20.00 1.05
21.00 1.17
22.00 1.30
23.00 1.43
24.00 1.58
25.00 1.73
26.00 1.88
27.00 2.05
28.00 2.22
29.00 2.40
30.00 2.58
31.00 2.77
32.00 2.97
33.00 3.18
34.00 3.39
35.00 3.61
36.00 3.83
37.00 4.07
38.00 4.31
39.00 4.56
40.00 4.81
41.00 5.07
42.00 5.34
43.00 5.62
44.00 5.90
45.00 6.19
46.00 6.49
47.00 6.79
48.00 7.10
49.00 7.42
50.00 7.74
51.00 8.07
52.00 8.41
53.00 8.75
54.00 9.11
55.00 9.46
56.00 9.83
57.00 10.20
58.00 10.58
59.00 10.96
60.00 11.36
61.00 11.75
62.00 12.16
63.00 12.57
64.00 12.98
65.00 13.40
66.00 13.83
67.00 14.26
68.00 14.70
69.00 15.14
70.00 15.58
71.00 16.03
72.00 16.48
73.00 16.93
74.00 17.39
75.00 17.85
76.00 18.30
77.00 18.76
78.00 19.21
79.00 19.66
80.00 20.11
81.00 20.55
82.00 20.99
83.00 21.42
84.00 21.84
85.00 22.25
86.00 22.65
87.00 23.04
88.00 23.42
89.00 23.79
90.00 24.14
91.00 24.49
92.00 24.82
93.00 25.14
94.00 25.45
95.00 25.75
96.00 26.04
97.00 26.32
98.00 26.59
99.00 26.86
100.00 27.13
101.00 27.39
102.00 27.65
103.00 27.91
104.00 28.17
105.00 28.42
106.00 28.68
107.00 28.94
108.00 29.21
109.00 29.47
110.00 29.74
111.00 30.02
112.00 30.29
113.00 30.57
114.00 30.84
115.00 31.12
116.00 31.40
117.00 31.68
118.00 31.96
119.00 32.24
120.00 32.52
121.00 32.78
122.00 33.05
123.00 33.31
124.00 33.55
125.00 33.79
126.00 34.01
127.00 34.22
128.00 34.41
129.00 34.59
130.00 34.75
131.00 34.89
132.00 35.01
133.00 35.11
134.00 35.18
135.00 35.24
136.00 35.27
137.00 35.29
138.00 35.28
139.00 35.26
140.00 35.22
141.00 35.17
142.00 35.10
143.00 35.02
144.00 34.93
145.00 34.83
146.00 34.72
147.00 34.60
148.00 34.49
149.00 34.36
150.00 34.24
151.00 34.12
152.00 33.99
153.00 33.87
154.00 33.76
155.00 33.64
156.00 33.53
157.00 33.43
158.00 33.33
159.00 33.23
160.00 33.15
161.00 33.07
162.00 33.00
163.00 32.94
164.00 32.89
165.00 32.84
166.00 32.81
167.00 32.79
168.00 32.77
169.00 32.77
170.00 32.78
171.00 32.81
172.00 32.84
173.00 32.88
174.00 32.94
175.00 33.02
176.00 33.10
177.00 33.20
178.00 33.32
179.00 33.44
180.00 33.59
181.00 33.75
182.00 33.93
183.00 34.13
184.00 34.34
185.00 34.57
186.00 34.82
187.00 35.09
188.00 35.38
189.00 35.69
190.00 36.02
191.00 36.37
192.00 36.74
193.00 37.13
194.00 37.54
195.00 37.97
196.00 38.41
197.00 38.87
198.00 39.34
199.00 39.82
200.00 40.29
201.00 40.76
202.00 41.20
203.00 41.62
204.00 41.98
205.00 42.30
206.00 42.53
207.00 42.71
208.00 42.80
209.00 42.82
210.00 42.77
211.00 42.67
212.00 42.52
213.00 42.34
214.00 42.14
215.00 41.92
216.00 41.69
217.00 41.47
218.00 41.25
219.00 41.04
220.00 40.83
221.00 40.63
222.00 40.42
223.00 40.23
224.00 40.02
225.00 39.82
226.00 39.61
227.00 39.39
228.00 39.15
229.00 38.90
230.00 38.63
231.00 38.34
232.00 38.03
233.00 37.70
234.00 37.35
235.00 36.98
236.00 36.60
237.00 36.20
238.00 35.79
239.00 35.37
240.00 34.94
241.00 34.50
242.00 34.06
243.00 33.61
244.00 33.17
245.00 32.71
246.00 32.26
247.00 31.81
248.00 31.36
249.00 30.90
250.00 30.45
251.00 30.00
252.00 29.54
253.00 29.09
254.00 28.64
255.00 28.18
256.00 27.73
257.00 27.28
258.00 26.83
259.00 26.38
260.00 25.93
261.00 25.48
262.00 25.03
263.00 24.59
264.00 24.15
265.00 23.71
266.00 23.27
267.00 22.83
268.00 22.40
269.00 21.97
270.00 21.55
271.00 21.13
272.00 20.71
273.00 20.30
274.00 19.89
275.00 19.48
276.00 19.08
277.00 18.69
278.00 18.30
279.00 17.91
280.00 17.53
281.00 17.16
282.00 16.78
283.00 16.42
284.00 16.05
285.00 15.70
286.00 15.34
287.00 14.99
288.00 14.64
289.00 14.30
290.00 13.96
291.00 13.63
292.00 13.30
293.00 12.97
294.00 12.65
295.00 12.33
296.00 12.01
297.00 11.70
298.00 11.39
299.00 11.08
300.00 10.77
301.00 10.47
302.00 10.17
303.00 9.88
304.00 9.59
305.00 9.30
306.00 9.01
307.00 8.73
308.00 8.45
309.00 8.17
310.00 7.90
311.00 7.62
312.00 7.36
313.00 7.09
314.00 6.83
315.00 6.58
316.00 6.32
317.00 6.07
318.00 5.83
319.00 5.59
320.00 5.35
321.00 5.11
322.00 4.89
323.00 4.66
324.00 4.44
325.00 4.22
326.00 4.01
327.00 3.80
328.00 3.60
329.00 3.40
330.00 3.21
331.00 3.02
332.00 2.84
333.00 2.66
334.00 2.49
335.00 2.32
336.00 2.16
337.00 2.00
338.00 1.85
339.00 1.70
340.00 1.56
341.00 1.43
342.00 1.30
343.00 1.18
344.00 1.06
345.00 0.95
346.00 0.84
347.00 0.75
348.00 0.65
349.00 0.57
350.00 0.48
351.00 0.41
352.00 0.34
353.00 0.28
354.00 0.22
355.00 0.17
356.00 0.13
357.00 0.09
358.00 0.06
359.00 0.03
VERTICAL 360
0.00 1.45
1.00 0.58
2.00 0.10
3.00 0.00
4.00 0.27
5.00 0.93
6.00 1.98
7.00 3.47
8.00 5.46
9.00 8.09
10.00 11.53
11.00 16.18
12.00 22.46
13.00 27.41
14.00 26.22
15.00 26.31
16.00 29.82
17.00 44.15
18.00 30.89
19.00 24.38
20.00 21.21
21.00 19.61
22.00 19.10
23.00 19.58
24.00 21.17
25.00 24.28
26.00 30.10
27.00 37.08
28.00 30.03
29.00 26.47
30.00 25.26
31.00 25.53
32.00 27.17
33.00 30.53
34.00 33.84
35.00 28.75
36.00 23.59
37.00 20.12
38.00 17.78
39.00 16.27
40.00 15.41
41.00 15.10
42.00 15.21
43.00 15.66
44.00 16.41
45.00 17.48
46.00 18.97
47.00 21.02
48.00 23.89
49.00 27.96
50.00 34.16
51.00 46.77
52.00 46.52
53.00 40.16
54.00 37.40
55.00 35.18
56.00 33.46
57.00 32.43
58.00 32.14
59.00 32.58
60.00 33.71
61.00 35.28
62.00 36.89
63.00 38.39
64.00 40.06
65.00 41.74
66.00 40.86
67.00 36.98
68.00 33.40
69.00 31.06
70.00 30.00
71.00 30.18
72.00 31.51
73.00 33.58
74.00 34.49
75.00 32.47
76.00 29.68
77.00 27.61
78.00 26.50
79.00 26.35
80.00 27.01
81.00 27.94
82.00 28.07
83.00 27.58
84.00 26.68
85.00 25.73
86.00 25.28
87.00 25.64
88.00 26.56
89.00 27.52
90.00 28.13
91.00 28.26
92.00 27.56
93.00 26.73
94.00 26.38
95.00 26.77
96.00 27.95
97.00 29.92
98.00 32.60
99.00 35.83
100.00 38.60
101.00 38.30
102.00 36.25
103.00 34.82
104.00 34.33
105.00 34.60
106.00 35.40
107.00 36.44
108.00 37.19
109.00 37.14
110.00 36.59
111.00 36.24
112.00 36.47
113.00 37.35
114.00 38.70
115.00 39.81
116.00 39.84
117.00 39.02
118.00 38.24
119.00 37.91
120.00 38.20
121.00 38.99
122.00 39.73
123.00 39.47
124.00 38.25
125.00 36.99
126.00 36.19
127.00 35.95
128.00 36.26
129.00 36.96
130.00 37.49
131.00 37.26
132.00 36.53
133.00 36.03
134.00 36.14
135.00 36.84
136.00 37.92
137.00 38.96
138.00 39.69
139.00 40.35
140.00 41.61
141.00 44.28
142.00 50.13
143.00 68.64
144.00 49.30
145.00 44.88
146.00 43.67
147.00 44.71
148.00 47.73
149.00 48.52
150.00 44.75
151.00 41.99
152.00 40.42
153.00 39.27
154.00 37.90
155.00 36.16
156.00 34.36
157.00 32.89
158.00 32.02
159.00 31.90
160.00 32.60
161.00 34.10
162.00 36.35
163.00 39.30
164.00 43.04
165.00 48.63
166.00 57.59
167.00 46.87
168.00 40.76
169.00 37.24
170.00 35.21
171.00 34.31
172.00 34.24
173.00 34.70
174.00 35.23
175.00 35.37
176.00 34.99
177.00 34.31
178.00 33.75
179.00 33.44
180.00 33.48
181.00 33.81
182.00 34.32
183.00 34.95
184.00 35.67
185.00 36.58
186.00 37.83
187.00 39.37
188.00 40.40
189.00 39.74
190.00 38.01
191.00 36.34
192.00 35.04
193.00 34.09
194.00 33.51
195.00 33.35
196.00 33.70
197.00 34.66
198.00 36.38
199.00 39.17
200.00 43.75
201.00 52.67
202.00 51.48
203.00 44.26
204.00 40.48
205.00 38.06
206.00 36.49
207.00 35.58
208.00 35.21
209.00 35.19
210.00 35.26
211.00 35.14
212.00 34.64
213.00 33.79
214.00 32.79
215.00 31.84
216.00 31.10
217.00 30.69
218.00 30.62
219.00 30.94
220.00 31.64
221.00 32.72
222.00 34.18
223.00 35.97
224.00 38.05
225.00 40.27
226.00 42.11
227.00 42.54
228.00 41.77
229.00 41.11
230.00 41.15
231.00 41.80
232.00 42.57
233.00 42.86
234.00 42.50
235.00 42.01
236.00 42.16
237.00 43.94
238.00 49.34
239.00 55.29
240.00 44.84
241.00 40.64
242.00 38.82
243.00 38.25
244.00 38.25
245.00 38.22
246.00 37.67
247.00 36.52
248.00 35.29
249.00 34.49
250.00 34.26
251.00 34.47
252.00 34.83
253.00 35.22
254.00 35.69
255.00 36.23
256.00 36.64
257.00 36.79
258.00 36.76
259.00 36.56
260.00 36.24
261.00 36.04
262.00 36.20
263.00 36.74
264.00 37.53
265.00 38.42
266.00 39.31
267.00 40.01
268.00 40.26
269.00 39.80
270.00 38.41
271.00 36.44
272.00 34.63
273.00 33.32
274.00 32.46
275.00 31.91
276.00 31.54
277.00 31.39
278.00 31.45
279.00 31.60
280.00 31.66
281.00 31.52
282.00 31.15
283.00 30.56
284.00 29.80
285.00 29.06
286.00 28.55
287.00 28.42
288.00 28.73
289.00 29.43
290.00 30.39
291.00 31.40
292.00 32.29
293.00 33.06
294.00 33.86
295.00 34.83
296.00 35.70
297.00 35.60
298.00 34.33
299.00 32.86
300.00 31.78
301.00 31.12
302.00 30.77
303.00 30.67
304.00 30.84
305.00 31.39
306.00 32.60
307.00 35.19
308.00 41.70
309.00 46.38
310.00 33.72
311.00 28.13
312.00 24.51
313.00 21.91
314.00 19.99
315.00 18.57
316.00 17.52
317.00 16.74
318.00 16.22
319.00 15.94
320.00 15.96
321.00 16.35
322.00 17.20
323.00 18.61
324.00 20.70
325.00 23.57
326.00 27.34
327.00 32.09
328.00 37.74
329.00 42.18
330.00 39.42
331.00 35.35
332.00 32.63
333.00 31.16
334.00 30.70
335.00 30.78
336.00 30.39
337.00 28.73
338.00 26.40
339.00 24.17
340.00 22.31
341.00 20.90
342.00 20.02
343.00 19.77
344.00 20.30
345.00 21.90
346.00 25.23
347.00 32.69
348.00 35.04
349.00 26.59
350.00 23.51
351.00 23.11
352.00 25.24
353.00 26.69
354.00 19.82
355.00 14.03
356.00 9.92
357.00 6.86
358.00 4.52
359.00 2.75
