NAME ATR4518R7_1850_X_CO_P45_04T_yyR
FREQUENCY 1850
GAIN 15.52 dBd
TILT	ELECTRICAL
COMMENT DATE 05.08.2013 +45 degrees polarized system Lever position 04T deg
HORIZONTAL 360
0.00 0.08
1.00 0.06
2.00 0.03
3.00 0.02
4.00 0.01
5.00 0.00
6.00 0.01
7.00 0.02
8.00 0.03
9.00 0.06
10.00 0.09
11.00 0.13
12.00 0.18
13.00 0.24
14.00 0.31
15.00 0.39
16.00 0.47
17.00 0.57
18.00 0.67
19.00 0.79
20.00 0.91
21.00 1.05
22.00 1.19
23.00 1.35
24.00 1.51
25.00 1.69
26.00 1.87
27.00 2.06
28.00 2.26
29.00 2.47
30.00 2.69
31.00 2.92
32.00 3.16
33.00 3.40
34.00 3.65
35.00 3.90
36.00 4.16
37.00 4.43
38.00 4.70
39.00 4.98
40.00 5.26
41.00 5.54
42.00 5.82
43.00 6.11
44.00 6.40
45.00 6.69
46.00 6.98
47.00 7.28
48.00 7.57
49.00 7.86
50.00 8.16
51.00 8.45
52.00 8.74
53.00 9.03
54.00 9.33
55.00 9.62
56.00 9.91
57.00 10.21
58.00 10.50
59.00 10.79
60.00 11.09
61.00 11.39
62.00 11.69
63.00 11.98
64.00 12.29
65.00 12.59
66.00 12.90
67.00 13.21
68.00 13.52
69.00 13.84
70.00 14.16
71.00 14.49
72.00 14.82
73.00 15.16
74.00 15.50
75.00 15.84
76.00 16.20
77.00 16.56
78.00 16.92
79.00 17.29
80.00 17.66
81.00 18.04
82.00 18.43
83.00 18.81
84.00 19.21
85.00 19.60
86.00 19.99
87.00 20.39
88.00 20.79
89.00 21.18
90.00 21.58
91.00 21.97
92.00 22.36
93.00 22.76
94.00 23.15
95.00 23.55
96.00 23.95
97.00 24.35
98.00 24.76
99.00 25.18
100.00 25.60
101.00 26.04
102.00 26.49
103.00 26.95
104.00 27.43
105.00 27.91
106.00 28.40
107.00 28.90
108.00 29.39
109.00 29.86
110.00 30.31
111.00 30.73
112.00 31.11
113.00 31.42
114.00 31.68
115.00 31.88
116.00 32.03
117.00 32.13
118.00 32.21
119.00 32.27
120.00 32.34
121.00 32.43
122.00 32.55
123.00 32.72
124.00 32.95
125.00 33.24
126.00 33.62
127.00 34.10
128.00 34.69
129.00 35.41
130.00 36.28
131.00 37.34
132.00 38.64
133.00 40.23
134.00 42.20
135.00 44.64
136.00 47.39
137.00 49.08
138.00 47.74
139.00 45.09
140.00 42.67
141.00 40.75
142.00 39.22
143.00 37.99
144.00 37.02
145.00 36.23
146.00 35.62
147.00 35.15
148.00 34.80
149.00 34.57
150.00 34.44
151.00 34.39
152.00 34.43
153.00 34.55
154.00 34.71
155.00 34.92
156.00 35.15
157.00 35.38
158.00 35.57
159.00 35.70
160.00 35.73
161.00 35.67
162.00 35.50
163.00 35.24
164.00 34.91
165.00 34.55
166.00 34.18
167.00 33.83
168.00 33.50
169.00 33.22
170.00 32.99
171.00 32.83
172.00 32.72
173.00 32.68
174.00 32.71
175.00 32.81
176.00 32.96
177.00 33.18
178.00 33.46
179.00 33.77
180.00 34.12
181.00 34.48
182.00 34.82
183.00 35.11
184.00 35.32
185.00 35.41
186.00 35.39
187.00 35.24
188.00 34.98
189.00 34.66
190.00 34.30
191.00 33.93
192.00 33.58
193.00 33.26
194.00 33.00
195.00 32.80
196.00 32.66
197.00 32.60
198.00 32.61
199.00 32.69
200.00 32.86
201.00 33.10
202.00 33.43
203.00 33.84
204.00 34.32
205.00 34.87
206.00 35.48
207.00 36.10
208.00 36.68
209.00 37.16
210.00 37.42
211.00 37.43
212.00 37.16
213.00 36.66
214.00 36.00
215.00 35.28
216.00 34.55
217.00 33.86
218.00 33.22
219.00 32.64
220.00 32.13
221.00 31.69
222.00 31.32
223.00 31.01
224.00 30.76
225.00 30.57
226.00 30.43
227.00 30.33
228.00 30.28
229.00 30.26
230.00 30.28
231.00 30.32
232.00 30.37
233.00 30.44
234.00 30.51
235.00 30.58
236.00 30.62
237.00 30.65
238.00 30.65
239.00 30.62
240.00 30.56
241.00 30.47
242.00 30.34
243.00 30.19
244.00 30.01
245.00 29.82
246.00 29.62
247.00 29.41
248.00 29.20
249.00 28.98
250.00 28.77
251.00 28.57
252.00 28.37
253.00 28.17
254.00 27.98
255.00 27.78
256.00 27.59
257.00 27.40
258.00 27.20
259.00 27.00
260.00 26.80
261.00 26.58
262.00 26.36
263.00 26.12
264.00 25.88
265.00 25.62
266.00 25.34
267.00 25.06
268.00 24.76
269.00 24.45
270.00 24.13
271.00 23.80
272.00 23.46
273.00 23.10
274.00 22.74
275.00 22.38
276.00 22.00
277.00 21.62
278.00 21.23
279.00 20.85
280.00 20.45
281.00 20.06
282.00 19.66
283.00 19.26
284.00 18.86
285.00 18.46
286.00 18.06
287.00 17.66
288.00 17.26
289.00 16.86
290.00 16.47
291.00 16.07
292.00 15.67
293.00 15.28
294.00 14.89
295.00 14.50
296.00 14.11
297.00 13.72
298.00 13.33
299.00 12.95
300.00 12.57
301.00 12.19
302.00 11.82
303.00 11.44
304.00 11.07
305.00 10.71
306.00 10.34
307.00 9.98
308.00 9.63
309.00 9.27
310.00 8.93
311.00 8.59
312.00 8.25
313.00 7.92
314.00 7.59
315.00 7.27
316.00 6.96
317.00 6.65
318.00 6.35
319.00 6.06
320.00 5.77
321.00 5.49
322.00 5.22
323.00 4.96
324.00 4.70
325.00 4.46
326.00 4.21
327.00 3.98
328.00 3.76
329.00 3.55
330.00 3.34
331.00 3.14
332.00 2.94
333.00 2.76
334.00 2.58
335.00 2.41
336.00 2.25
337.00 2.10
338.00 1.95
339.00 1.81
340.00 1.67
341.00 1.54
342.00 1.42
343.00 1.30
344.00 1.19
345.00 1.09
346.00 0.99
347.00 0.89
348.00 0.80
349.00 0.72
350.00 0.64
351.00 0.56
352.00 0.49
353.00 0.42
354.00 0.36
355.00 0.30
356.00 0.25
357.00 0.20
358.00 0.16
359.00 0.12
VERTICAL 360
0.00 5.62
1.00 2.93
2.00 1.20
3.00 0.26
4.00 0.00
5.00 0.41
6.00 1.57
7.00 3.62
8.00 6.91
9.00 12.35
10.00 23.45
11.00 21.91
12.00 16.13
13.00 15.01
14.00 16.26
15.00 19.92
16.00 25.21
17.00 22.17
18.00 17.73
19.00 15.87
20.00 15.83
21.00 17.42
22.00 20.84
23.00 26.08
24.00 26.98
25.00 23.17
26.00 21.08
27.00 20.73
28.00 21.99
29.00 25.53
30.00 36.31
31.00 34.73
32.00 25.38
33.00 22.01
34.00 20.64
35.00 20.51
36.00 21.46
37.00 23.69
38.00 27.90
39.00 36.58
40.00 39.70
41.00 33.18
42.00 32.25
43.00 33.28
44.00 31.99
45.00 28.84
46.00 26.87
47.00 26.38
48.00 27.06
49.00 28.43
50.00 29.67
51.00 30.01
52.00 29.71
53.00 29.77
54.00 31.10
55.00 34.05
56.00 34.44
57.00 29.99
58.00 26.60
59.00 24.79
60.00 24.03
61.00 23.89
62.00 24.11
63.00 24.54
64.00 25.19
65.00 26.11
66.00 27.26
67.00 28.41
68.00 29.38
69.00 30.25
70.00 31.18
71.00 32.07
72.00 32.60
73.00 32.58
74.00 32.10
75.00 31.31
76.00 30.30
77.00 29.12
78.00 27.91
79.00 26.90
80.00 26.19
81.00 25.75
82.00 25.53
83.00 25.41
84.00 25.31
85.00 25.19
86.00 25.12
87.00 25.29
88.00 25.99
89.00 27.43
90.00 29.68
91.00 32.10
92.00 33.03
93.00 32.04
94.00 30.68
95.00 29.90
96.00 30.05
97.00 31.23
98.00 33.29
99.00 35.61
100.00 37.26
101.00 38.04
102.00 38.69
103.00 40.08
104.00 42.88
105.00 47.12
106.00 49.96
107.00 50.26
108.00 51.20
109.00 51.95
110.00 52.07
111.00 53.39
112.00 56.67
113.00 61.02
114.00 58.81
115.00 53.29
116.00 50.29
117.00 49.19
118.00 48.67
119.00 47.21
120.00 44.77
121.00 42.55
122.00 41.34
123.00 41.50
124.00 42.98
125.00 44.24
126.00 42.67
127.00 40.26
128.00 38.92
129.00 38.88
130.00 40.08
131.00 42.22
132.00 43.87
133.00 43.37
134.00 42.16
135.00 41.60
136.00 41.75
137.00 42.35
138.00 42.96
139.00 42.69
140.00 40.92
141.00 38.55
142.00 36.76
143.00 35.95
144.00 36.13
145.00 37.01
146.00 38.02
147.00 38.47
148.00 38.19
149.00 37.81
150.00 38.48
151.00 41.33
152.00 45.26
153.00 41.92
154.00 38.28
155.00 37.32
156.00 37.83
157.00 37.32
158.00 34.84
159.00 32.68
160.00 31.97
161.00 33.01
162.00 36.32
163.00 43.71
164.00 57.83
165.00 49.27
166.00 50.18
167.00 52.29
168.00 47.73
169.00 44.67
170.00 42.15
171.00 39.19
172.00 36.58
173.00 34.95
174.00 34.49
175.00 34.94
176.00 35.42
177.00 35.22
178.00 35.27
179.00 36.67
180.00 39.86
181.00 44.14
182.00 47.33
183.00 48.81
184.00 49.45
185.00 51.51
186.00 49.72
187.00 43.77
188.00 41.90
189.00 45.02
190.00 45.64
191.00 37.38
192.00 33.38
193.00 32.06
194.00 32.54
195.00 34.28
196.00 36.48
197.00 37.53
198.00 36.57
199.00 35.11
200.00 34.52
201.00 35.05
202.00 36.10
203.00 36.46
204.00 36.20
205.00 36.61
206.00 38.40
207.00 41.95
208.00 49.40
209.00 59.33
210.00 43.35
211.00 38.24
212.00 35.48
213.00 33.72
214.00 32.29
215.00 31.04
216.00 30.12
217.00 29.74
218.00 30.03
219.00 30.92
220.00 32.05
221.00 32.87
222.00 33.25
223.00 33.75
224.00 35.06
225.00 37.80
226.00 43.30
227.00 51.80
228.00 45.43
229.00 41.85
230.00 42.08
231.00 42.81
232.00 39.17
233.00 35.33
234.00 33.47
235.00 33.36
236.00 34.73
237.00 37.41
238.00 41.43
239.00 46.52
240.00 47.03
241.00 43.36
242.00 41.27
243.00 40.73
244.00 40.82
245.00 39.54
246.00 36.63
247.00 34.24
248.00 33.22
249.00 33.54
250.00 34.90
251.00 36.72
252.00 38.22
253.00 39.13
254.00 40.25
255.00 42.93
256.00 47.92
257.00 47.96
258.00 44.85
259.00 45.28
260.00 48.77
261.00 50.92
262.00 48.84
263.00 46.11
264.00 43.45
265.00 42.46
266.00 44.17
267.00 48.72
268.00 47.86
269.00 43.48
270.00 41.59
271.00 40.77
272.00 39.17
273.00 36.58
274.00 34.20
275.00 32.56
276.00 31.51
277.00 30.70
278.00 29.86
279.00 28.92
280.00 27.97
281.00 27.12
282.00 26.45
283.00 25.98
284.00 25.61
285.00 25.26
286.00 24.90
287.00 24.61
288.00 24.46
289.00 24.52
290.00 24.75
291.00 25.05
292.00 25.32
293.00 25.55
294.00 25.84
295.00 26.24
296.00 26.58
297.00 26.44
298.00 25.62
299.00 24.48
300.00 23.49
301.00 22.88
302.00 22.72
303.00 23.01
304.00 23.73
305.00 24.93
306.00 26.77
307.00 29.60
308.00 32.35
309.00 29.92
310.00 25.51
311.00 22.47
312.00 20.62
313.00 19.64
314.00 19.29
315.00 19.44
316.00 19.99
317.00 20.82
318.00 21.79
319.00 22.62
320.00 22.97
321.00 22.63
322.00 21.72
323.00 20.65
324.00 19.82
325.00 19.49
326.00 19.62
327.00 19.91
328.00 19.98
329.00 19.91
330.00 20.30
331.00 21.84
332.00 25.38
333.00 31.13
334.00 29.07
335.00 24.24
336.00 22.14
337.00 22.02
338.00 23.96
339.00 29.38
340.00 34.22
341.00 25.98
342.00 22.08
343.00 20.98
344.00 22.03
345.00 25.33
346.00 28.08
347.00 24.28
348.00 20.70
349.00 19.14
350.00 19.28
351.00 21.39
352.00 27.32
353.00 39.80
354.00 25.71
355.00 22.17
356.00 23.17
357.00 23.83
358.00 15.85
359.00 9.65
