NAME ATR4518R7_1950_X_CO_P45_06T_yL
FREQUENCY 1950
GAIN 15.22 dBd
TILT	ELECTRICAL
COMMENT DATE 05.08.2013 +45 degrees polarized system Lever position 06T deg
HORIZONTAL 360
0.00 0.10
1.00 0.08
2.00 0.05
3.00 0.03
4.00 0.02
5.00 0.01
6.00 0.00
7.00 0.00
8.00 0.01
9.00 0.02
10.00 0.04
11.00 0.07
12.00 0.10
13.00 0.15
14.00 0.19
15.00 0.25
16.00 0.32
17.00 0.39
18.00 0.48
19.00 0.57
20.00 0.66
21.00 0.77
22.00 0.88
23.00 1.00
24.00 1.13
25.00 1.26
26.00 1.41
27.00 1.55
28.00 1.71
29.00 1.87
30.00 2.04
31.00 2.21
32.00 2.39
33.00 2.57
34.00 2.76
35.00 2.95
36.00 3.15
37.00 3.35
38.00 3.56
39.00 3.77
40.00 3.98
41.00 4.19
42.00 4.41
43.00 4.63
44.00 4.84
45.00 5.07
46.00 5.28
47.00 5.50
48.00 5.72
49.00 5.94
50.00 6.16
51.00 6.37
52.00 6.59
53.00 6.81
54.00 7.02
55.00 7.24
56.00 7.45
57.00 7.67
58.00 7.89
59.00 8.11
60.00 8.33
61.00 8.56
62.00 8.79
63.00 9.02
64.00 9.26
65.00 9.51
66.00 9.76
67.00 10.01
68.00 10.28
69.00 10.55
70.00 10.82
71.00 11.10
72.00 11.39
73.00 11.69
74.00 11.98
75.00 12.29
76.00 12.60
77.00 12.92
78.00 13.25
79.00 13.57
80.00 13.90
81.00 14.23
82.00 14.57
83.00 14.91
84.00 15.25
85.00 15.60
86.00 15.95
87.00 16.30
88.00 16.65
89.00 17.01
90.00 17.36
91.00 17.73
92.00 18.09
93.00 18.46
94.00 18.84
95.00 19.22
96.00 19.60
97.00 19.99
98.00 20.38
99.00 20.78
100.00 21.18
101.00 21.58
102.00 21.99
103.00 22.39
104.00 22.80
105.00 23.20
106.00 23.60
107.00 24.00
108.00 24.39
109.00 24.78
110.00 25.16
111.00 25.55
112.00 25.93
113.00 26.32
114.00 26.72
115.00 27.12
116.00 27.54
117.00 27.97
118.00 28.43
119.00 28.90
120.00 29.39
121.00 29.91
122.00 30.45
123.00 31.01
124.00 31.59
125.00 32.18
126.00 32.78
127.00 33.38
128.00 33.96
129.00 34.51
130.00 35.02
131.00 35.47
132.00 35.84
133.00 36.13
134.00 36.32
135.00 36.41
136.00 36.41
137.00 36.33
138.00 36.18
139.00 35.97
140.00 35.74
141.00 35.49
142.00 35.25
143.00 35.03
144.00 34.83
145.00 34.68
146.00 34.57
147.00 34.52
148.00 34.53
149.00 34.60
150.00 34.74
151.00 34.93
152.00 35.19
153.00 35.50
154.00 35.84
155.00 36.21
156.00 36.57
157.00 36.89
158.00 37.12
159.00 37.24
160.00 37.23
161.00 37.09
162.00 36.86
163.00 36.55
164.00 36.23
165.00 35.91
166.00 35.63
167.00 35.40
168.00 35.23
169.00 35.13
170.00 35.11
171.00 35.16
172.00 35.27
173.00 35.45
174.00 35.67
175.00 35.92
176.00 36.18
177.00 36.43
178.00 36.62
179.00 36.76
180.00 36.81
181.00 36.80
182.00 36.72
183.00 36.60
184.00 36.49
185.00 36.40
186.00 36.36
187.00 36.39
188.00 36.53
189.00 36.79
190.00 37.20
191.00 37.77
192.00 38.56
193.00 39.60
194.00 40.98
195.00 42.80
196.00 45.21
197.00 48.25
198.00 50.34
199.00 48.37
200.00 44.94
201.00 42.07
202.00 39.81
203.00 38.02
204.00 36.56
205.00 35.37
206.00 34.37
207.00 33.55
208.00 32.87
209.00 32.31
210.00 31.87
211.00 31.52
212.00 31.27
213.00 31.10
214.00 31.01
215.00 31.00
216.00 31.06
217.00 31.20
218.00 31.41
219.00 31.69
220.00 32.04
221.00 32.47
222.00 32.99
223.00 33.58
224.00 34.27
225.00 35.05
226.00 35.94
227.00 36.93
228.00 38.02
229.00 39.20
230.00 40.37
231.00 41.40
232.00 42.04
233.00 42.05
234.00 41.45
235.00 40.45
236.00 39.30
237.00 38.15
238.00 37.08
239.00 36.10
240.00 35.22
241.00 34.42
242.00 33.71
243.00 33.07
244.00 32.49
245.00 31.97
246.00 31.50
247.00 31.06
248.00 30.65
249.00 30.27
250.00 29.91
251.00 29.55
252.00 29.19
253.00 28.83
254.00 28.46
255.00 28.08
256.00 27.68
257.00 27.27
258.00 26.84
259.00 26.40
260.00 25.94
261.00 25.48
262.00 25.02
263.00 24.56
264.00 24.10
265.00 23.66
266.00 23.23
267.00 22.81
268.00 22.41
269.00 22.03
270.00 21.67
271.00 21.32
272.00 20.99
273.00 20.68
274.00 20.38
275.00 20.09
276.00 19.81
277.00 19.54
278.00 19.27
279.00 19.01
280.00 18.75
281.00 18.48
282.00 18.21
283.00 17.93
284.00 17.64
285.00 17.35
286.00 17.04
287.00 16.73
288.00 16.41
289.00 16.09
290.00 15.76
291.00 15.43
292.00 15.10
293.00 14.76
294.00 14.43
295.00 14.10
296.00 13.77
297.00 13.44
298.00 13.12
299.00 12.80
300.00 12.48
301.00 12.17
302.00 11.86
303.00 11.55
304.00 11.23
305.00 10.92
306.00 10.61
307.00 10.29
308.00 9.96
309.00 9.64
310.00 9.31
311.00 8.98
312.00 8.64
313.00 8.30
314.00 7.97
315.00 7.62
316.00 7.29
317.00 6.95
318.00 6.61
319.00 6.29
320.00 5.96
321.00 5.65
322.00 5.34
323.00 5.04
324.00 4.75
325.00 4.47
326.00 4.20
327.00 3.94
328.00 3.69
329.00 3.45
330.00 3.22
331.00 3.01
332.00 2.80
333.00 2.60
334.00 2.42
335.00 2.24
336.00 2.07
337.00 1.91
338.00 1.76
339.00 1.62
340.00 1.49
341.00 1.37
342.00 1.25
343.00 1.14
344.00 1.04
345.00 0.95
346.00 0.86
347.00 0.78
348.00 0.70
349.00 0.63
350.00 0.56
351.00 0.50
352.00 0.45
353.00 0.39
354.00 0.34
355.00 0.29
356.00 0.25
357.00 0.21
358.00 0.17
359.00 0.14
VERTICAL 360
0.00 12.57
1.00 7.94
2.00 4.64
3.00 2.33
4.00 0.85
5.00 0.11
6.00 0.07
7.00 0.80
8.00 2.40
9.00 5.16
10.00 9.85
11.00 19.15
12.00 19.83
13.00 13.60
14.00 12.01
15.00 12.79
16.00 15.76
17.00 21.60
18.00 22.45
19.00 17.09
20.00 14.45
21.00 13.68
22.00 14.40
23.00 16.65
24.00 20.92
25.00 27.54
26.00 26.02
27.00 21.94
28.00 20.34
29.00 20.54
30.00 22.58
31.00 27.42
32.00 35.09
33.00 27.58
34.00 23.31
35.00 21.50
36.00 20.92
37.00 20.94
38.00 21.13
39.00 21.24
40.00 21.21
41.00 21.13
42.00 21.28
43.00 21.93
44.00 23.10
45.00 24.23
46.00 24.41
47.00 23.89
48.00 23.51
49.00 23.53
50.00 23.79
51.00 24.10
52.00 24.52
53.00 25.24
54.00 26.56
55.00 28.72
56.00 32.00
57.00 36.99
58.00 43.63
59.00 39.15
60.00 34.22
61.00 31.50
62.00 30.00
63.00 29.21
64.00 28.90
65.00 28.99
66.00 29.43
67.00 30.14
68.00 30.97
69.00 31.75
70.00 32.51
71.00 33.51
72.00 34.92
73.00 36.47
74.00 37.51
75.00 37.62
76.00 37.01
77.00 36.52
78.00 36.78
79.00 37.77
80.00 38.94
81.00 39.70
82.00 39.32
83.00 37.41
84.00 35.49
85.00 34.78
86.00 35.55
87.00 37.76
88.00 40.91
89.00 43.45
90.00 43.02
91.00 40.21
92.00 37.70
93.00 36.49
94.00 36.66
95.00 38.07
96.00 40.29
97.00 42.19
98.00 42.35
99.00 41.19
100.00 40.03
101.00 39.56
102.00 39.94
103.00 41.17
104.00 43.15
105.00 45.42
106.00 47.14
107.00 48.89
108.00 53.46
109.00 59.49
110.00 50.18
111.00 46.54
112.00 45.85
113.00 47.11
114.00 49.72
115.00 52.23
116.00 50.36
117.00 45.58
118.00 41.41
119.00 38.34
120.00 36.36
121.00 35.36
122.00 35.26
123.00 35.89
124.00 36.92
125.00 37.84
126.00 38.24
127.00 38.24
128.00 38.15
129.00 38.05
130.00 37.84
131.00 37.33
132.00 36.38
133.00 35.14
134.00 33.88
135.00 32.84
136.00 32.11
137.00 31.67
138.00 31.31
139.00 30.90
140.00 30.60
141.00 30.81
142.00 31.94
143.00 34.29
144.00 38.13
145.00 43.36
146.00 46.72
147.00 44.13
148.00 40.88
149.00 38.88
150.00 37.86
151.00 37.06
152.00 36.29
153.00 36.41
154.00 38.50
155.00 44.38
156.00 47.80
157.00 39.97
158.00 36.43
159.00 34.64
160.00 33.83
161.00 34.03
162.00 35.57
163.00 38.50
164.00 40.31
165.00 38.24
166.00 36.34
167.00 35.76
168.00 36.14
169.00 37.07
170.00 38.56
171.00 41.28
172.00 46.35
173.00 45.18
174.00 38.63
175.00 34.60
176.00 32.20
177.00 31.01
178.00 30.85
179.00 31.55
180.00 32.78
181.00 34.00
182.00 35.00
183.00 36.30
184.00 38.43
185.00 40.15
186.00 38.20
187.00 35.46
188.00 34.25
189.00 34.83
190.00 36.91
191.00 38.55
192.00 38.18
193.00 38.65
194.00 41.96
195.00 49.84
196.00 56.15
197.00 47.61
198.00 39.03
199.00 33.89
200.00 31.29
201.00 30.59
202.00 31.47
203.00 33.66
204.00 36.83
205.00 40.95
206.00 45.17
207.00 41.38
208.00 36.38
209.00 33.20
210.00 31.29
211.00 30.38
212.00 30.40
213.00 31.44
214.00 33.69
215.00 37.22
216.00 40.79
217.00 41.31
218.00 41.00
219.00 41.02
220.00 39.24
221.00 36.65
222.00 35.06
223.00 34.67
224.00 35.18
225.00 36.24
226.00 37.83
227.00 40.04
228.00 40.49
229.00 37.24
230.00 34.33
231.00 32.89
232.00 32.86
233.00 34.17
234.00 36.91
235.00 41.51
236.00 49.57
237.00 60.66
238.00 51.74
239.00 50.45
240.00 54.10
241.00 57.09
242.00 45.55
243.00 39.82
244.00 36.61
245.00 35.04
246.00 34.79
247.00 35.72
248.00 37.74
249.00 40.95
250.00 45.81
251.00 48.34
252.00 42.40
253.00 37.81
254.00 34.85
255.00 33.00
256.00 31.98
257.00 31.51
258.00 31.35
259.00 31.36
260.00 31.52
261.00 31.99
262.00 32.90
263.00 34.27
264.00 35.79
265.00 36.85
266.00 36.94
267.00 36.13
268.00 34.68
269.00 32.89
270.00 31.10
271.00 29.68
272.00 28.87
273.00 28.72
274.00 29.03
275.00 29.42
276.00 29.46
277.00 29.03
278.00 28.37
279.00 27.77
280.00 27.42
281.00 27.21
282.00 26.91
283.00 26.35
284.00 25.62
285.00 24.97
286.00 24.62
287.00 24.72
288.00 25.41
289.00 26.84
290.00 29.29
291.00 33.57
292.00 43.72
293.00 42.16
294.00 33.67
295.00 30.08
296.00 28.11
297.00 26.93
298.00 26.18
299.00 25.74
300.00 25.68
301.00 26.16
302.00 27.42
303.00 29.88
304.00 34.71
305.00 40.38
306.00 32.08
307.00 27.02
308.00 24.26
309.00 22.94
310.00 22.77
311.00 23.63
312.00 25.67
313.00 29.41
314.00 36.14
315.00 33.80
316.00 27.58
317.00 24.23
318.00 22.55
319.00 22.09
320.00 22.74
321.00 24.61
322.00 28.23
323.00 33.73
324.00 31.02
325.00 26.24
326.00 23.68
327.00 22.48
328.00 22.05
329.00 21.94
330.00 21.84
331.00 21.63
332.00 21.42
333.00 21.46
334.00 22.16
335.00 24.16
336.00 28.80
337.00 33.62
338.00 26.01
339.00 21.89
340.00 20.35
341.00 20.86
342.00 23.85
343.00 32.81
344.00 31.59
345.00 23.53
346.00 20.98
347.00 21.18
348.00 24.45
349.00 36.03
350.00 27.22
351.00 20.72
352.00 18.12
353.00 17.47
354.00 18.19
355.00 19.80
356.00 21.62
357.00 23.65
358.00 25.15
359.00 19.07
