NAME ATR4518R7_2535_X_CO_P45_00T_yL
FREQUENCY 2535
GAIN 15.70 dBd
TILT	ELECTRICAL
COMMENT DATE 05.08.2013 +45 degrees polarized system Lever position 00T deg
HORIZONTAL 360
0.00 0.02
1.00 0.00
2.00 0.00
3.00 0.02
4.00 0.05
5.00 0.10
6.00 0.16
7.00 0.24
8.00 0.32
9.00 0.42
10.00 0.52
11.00 0.62
12.00 0.73
13.00 0.84
14.00 0.95
15.00 1.06
16.00 1.16
17.00 1.27
18.00 1.38
19.00 1.50
20.00 1.62
21.00 1.74
22.00 1.87
23.00 2.01
24.00 2.17
25.00 2.33
26.00 2.51
27.00 2.70
28.00 2.90
29.00 3.12
30.00 3.34
31.00 3.58
32.00 3.82
33.00 4.07
34.00 4.32
35.00 4.57
36.00 4.83
37.00 5.07
38.00 5.32
39.00 5.56
40.00 5.79
41.00 6.02
42.00 6.24
43.00 6.46
44.00 6.68
45.00 6.89
46.00 7.11
47.00 7.32
48.00 7.54
49.00 7.77
50.00 8.00
51.00 8.24
52.00 8.49
53.00 8.74
54.00 9.00
55.00 9.28
56.00 9.56
57.00 9.85
58.00 10.14
59.00 10.45
60.00 10.76
61.00 11.08
62.00 11.40
63.00 11.72
64.00 12.05
65.00 12.37
66.00 12.70
67.00 13.02
68.00 13.34
69.00 13.66
70.00 13.97
71.00 14.28
72.00 14.58
73.00 14.87
74.00 15.16
75.00 15.43
76.00 15.70
77.00 15.97
78.00 16.23
79.00 16.48
80.00 16.74
81.00 16.99
82.00 17.24
83.00 17.50
84.00 17.76
85.00 18.03
86.00 18.32
87.00 18.61
88.00 18.93
89.00 19.25
90.00 19.60
91.00 19.96
92.00 20.33
93.00 20.72
94.00 21.12
95.00 21.52
96.00 21.93
97.00 22.33
98.00 22.73
99.00 23.12
100.00 23.51
101.00 23.88
102.00 24.24
103.00 24.60
104.00 24.97
105.00 25.36
106.00 25.77
107.00 26.22
108.00 26.72
109.00 27.29
110.00 27.94
111.00 28.68
112.00 29.54
113.00 30.53
114.00 31.69
115.00 33.05
116.00 34.65
117.00 36.56
118.00 38.90
119.00 41.77
120.00 45.20
121.00 48.02
122.00 47.42
123.00 44.99
124.00 42.89
125.00 41.40
126.00 40.39
127.00 39.77
128.00 39.46
129.00 39.41
130.00 39.57
131.00 39.90
132.00 40.35
133.00 40.83
134.00 41.23
135.00 41.39
136.00 41.22
137.00 40.68
138.00 39.89
139.00 38.98
140.00 38.03
141.00 37.13
142.00 36.31
143.00 35.58
144.00 34.94
145.00 34.40
146.00 33.95
147.00 33.60
148.00 33.34
149.00 33.17
150.00 33.10
151.00 33.12
152.00 33.25
153.00 33.47
154.00 33.81
155.00 34.24
156.00 34.77
157.00 35.38
158.00 36.04
159.00 36.69
160.00 37.22
161.00 37.51
162.00 37.47
163.00 37.09
164.00 36.46
165.00 35.70
166.00 34.90
167.00 34.15
168.00 33.47
169.00 32.88
170.00 32.39
171.00 32.00
172.00 31.71
173.00 31.52
174.00 31.41
175.00 31.41
176.00 31.50
177.00 31.69
178.00 31.98
179.00 32.38
180.00 32.90
181.00 33.56
182.00 34.38
183.00 35.40
184.00 36.66
185.00 38.23
186.00 40.25
187.00 42.94
188.00 46.74
189.00 52.15
190.00 53.09
191.00 47.98
192.00 44.40
193.00 42.05
194.00 40.45
195.00 39.39
196.00 38.75
197.00 38.47
198.00 38.54
199.00 38.97
200.00 39.84
201.00 41.26
202.00 43.52
203.00 47.33
204.00 55.41
205.00 55.08
206.00 46.27
207.00 41.74
208.00 38.74
209.00 36.55
210.00 34.88
211.00 33.58
212.00 32.57
213.00 31.80
214.00 31.25
215.00 30.89
216.00 30.72
217.00 30.73
218.00 30.94
219.00 31.34
220.00 31.97
221.00 32.87
222.00 34.10
223.00 35.77
224.00 38.11
225.00 41.64
226.00 48.14
227.00 59.17
228.00 45.34
229.00 40.02
230.00 36.80
231.00 34.53
232.00 32.82
233.00 31.48
234.00 30.42
235.00 29.57
236.00 28.88
237.00 28.32
238.00 27.88
239.00 27.53
240.00 27.26
241.00 27.05
242.00 26.89
243.00 26.78
244.00 26.69
245.00 26.62
246.00 26.57
247.00 26.52
248.00 26.48
249.00 26.45
250.00 26.42
251.00 26.39
252.00 26.36
253.00 26.35
254.00 26.33
255.00 26.33
256.00 26.35
257.00 26.37
258.00 26.40
259.00 26.43
260.00 26.47
261.00 26.49
262.00 26.48
263.00 26.44
264.00 26.34
265.00 26.17
266.00 25.92
267.00 25.59
268.00 25.17
269.00 24.68
270.00 24.14
271.00 23.56
272.00 22.96
273.00 22.35
274.00 21.74
275.00 21.15
276.00 20.57
277.00 20.02
278.00 19.49
279.00 18.98
280.00 18.50
281.00 18.04
282.00 17.61
283.00 17.19
284.00 16.79
285.00 16.40
286.00 16.02
287.00 15.65
288.00 15.30
289.00 14.94
290.00 14.60
291.00 14.26
292.00 13.92
293.00 13.58
294.00 13.25
295.00 12.93
296.00 12.62
297.00 12.30
298.00 12.00
299.00 11.70
300.00 11.41
301.00 11.12
302.00 10.84
303.00 10.56
304.00 10.29
305.00 10.02
306.00 9.75
307.00 9.47
308.00 9.19
309.00 8.91
310.00 8.63
311.00 8.33
312.00 8.03
313.00 7.72
314.00 7.41
315.00 7.10
316.00 6.77
317.00 6.45
318.00 6.13
319.00 5.82
320.00 5.51
321.00 5.21
322.00 4.91
323.00 4.63
324.00 4.36
325.00 4.10
326.00 3.86
327.00 3.63
328.00 3.41
329.00 3.21
330.00 3.02
331.00 2.85
332.00 2.69
333.00 2.54
334.00 2.40
335.00 2.28
336.00 2.16
337.00 2.05
338.00 1.95
339.00 1.86
340.00 1.77
341.00 1.68
342.00 1.59
343.00 1.51
344.00 1.42
345.00 1.33
346.00 1.24
347.00 1.15
348.00 1.05
349.00 0.94
350.00 0.84
351.00 0.73
352.00 0.62
353.00 0.52
354.00 0.41
355.00 0.32
356.00 0.23
357.00 0.16
358.00 0.10
359.00 0.05
VERTICAL 360
0.00 0.00
1.00 0.35
2.00 2.14
3.00 5.81
4.00 12.82
5.00 23.19
6.00 14.85
7.00 12.99
8.00 14.35
9.00 16.36
10.00 14.71
11.00 12.90
12.00 13.34
13.00 16.27
14.00 20.01
15.00 18.17
16.00 15.93
17.00 15.90
18.00 18.56
19.00 27.52
20.00 26.70
21.00 18.73
22.00 16.70
23.00 17.27
24.00 19.38
25.00 21.70
26.00 22.75
27.00 21.64
28.00 18.96
29.00 16.64
30.00 15.51
31.00 15.78
32.00 17.68
33.00 21.94
34.00 30.14
35.00 26.13
36.00 21.23
37.00 19.37
38.00 19.35
39.00 21.04
40.00 25.33
41.00 37.03
42.00 28.54
43.00 23.26
44.00 21.82
45.00 22.57
46.00 25.08
47.00 29.05
48.00 32.38
49.00 30.49
50.00 27.75
51.00 26.68
52.00 27.54
53.00 30.74
54.00 37.45
55.00 58.06
56.00 45.25
57.00 42.23
58.00 47.31
59.00 41.10
60.00 31.19
61.00 26.37
62.00 23.76
63.00 22.36
64.00 21.62
65.00 21.25
66.00 21.18
67.00 21.38
68.00 21.80
69.00 22.28
70.00 22.69
71.00 23.02
72.00 23.36
73.00 23.74
74.00 24.21
75.00 24.81
76.00 25.55
77.00 26.45
78.00 27.39
79.00 28.32
80.00 29.26
81.00 30.40
82.00 32.06
83.00 34.19
84.00 35.17
85.00 33.06
86.00 29.57
87.00 26.97
88.00 26.10
89.00 27.24
90.00 30.53
91.00 35.42
92.00 38.36
93.00 36.86
94.00 33.66
95.00 31.93
96.00 32.39
97.00 34.73
98.00 37.05
99.00 35.85
100.00 33.57
101.00 32.75
102.00 33.75
103.00 36.00
104.00 37.47
105.00 36.36
106.00 34.38
107.00 33.48
108.00 34.11
109.00 35.52
110.00 36.02
111.00 35.16
112.00 34.17
113.00 33.99
114.00 34.72
115.00 35.39
116.00 34.73
117.00 33.06
118.00 31.77
119.00 31.63
120.00 32.62
121.00 34.12
122.00 35.25
123.00 35.59
124.00 35.33
125.00 35.09
126.00 35.30
127.00 35.99
128.00 37.09
129.00 38.41
130.00 39.31
131.00 39.18
132.00 38.69
133.00 38.21
134.00 37.75
135.00 38.35
136.00 41.52
137.00 49.31
138.00 45.89
139.00 40.46
140.00 37.70
141.00 36.33
142.00 36.07
143.00 36.40
144.00 36.55
145.00 36.75
146.00 37.91
147.00 40.18
148.00 42.46
149.00 44.24
150.00 44.17
151.00 41.65
152.00 40.77
153.00 41.09
154.00 38.95
155.00 36.03
156.00 33.93
157.00 32.44
158.00 31.93
159.00 32.89
160.00 34.83
161.00 35.98
162.00 36.92
163.00 38.96
164.00 39.06
165.00 38.03
166.00 38.35
167.00 37.07
168.00 35.17
169.00 35.47
170.00 37.68
171.00 38.48
172.00 38.31
173.00 40.63
174.00 44.57
175.00 42.84
176.00 40.15
177.00 37.56
178.00 35.11
179.00 33.81
180.00 33.95
181.00 35.39
182.00 37.47
183.00 38.89
184.00 39.81
185.00 41.11
186.00 40.59
187.00 37.96
188.00 35.57
189.00 33.45
190.00 31.86
191.00 31.56
192.00 32.82
193.00 34.38
194.00 34.09
195.00 33.40
196.00 32.96
197.00 32.20
198.00 32.09
199.00 33.50
200.00 35.60
201.00 36.72
202.00 37.64
203.00 38.44
204.00 38.86
205.00 40.29
206.00 41.32
207.00 41.86
208.00 42.44
209.00 38.39
210.00 36.56
211.00 39.84
212.00 50.35
213.00 39.74
214.00 37.90
215.00 38.95
216.00 38.55
217.00 39.94
218.00 47.13
219.00 41.53
220.00 38.77
221.00 42.62
222.00 56.31
223.00 41.43
224.00 37.85
225.00 35.27
226.00 32.80
227.00 31.51
228.00 31.54
229.00 32.15
230.00 32.22
231.00 31.86
232.00 32.11
233.00 33.46
234.00 36.04
235.00 39.05
236.00 38.70
237.00 36.07
238.00 34.88
239.00 35.92
240.00 39.90
241.00 50.17
242.00 53.11
243.00 46.69
244.00 46.70
245.00 50.78
246.00 61.12
247.00 44.40
248.00 38.03
249.00 34.73
250.00 33.47
251.00 33.71
252.00 34.82
253.00 35.84
254.00 35.97
255.00 35.74
256.00 36.23
257.00 37.97
258.00 40.45
259.00 41.20
260.00 39.77
261.00 38.50
262.00 37.56
263.00 35.89
264.00 33.35
265.00 31.35
266.00 30.83
267.00 32.29
268.00 36.56
269.00 43.04
270.00 35.73
271.00 30.38
272.00 27.42
273.00 25.97
274.00 25.64
275.00 26.26
276.00 27.80
277.00 29.99
278.00 31.64
279.00 30.96
280.00 28.34
281.00 25.58
282.00 23.47
283.00 22.12
284.00 21.39
285.00 21.05
286.00 20.84
287.00 20.50
288.00 19.93
289.00 19.20
290.00 18.49
291.00 17.99
292.00 17.74
293.00 17.70
294.00 17.83
295.00 18.14
296.00 18.65
297.00 19.45
298.00 20.76
299.00 23.04
300.00 27.17
301.00 35.48
302.00 33.04
303.00 27.04
304.00 24.49
305.00 23.55
306.00 23.60
307.00 24.40
308.00 25.23
309.00 24.63
310.00 22.95
311.00 21.63
312.00 21.36
313.00 22.64
314.00 26.48
315.00 30.88
316.00 24.97
317.00 21.48
318.00 20.77
319.00 22.33
320.00 27.03
321.00 38.30
322.00 25.43
323.00 20.03
324.00 17.64
325.00 17.02
326.00 17.65
327.00 19.01
328.00 20.04
329.00 19.86
330.00 18.86
331.00 17.44
332.00 15.62
333.00 13.80
334.00 12.73
335.00 13.07
336.00 15.62
337.00 22.94
338.00 28.79
339.00 18.40
340.00 16.11
341.00 17.45
342.00 23.97
343.00 30.18
344.00 19.57
345.00 17.36
346.00 18.95
347.00 24.47
348.00 24.01
349.00 19.55
350.00 19.05
351.00 22.50
352.00 34.49
353.00 26.91
354.00 22.58
355.00 18.78
356.00 12.25
357.00 6.88
358.00 3.19
359.00 0.94
