NAME ATR4518R7_0832_X_CO_P45_05T
FREQUENCY 0832
GAIN 14.49 dBd
TILT	ELECTRICAL
COMMENT DATE 05.08.2013 +45 degrees polarized system Lever position 05T deg
HORIZONTAL 360
0.00 0.00
1.00 0.00
2.00 0.01
3.00 0.02
4.00 0.04
5.00 0.07
6.00 0.10
7.00 0.13
8.00 0.18
9.00 0.22
10.00 0.28
11.00 0.34
12.00 0.40
13.00 0.47
14.00 0.55
15.00 0.63
16.00 0.71
17.00 0.80
18.00 0.90
19.00 1.00
20.00 1.11
21.00 1.23
22.00 1.35
23.00 1.47
24.00 1.60
25.00 1.74
26.00 1.88
27.00 2.02
28.00 2.17
29.00 2.33
30.00 2.49
31.00 2.66
32.00 2.83
33.00 3.01
34.00 3.19
35.00 3.38
36.00 3.58
37.00 3.78
38.00 3.98
39.00 4.19
40.00 4.40
41.00 4.62
42.00 4.85
43.00 5.08
44.00 5.31
45.00 5.55
46.00 5.79
47.00 6.04
48.00 6.30
49.00 6.56
50.00 6.82
51.00 7.09
52.00 7.36
53.00 7.63
54.00 7.91
55.00 8.20
56.00 8.49
57.00 8.78
58.00 9.08
59.00 9.38
60.00 9.68
61.00 9.99
62.00 10.30
63.00 10.62
64.00 10.94
65.00 11.26
66.00 11.59
67.00 11.92
68.00 12.25
69.00 12.58
70.00 12.92
71.00 13.26
72.00 13.60
73.00 13.95
74.00 14.29
75.00 14.64
76.00 14.99
77.00 15.35
78.00 15.71
79.00 16.07
80.00 16.43
81.00 16.79
82.00 17.15
83.00 17.52
84.00 17.89
85.00 18.26
86.00 18.63
87.00 19.01
88.00 19.38
89.00 19.76
90.00 20.14
91.00 20.53
92.00 20.91
93.00 21.30
94.00 21.69
95.00 22.08
96.00 22.47
97.00 22.87
98.00 23.26
99.00 23.65
100.00 24.05
101.00 24.44
102.00 24.83
103.00 25.21
104.00 25.59
105.00 25.96
106.00 26.33
107.00 26.68
108.00 27.03
109.00 27.35
110.00 27.67
111.00 27.96
112.00 28.24
113.00 28.50
114.00 28.73
115.00 28.95
116.00 29.14
117.00 29.31
118.00 29.46
119.00 29.59
120.00 29.70
121.00 29.79
122.00 29.88
123.00 29.95
124.00 30.02
125.00 30.07
126.00 30.12
127.00 30.17
128.00 30.22
129.00 30.27
130.00 30.32
131.00 30.38
132.00 30.43
133.00 30.50
134.00 30.57
135.00 30.64
136.00 30.73
137.00 30.82
138.00 30.92
139.00 31.03
140.00 31.14
141.00 31.26
142.00 31.39
143.00 31.53
144.00 31.67
145.00 31.82
146.00 31.97
147.00 32.13
148.00 32.30
149.00 32.46
150.00 32.63
151.00 32.81
152.00 32.98
153.00 33.16
154.00 33.33
155.00 33.51
156.00 33.69
157.00 33.86
158.00 34.03
159.00 34.21
160.00 34.37
161.00 34.53
162.00 34.70
163.00 34.86
164.00 35.01
165.00 35.16
166.00 35.32
167.00 35.47
168.00 35.61
169.00 35.76
170.00 35.90
171.00 36.05
172.00 36.19
173.00 36.33
174.00 36.47
175.00 36.60
176.00 36.73
177.00 36.85
178.00 36.97
179.00 37.08
180.00 37.18
181.00 37.28
182.00 37.36
183.00 37.42
184.00 37.47
185.00 37.49
186.00 37.51
187.00 37.50
188.00 37.47
189.00 37.42
190.00 37.36
191.00 37.28
192.00 37.18
193.00 37.07
194.00 36.94
195.00 36.81
196.00 36.67
197.00 36.52
198.00 36.38
199.00 36.22
200.00 36.08
201.00 35.93
202.00 35.79
203.00 35.66
204.00 35.53
205.00 35.40
206.00 35.29
207.00 35.19
208.00 35.09
209.00 35.00
210.00 34.93
211.00 34.86
212.00 34.80
213.00 34.74
214.00 34.70
215.00 34.66
216.00 34.64
217.00 34.61
218.00 34.59
219.00 34.57
220.00 34.55
221.00 34.53
222.00 34.51
223.00 34.48
224.00 34.44
225.00 34.39
226.00 34.33
227.00 34.25
228.00 34.15
229.00 34.02
230.00 33.88
231.00 33.71
232.00 33.50
233.00 33.27
234.00 33.01
235.00 32.73
236.00 32.41
237.00 32.07
238.00 31.71
239.00 31.33
240.00 30.93
241.00 30.52
242.00 30.09
243.00 29.66
244.00 29.22
245.00 28.77
246.00 28.32
247.00 27.87
248.00 27.42
249.00 26.97
250.00 26.53
251.00 26.09
252.00 25.65
253.00 25.22
254.00 24.79
255.00 24.37
256.00 23.95
257.00 23.54
258.00 23.14
259.00 22.74
260.00 22.35
261.00 21.97
262.00 21.60
263.00 21.23
264.00 20.86
265.00 20.51
266.00 20.16
267.00 19.81
268.00 19.47
269.00 19.14
270.00 18.81
271.00 18.49
272.00 18.17
273.00 17.85
274.00 17.54
275.00 17.24
276.00 16.93
277.00 16.63
278.00 16.33
279.00 16.03
280.00 15.74
281.00 15.44
282.00 15.15
283.00 14.86
284.00 14.57
285.00 14.28
286.00 13.99
287.00 13.69
288.00 13.40
289.00 13.11
290.00 12.82
291.00 12.53
292.00 12.24
293.00 11.95
294.00 11.66
295.00 11.36
296.00 11.07
297.00 10.78
298.00 10.49
299.00 10.19
300.00 9.91
301.00 9.61
302.00 9.33
303.00 9.04
304.00 8.76
305.00 8.47
306.00 8.19
307.00 7.91
308.00 7.64
309.00 7.36
310.00 7.09
311.00 6.82
312.00 6.56
313.00 6.30
314.00 6.04
315.00 5.79
316.00 5.55
317.00 5.30
318.00 5.07
319.00 4.83
320.00 4.60
321.00 4.38
322.00 4.16
323.00 3.95
324.00 3.74
325.00 3.53
326.00 3.34
327.00 3.14
328.00 2.96
329.00 2.78
330.00 2.60
331.00 2.43
332.00 2.26
333.00 2.11
334.00 1.95
335.00 1.80
336.00 1.66
337.00 1.53
338.00 1.40
339.00 1.27
340.00 1.15
341.00 1.04
342.00 0.93
343.00 0.83
344.00 0.74
345.00 0.65
346.00 0.56
347.00 0.49
348.00 0.41
349.00 0.35
350.00 0.29
351.00 0.23
352.00 0.18
353.00 0.14
354.00 0.10
355.00 0.07
356.00 0.05
357.00 0.03
358.00 0.01
359.00 0.00
VERTICAL 360
0.00 4.13
1.00 2.51
2.00 1.32
3.00 0.53
4.00 0.10
5.00 0.00
6.00 0.23
7.00 0.80
8.00 1.72
9.00 3.03
10.00 4.79
11.00 7.12
12.00 10.22
13.00 14.52
14.00 21.25
15.00 34.69
16.00 26.03
17.00 22.40
18.00 21.98
19.00 23.74
20.00 28.38
21.00 35.53
22.00 27.24
23.00 22.26
24.00 19.61
25.00 18.26
26.00 17.82
27.00 18.18
28.00 19.33
29.00 21.34
30.00 24.43
31.00 28.73
32.00 32.02
33.00 30.00
34.00 27.56
35.00 26.41
36.00 26.47
37.00 27.84
38.00 31.25
39.00 41.12
40.00 37.15
41.00 28.30
42.00 24.08
43.00 21.58
44.00 20.07
45.00 19.28
46.00 18.99
47.00 19.08
48.00 19.40
49.00 19.82
50.00 20.32
51.00 20.94
52.00 21.79
53.00 23.03
54.00 24.83
55.00 27.35
56.00 30.75
57.00 34.91
58.00 38.26
59.00 38.76
60.00 38.26
61.00 37.84
62.00 37.02
63.00 35.56
64.00 33.93
65.00 32.72
66.00 32.26
67.00 32.75
68.00 34.31
69.00 36.79
70.00 38.62
71.00 37.51
72.00 35.41
73.00 33.87
74.00 33.01
75.00 32.81
76.00 33.25
77.00 34.06
78.00 34.25
79.00 32.94
80.00 31.03
81.00 29.55
82.00 28.74
83.00 28.57
84.00 28.90
85.00 29.51
86.00 30.03
87.00 30.10
88.00 29.68
89.00 29.07
90.00 28.61
91.00 28.43
92.00 28.53
93.00 28.87
94.00 29.36
95.00 29.94
96.00 30.55
97.00 31.07
98.00 31.36
99.00 31.38
100.00 31.21
101.00 31.02
102.00 30.94
103.00 31.07
104.00 31.45
105.00 32.12
106.00 33.06
107.00 34.15
108.00 35.11
109.00 35.52
110.00 35.25
111.00 34.58
112.00 33.94
113.00 33.61
114.00 33.69
115.00 34.20
116.00 35.13
117.00 36.39
118.00 37.85
119.00 39.21
120.00 40.23
121.00 41.10
122.00 42.40
123.00 44.46
124.00 45.43
125.00 42.41
126.00 38.77
127.00 36.03
128.00 34.08
129.00 32.67
130.00 31.61
131.00 30.79
132.00 30.15
133.00 29.70
134.00 29.44
135.00 29.46
136.00 29.84
137.00 30.67
138.00 32.04
139.00 33.93
140.00 35.91
141.00 36.48
142.00 35.00
143.00 33.01
144.00 31.43
145.00 30.40
146.00 29.84
147.00 29.66
148.00 29.78
149.00 30.10
150.00 30.56
151.00 31.12
152.00 31.80
153.00 32.64
154.00 33.69
155.00 35.05
156.00 36.81
157.00 39.15
158.00 42.35
159.00 46.57
160.00 49.43
161.00 47.71
162.00 46.13
163.00 46.36
164.00 48.44
165.00 49.76
166.00 45.99
167.00 41.96
168.00 39.17
169.00 37.26
170.00 36.00
171.00 35.26
172.00 35.01
173.00 35.24
174.00 35.97
175.00 37.23
176.00 38.13
177.00 39.72
178.00 42.20
179.00 45.54
180.00 47.96
181.00 47.18
182.00 46.55
183.00 47.87
184.00 52.45
185.00 51.88
186.00 44.45
187.00 40.01
188.00 37.25
189.00 35.53
190.00 34.51
191.00 33.98
192.00 33.81
193.00 33.87
194.00 34.14
195.00 34.61
196.00 35.31
197.00 36.28
198.00 37.54
199.00 39.01
200.00 40.50
201.00 41.65
202.00 42.07
203.00 41.64
204.00 40.81
205.00 40.22
206.00 40.38
207.00 41.65
208.00 43.81
209.00 44.09
210.00 41.09
211.00 38.24
212.00 36.40
213.00 35.31
214.00 34.66
215.00 34.22
216.00 33.83
217.00 33.46
218.00 33.11
219.00 32.77
220.00 32.46
221.00 32.24
222.00 32.22
223.00 32.55
224.00 33.39
225.00 34.86
226.00 36.77
227.00 38.15
228.00 37.82
229.00 36.56
230.00 35.45
231.00 34.69
232.00 34.08
233.00 33.32
234.00 32.26
235.00 31.03
236.00 29.93
237.00 29.21
238.00 28.96
239.00 29.19
240.00 29.80
241.00 30.65
242.00 31.50
243.00 32.04
244.00 32.00
245.00 31.45
246.00 30.76
247.00 30.31
248.00 30.26
249.00 30.60
250.00 31.21
251.00 31.87
252.00 32.36
253.00 32.58
254.00 32.62
255.00 32.68
256.00 32.92
257.00 33.43
258.00 34.16
259.00 34.98
260.00 35.73
261.00 36.21
262.00 36.31
263.00 36.14
264.00 36.05
265.00 36.45
266.00 37.65
267.00 39.89
268.00 43.43
269.00 47.92
270.00 49.81
271.00 48.34
272.00 47.31
273.00 46.94
274.00 46.08
275.00 43.60
276.00 40.24
277.00 37.19
278.00 34.84
279.00 33.21
280.00 32.26
281.00 31.88
282.00 31.99
283.00 32.52
284.00 33.36
285.00 34.39
286.00 35.46
287.00 36.44
288.00 37.31
289.00 38.33
290.00 40.01
291.00 43.22
292.00 50.66
293.00 52.44
294.00 42.94
295.00 38.70
296.00 36.35
297.00 35.05
298.00 34.45
299.00 34.31
300.00 34.49
301.00 34.93
302.00 35.81
303.00 37.69
304.00 42.40
305.00 54.45
306.00 37.50
307.00 30.90
308.00 26.75
309.00 23.84
310.00 21.73
311.00 20.22
312.00 19.18
313.00 18.53
314.00 18.17
315.00 18.05
316.00 18.12
317.00 18.35
318.00 18.79
319.00 19.49
320.00 20.58
321.00 22.22
322.00 24.65
323.00 28.38
324.00 34.62
325.00 41.36
326.00 34.97
327.00 31.81
328.00 31.04
329.00 31.95
330.00 34.66
331.00 40.34
332.00 49.93
333.00 39.46
334.00 34.49
335.00 31.64
336.00 29.74
337.00 28.30
338.00 27.09
339.00 25.90
340.00 24.65
341.00 23.41
342.00 22.38
343.00 21.76
344.00 21.73
345.00 22.52
346.00 24.48
347.00 28.58
348.00 40.14
349.00 34.21
350.00 26.85
351.00 23.94
352.00 23.28
353.00 25.03
354.00 32.61
355.00 28.05
356.00 18.31
357.00 12.88
358.00 9.10
359.00 6.28
