NAME ATR4518R7_0947_X_CO_M45_08T
FREQUENCY 0947
GAIN 15.12 dBd
TILT	ELECTRICAL
COMMENT DATE 05.08.2013 -45 degrees polarized system Lever position 08T deg
HORIZONTAL 360
0.00 0.03
1.00 0.02
2.00 0.01
3.00 0.00
4.00 0.01
5.00 0.02
6.00 0.04
7.00 0.06
8.00 0.09
9.00 0.13
10.00 0.17
11.00 0.23
12.00 0.29
13.00 0.36
14.00 0.43
15.00 0.51
16.00 0.60
17.00 0.70
18.00 0.80
19.00 0.91
20.00 1.03
21.00 1.15
22.00 1.29
23.00 1.43
24.00 1.58
25.00 1.73
26.00 1.90
27.00 2.07
28.00 2.25
29.00 2.43
30.00 2.63
31.00 2.83
32.00 3.04
33.00 3.25
34.00 3.48
35.00 3.71
36.00 3.95
37.00 4.20
38.00 4.45
39.00 4.72
40.00 4.99
41.00 5.27
42.00 5.56
43.00 5.85
44.00 6.16
45.00 6.47
46.00 6.79
47.00 7.12
48.00 7.46
49.00 7.81
50.00 8.17
51.00 8.53
52.00 8.91
53.00 9.29
54.00 9.69
55.00 10.09
56.00 10.51
57.00 10.93
58.00 11.37
59.00 11.82
60.00 12.28
61.00 12.75
62.00 13.24
63.00 13.74
64.00 14.26
65.00 14.78
66.00 15.33
67.00 15.89
68.00 16.47
69.00 17.06
70.00 17.68
71.00 18.31
72.00 18.96
73.00 19.63
74.00 20.32
75.00 21.03
76.00 21.76
77.00 22.51
78.00 23.27
79.00 24.05
80.00 24.83
81.00 25.61
82.00 26.38
83.00 27.12
84.00 27.82
85.00 28.46
86.00 29.03
87.00 29.49
88.00 29.86
89.00 30.12
90.00 30.29
91.00 30.37
92.00 30.40
93.00 30.38
94.00 30.33
95.00 30.28
96.00 30.23
97.00 30.19
98.00 30.16
99.00 30.16
100.00 30.19
101.00 30.24
102.00 30.33
103.00 30.45
104.00 30.60
105.00 30.78
106.00 31.00
107.00 31.25
108.00 31.53
109.00 31.85
110.00 32.20
111.00 32.59
112.00 33.01
113.00 33.47
114.00 33.96
115.00 34.48
116.00 35.05
117.00 35.65
118.00 36.28
119.00 36.96
120.00 37.66
121.00 38.41
122.00 39.18
123.00 39.98
124.00 40.81
125.00 41.66
126.00 42.52
127.00 43.39
128.00 44.25
129.00 45.08
130.00 45.88
131.00 46.61
132.00 47.23
133.00 47.70
134.00 47.98
135.00 48.04
136.00 47.85
137.00 47.42
138.00 46.80
139.00 46.02
140.00 45.15
141.00 44.22
142.00 43.28
143.00 42.34
144.00 41.42
145.00 40.53
146.00 39.68
147.00 38.86
148.00 38.08
149.00 37.35
150.00 36.65
151.00 35.99
152.00 35.37
153.00 34.79
154.00 34.24
155.00 33.72
156.00 33.23
157.00 32.77
158.00 32.35
159.00 31.95
160.00 31.57
161.00 31.22
162.00 30.90
163.00 30.61
164.00 30.33
165.00 30.07
166.00 29.84
167.00 29.63
168.00 29.44
169.00 29.26
170.00 29.11
171.00 28.97
172.00 28.85
173.00 28.75
174.00 28.67
175.00 28.60
176.00 28.54
177.00 28.51
178.00 28.48
179.00 28.48
180.00 28.48
181.00 28.51
182.00 28.54
183.00 28.59
184.00 28.66
185.00 28.74
186.00 28.83
187.00 28.93
188.00 29.05
189.00 29.18
190.00 29.33
191.00 29.49
192.00 29.67
193.00 29.86
194.00 30.07
195.00 30.29
196.00 30.53
197.00 30.78
198.00 31.06
199.00 31.35
200.00 31.66
201.00 31.99
202.00 32.34
203.00 32.71
204.00 33.10
205.00 33.52
206.00 33.97
207.00 34.44
208.00 34.93
209.00 35.46
210.00 36.00
211.00 36.56
212.00 37.13
213.00 37.69
214.00 38.24
215.00 38.73
216.00 39.15
217.00 39.43
218.00 39.57
219.00 39.52
220.00 39.31
221.00 38.94
222.00 38.45
223.00 37.88
224.00 37.26
225.00 36.63
226.00 35.99
227.00 35.37
228.00 34.77
229.00 34.19
230.00 33.63
231.00 33.11
232.00 32.62
233.00 32.15
234.00 31.70
235.00 31.28
236.00 30.89
237.00 30.51
238.00 30.16
239.00 29.82
240.00 29.50
241.00 29.19
242.00 28.90
243.00 28.62
244.00 28.35
245.00 28.08
246.00 27.83
247.00 27.57
248.00 27.32
249.00 27.07
250.00 26.82
251.00 26.56
252.00 26.30
253.00 26.03
254.00 25.76
255.00 25.48
256.00 25.19
257.00 24.89
258.00 24.58
259.00 24.25
260.00 23.92
261.00 23.58
262.00 23.24
263.00 22.88
264.00 22.52
265.00 22.15
266.00 21.78
267.00 21.40
268.00 21.03
269.00 20.65
270.00 20.27
271.00 19.89
272.00 19.51
273.00 19.14
274.00 18.77
275.00 18.40
276.00 18.04
277.00 17.68
278.00 17.32
279.00 16.97
280.00 16.62
281.00 16.28
282.00 15.94
283.00 15.61
284.00 15.28
285.00 14.96
286.00 14.64
287.00 14.32
288.00 14.01
289.00 13.71
290.00 13.40
291.00 13.11
292.00 12.81
293.00 12.52
294.00 12.23
295.00 11.95
296.00 11.66
297.00 11.38
298.00 11.11
299.00 10.83
300.00 10.56
301.00 10.29
302.00 10.02
303.00 9.76
304.00 9.49
305.00 9.23
306.00 8.97
307.00 8.71
308.00 8.45
309.00 8.20
310.00 7.95
311.00 7.69
312.00 7.45
313.00 7.20
314.00 6.95
315.00 6.71
316.00 6.47
317.00 6.23
318.00 6.00
319.00 5.76
320.00 5.53
321.00 5.31
322.00 5.08
323.00 4.86
324.00 4.64
325.00 4.43
326.00 4.22
327.00 4.01
328.00 3.81
329.00 3.61
330.00 3.42
331.00 3.22
332.00 3.04
333.00 2.86
334.00 2.68
335.00 2.51
336.00 2.34
337.00 2.18
338.00 2.02
339.00 1.87
340.00 1.72
341.00 1.58
342.00 1.45
343.00 1.32
344.00 1.19
345.00 1.07
346.00 0.96
347.00 0.85
348.00 0.75
349.00 0.66
350.00 0.57
351.00 0.49
352.00 0.41
353.00 0.34
354.00 0.28
355.00 0.22
356.00 0.17
357.00 0.13
358.00 0.09
359.00 0.06
VERTICAL 360
0.00 14.02
1.00 10.35
2.00 7.32
3.00 4.89
4.00 3.00
5.00 1.61
6.00 0.66
7.00 0.14
8.00 0.00
9.00 0.24
10.00 0.86
11.00 1.88
12.00 3.37
13.00 5.42
14.00 8.14
15.00 11.72
16.00 16.42
17.00 22.02
18.00 24.50
19.00 23.17
20.00 22.67
21.00 23.74
22.00 26.70
23.00 33.17
24.00 47.01
25.00 32.27
26.00 28.37
27.00 27.23
28.00 27.78
29.00 29.69
30.00 32.00
31.00 32.11
32.00 30.33
33.00 29.02
34.00 28.79
35.00 29.64
36.00 31.12
37.00 31.51
38.00 29.44
39.00 26.68
40.00 24.43
41.00 22.88
42.00 22.00
43.00 21.76
44.00 22.03
45.00 22.73
46.00 23.93
47.00 26.00
48.00 29.79
49.00 38.58
50.00 38.50
51.00 30.04
52.00 26.76
53.00 25.46
54.00 25.13
55.00 25.04
56.00 24.77
57.00 24.43
58.00 24.38
59.00 25.01
60.00 26.51
61.00 28.45
62.00 29.62
63.00 29.57
64.00 29.21
65.00 29.41
66.00 30.96
67.00 34.68
68.00 41.77
69.00 49.37
70.00 47.39
71.00 40.86
72.00 34.05
73.00 29.63
74.00 27.27
75.00 26.77
76.00 28.11
77.00 31.40
78.00 34.44
79.00 31.67
80.00 28.28
81.00 26.06
82.00 25.47
83.00 26.53
84.00 28.44
85.00 29.80
86.00 29.03
87.00 27.36
88.00 26.00
89.00 26.06
90.00 27.33
91.00 28.73
92.00 29.60
93.00 29.03
94.00 26.92
95.00 25.42
96.00 25.35
97.00 26.43
98.00 27.79
99.00 28.75
100.00 28.64
101.00 27.23
102.00 26.38
103.00 26.68
104.00 28.00
105.00 30.10
106.00 31.88
107.00 31.45
108.00 30.37
109.00 30.43
110.00 31.79
111.00 34.25
112.00 37.31
113.00 37.76
114.00 36.21
115.00 36.74
116.00 40.89
117.00 52.35
118.00 44.21
119.00 39.56
120.00 38.06
121.00 38.22
122.00 37.86
123.00 35.20
124.00 32.64
125.00 31.23
126.00 30.81
127.00 31.14
128.00 31.87
129.00 32.43
130.00 32.78
131.00 33.52
132.00 35.16
133.00 38.13
134.00 44.29
135.00 59.80
136.00 42.22
137.00 37.86
138.00 35.96
139.00 35.01
140.00 34.50
141.00 34.36
142.00 34.74
143.00 35.94
144.00 38.06
145.00 40.59
146.00 42.54
147.00 43.59
148.00 44.64
149.00 47.93
150.00 63.29
151.00 49.88
152.00 44.52
153.00 43.58
154.00 44.97
155.00 45.94
156.00 41.88
157.00 37.22
158.00 34.10
159.00 32.37
160.00 31.77
161.00 32.05
162.00 32.91
163.00 33.71
164.00 33.37
165.00 31.41
166.00 29.20
167.00 27.66
168.00 26.96
169.00 26.97
170.00 27.39
171.00 27.97
172.00 28.59
173.00 29.10
174.00 29.69
175.00 30.02
176.00 29.69
177.00 28.96
178.00 28.38
179.00 28.20
180.00 28.46
181.00 29.17
182.00 30.39
183.00 32.24
184.00 34.87
185.00 38.08
186.00 39.90
187.00 38.80
188.00 36.99
189.00 35.68
190.00 34.95
191.00 34.63
192.00 34.52
193.00 34.53
194.00 34.67
195.00 34.96
196.00 35.57
197.00 36.72
198.00 38.65
199.00 41.73
200.00 45.20
201.00 44.22
202.00 41.90
203.00 41.16
204.00 41.32
205.00 41.17
206.00 40.38
207.00 39.51
208.00 39.13
209.00 39.20
210.00 38.83
211.00 37.32
212.00 35.17
213.00 33.12
214.00 31.60
215.00 30.72
216.00 30.41
217.00 30.42
218.00 30.50
219.00 30.55
220.00 30.67
221.00 31.01
222.00 31.60
223.00 32.27
224.00 32.89
225.00 33.54
226.00 34.19
227.00 34.51
228.00 34.05
229.00 32.96
230.00 31.94
231.00 31.40
232.00 31.32
233.00 31.40
234.00 31.31
235.00 30.96
236.00 30.58
237.00 30.42
238.00 30.54
239.00 30.75
240.00 30.85
241.00 30.79
242.00 30.70
243.00 30.76
244.00 30.97
245.00 31.21
246.00 31.34
247.00 31.39
248.00 31.58
249.00 32.14
250.00 33.06
251.00 34.05
252.00 34.79
253.00 35.18
254.00 35.45
255.00 35.96
256.00 36.88
257.00 37.87
258.00 38.06
259.00 37.16
260.00 36.50
261.00 37.28
262.00 39.86
263.00 43.12
264.00 43.35
265.00 39.31
266.00 35.21
267.00 32.99
268.00 32.63
269.00 33.46
270.00 34.56
271.00 35.80
272.00 36.96
273.00 36.38
274.00 35.35
275.00 35.46
276.00 35.87
277.00 35.75
278.00 36.26
279.00 37.83
280.00 38.84
281.00 38.96
282.00 39.66
283.00 41.31
284.00 44.10
285.00 42.01
286.00 36.79
287.00 34.15
288.00 33.80
289.00 35.42
290.00 39.40
291.00 43.78
292.00 38.02
293.00 34.18
294.00 33.01
295.00 33.88
296.00 36.58
297.00 39.73
298.00 37.99
299.00 35.46
300.00 35.56
301.00 39.11
302.00 44.20
303.00 37.97
304.00 34.05
305.00 32.40
306.00 32.35
307.00 33.70
308.00 35.42
309.00 35.28
310.00 34.51
311.00 35.21
312.00 38.21
313.00 44.93
314.00 46.92
315.00 41.80
316.00 41.44
317.00 45.29
318.00 46.79
319.00 39.74
320.00 34.79
321.00 30.75
322.00 27.30
323.00 24.62
324.00 22.88
325.00 22.17
326.00 22.53
327.00 23.91
328.00 26.21
329.00 29.15
330.00 31.72
331.00 31.07
332.00 27.66
333.00 24.52
334.00 22.50
335.00 21.67
336.00 22.03
337.00 23.59
338.00 26.20
339.00 28.80
340.00 29.14
341.00 28.16
342.00 27.92
343.00 29.07
344.00 31.68
345.00 33.10
346.00 29.06
347.00 24.88
348.00 22.01
349.00 20.23
350.00 19.42
351.00 19.60
352.00 20.97
353.00 23.95
354.00 28.65
355.00 28.76
356.00 25.10
357.00 23.06
358.00 21.29
359.00 18.05
