NAME ATR4518R7_0847_X_CO_M45_02T
FREQUENCY 0847
GAIN 14.57 dBd
TILT	ELECTRICAL
COMMENT DATE 05.08.2013 -45 degrees polarized system Lever position 02T deg
HORIZONTAL 360
0.00 0.01
1.00 0.02
2.00 0.04
3.00 0.06
4.00 0.09
5.00 0.13
6.00 0.17
7.00 0.22
8.00 0.28
9.00 0.34
10.00 0.40
11.00 0.48
12.00 0.56
13.00 0.64
14.00 0.73
15.00 0.83
16.00 0.94
17.00 1.05
18.00 1.17
19.00 1.29
20.00 1.42
21.00 1.55
22.00 1.69
23.00 1.84
24.00 2.00
25.00 2.15
26.00 2.32
27.00 2.49
28.00 2.67
29.00 2.86
30.00 3.05
31.00 3.24
32.00 3.45
33.00 3.66
34.00 3.87
35.00 4.09
36.00 4.32
37.00 4.55
38.00 4.79
39.00 5.04
40.00 5.29
41.00 5.54
42.00 5.81
43.00 6.07
44.00 6.35
45.00 6.63
46.00 6.91
47.00 7.20
48.00 7.50
49.00 7.80
50.00 8.10
51.00 8.42
52.00 8.73
53.00 9.05
54.00 9.38
55.00 9.71
56.00 10.04
57.00 10.38
58.00 10.73
59.00 11.08
60.00 11.43
61.00 11.79
62.00 12.15
63.00 12.52
64.00 12.88
65.00 13.26
66.00 13.64
67.00 14.02
68.00 14.41
69.00 14.80
70.00 15.19
71.00 15.59
72.00 15.99
73.00 16.40
74.00 16.81
75.00 17.22
76.00 17.64
77.00 18.06
78.00 18.49
79.00 18.92
80.00 19.35
81.00 19.78
82.00 20.22
83.00 20.67
84.00 21.11
85.00 21.56
86.00 22.01
87.00 22.46
88.00 22.91
89.00 23.36
90.00 23.80
91.00 24.25
92.00 24.69
93.00 25.12
94.00 25.55
95.00 25.97
96.00 26.38
97.00 26.78
98.00 27.16
99.00 27.53
100.00 27.89
101.00 28.23
102.00 28.56
103.00 28.87
104.00 29.17
105.00 29.46
106.00 29.73
107.00 29.99
108.00 30.24
109.00 30.48
110.00 30.72
111.00 30.95
112.00 31.18
113.00 31.41
114.00 31.65
115.00 31.88
116.00 32.13
117.00 32.37
118.00 32.62
119.00 32.89
120.00 33.15
121.00 33.43
122.00 33.71
123.00 34.01
124.00 34.31
125.00 34.62
126.00 34.93
127.00 35.24
128.00 35.56
129.00 35.88
130.00 36.20
131.00 36.51
132.00 36.82
133.00 37.11
134.00 37.40
135.00 37.67
136.00 37.92
137.00 38.17
138.00 38.39
139.00 38.60
140.00 38.79
141.00 38.98
142.00 39.15
143.00 39.32
144.00 39.48
145.00 39.64
146.00 39.80
147.00 39.97
148.00 40.15
149.00 40.34
150.00 40.55
151.00 40.77
152.00 41.02
153.00 41.28
154.00 41.58
155.00 41.88
156.00 42.21
157.00 42.57
158.00 42.92
159.00 43.28
160.00 43.64
161.00 43.99
162.00 44.31
163.00 44.58
164.00 44.77
165.00 44.88
166.00 44.89
167.00 44.79
168.00 44.60
169.00 44.34
170.00 44.01
171.00 43.63
172.00 43.20
173.00 42.79
174.00 42.37
175.00 41.96
176.00 41.57
177.00 41.20
178.00 40.86
179.00 40.55
180.00 40.28
181.00 40.02
182.00 39.81
183.00 39.62
184.00 39.48
185.00 39.36
186.00 39.28
187.00 39.23
188.00 39.22
189.00 39.25
190.00 39.31
191.00 39.40
192.00 39.53
193.00 39.71
194.00 39.92
195.00 40.18
196.00 40.48
197.00 40.83
198.00 41.23
199.00 41.69
200.00 42.21
201.00 42.79
202.00 43.44
203.00 44.17
204.00 45.00
205.00 45.90
206.00 46.89
207.00 47.94
208.00 49.00
209.00 49.98
210.00 50.67
211.00 50.84
212.00 50.48
213.00 49.68
214.00 48.63
215.00 47.51
216.00 46.40
217.00 45.39
218.00 44.46
219.00 43.61
220.00 42.83
221.00 42.12
222.00 41.48
223.00 40.87
224.00 40.33
225.00 39.82
226.00 39.35
227.00 38.90
228.00 38.48
229.00 38.07
230.00 37.68
231.00 37.29
232.00 36.90
233.00 36.52
234.00 36.12
235.00 35.71
236.00 35.30
237.00 34.87
238.00 34.42
239.00 33.95
240.00 33.48
241.00 32.98
242.00 32.47
243.00 31.95
244.00 31.42
245.00 30.89
246.00 30.34
247.00 29.80
248.00 29.26
249.00 28.72
250.00 28.18
251.00 27.64
252.00 27.11
253.00 26.59
254.00 26.07
255.00 25.56
256.00 25.07
257.00 24.57
258.00 24.09
259.00 23.62
260.00 23.16
261.00 22.70
262.00 22.26
263.00 21.82
264.00 21.39
265.00 20.97
266.00 20.56
267.00 20.16
268.00 19.76
269.00 19.38
270.00 18.99
271.00 18.62
272.00 18.25
273.00 17.89
274.00 17.53
275.00 17.18
276.00 16.84
277.00 16.50
278.00 16.16
279.00 15.83
280.00 15.50
281.00 15.17
282.00 14.85
283.00 14.53
284.00 14.22
285.00 13.91
286.00 13.59
287.00 13.29
288.00 12.98
289.00 12.68
290.00 12.37
291.00 12.07
292.00 11.77
293.00 11.47
294.00 11.18
295.00 10.89
296.00 10.59
297.00 10.30
298.00 10.01
299.00 9.73
300.00 9.44
301.00 9.16
302.00 8.88
303.00 8.59
304.00 8.32
305.00 8.05
306.00 7.77
307.00 7.50
308.00 7.24
309.00 6.98
310.00 6.72
311.00 6.46
312.00 6.21
313.00 5.96
314.00 5.72
315.00 5.48
316.00 5.24
317.00 5.01
318.00 4.78
319.00 4.56
320.00 4.34
321.00 4.12
322.00 3.91
323.00 3.71
324.00 3.51
325.00 3.31
326.00 3.12
327.00 2.94
328.00 2.76
329.00 2.58
330.00 2.41
331.00 2.25
332.00 2.09
333.00 1.94
334.00 1.79
335.00 1.65
336.00 1.51
337.00 1.38
338.00 1.26
339.00 1.14
340.00 1.03
341.00 0.92
342.00 0.82
343.00 0.72
344.00 0.63
345.00 0.55
346.00 0.47
347.00 0.40
348.00 0.33
349.00 0.27
350.00 0.22
351.00 0.17
352.00 0.13
353.00 0.09
354.00 0.06
355.00 0.04
356.00 0.02
357.00 0.01
358.00 0.00
359.00 0.00
VERTICAL 360
0.00 0.62
1.00 0.13
2.00 0.00
3.00 0.22
4.00 0.81
5.00 1.78
6.00 3.18
7.00 5.07
8.00 7.60
9.00 11.01
10.00 15.83
11.00 23.56
12.00 28.82
13.00 23.03
14.00 21.14
15.00 21.67
16.00 24.48
17.00 31.15
18.00 31.90
19.00 24.43
20.00 20.79
21.00 18.94
22.00 18.21
23.00 18.35
24.00 19.30
25.00 21.17
26.00 24.28
27.00 29.57
28.00 41.03
29.00 35.78
30.00 30.65
31.00 29.42
32.00 30.69
33.00 34.86
34.00 34.97
35.00 27.73
36.00 22.97
37.00 19.76
38.00 17.50
39.00 15.88
40.00 14.78
41.00 14.11
42.00 13.82
43.00 13.87
44.00 14.21
45.00 14.81
46.00 15.62
47.00 16.65
48.00 17.92
49.00 19.49
50.00 21.48
51.00 24.07
52.00 27.51
53.00 32.28
54.00 39.42
55.00 52.27
56.00 46.46
57.00 41.43
58.00 38.16
59.00 35.74
60.00 34.15
61.00 33.35
62.00 33.40
63.00 34.57
64.00 37.34
65.00 40.79
66.00 37.96
67.00 33.84
68.00 31.47
69.00 30.43
70.00 30.25
71.00 30.49
72.00 30.60
73.00 30.14
74.00 29.11
75.00 27.91
76.00 26.91
77.00 26.31
78.00 26.14
79.00 26.29
80.00 26.49
81.00 26.43
82.00 26.10
83.00 25.73
84.00 25.58
85.00 25.77
86.00 26.30
87.00 27.06
88.00 27.88
89.00 28.51
90.00 28.74
91.00 28.59
92.00 28.25
93.00 27.97
94.00 27.86
95.00 27.97
96.00 28.32
97.00 28.89
98.00 29.57
99.00 30.21
100.00 30.67
101.00 30.94
102.00 31.22
103.00 31.72
104.00 32.59
105.00 33.92
106.00 35.66
107.00 37.53
108.00 38.96
109.00 39.44
110.00 39.28
111.00 39.19
112.00 39.63
113.00 40.69
114.00 42.11
115.00 43.35
116.00 44.18
117.00 44.55
118.00 43.67
119.00 41.47
120.00 39.20
121.00 37.47
122.00 36.26
123.00 35.35
124.00 34.49
125.00 33.57
126.00 32.61
127.00 31.75
128.00 31.13
129.00 30.85
130.00 30.92
131.00 31.31
132.00 31.98
133.00 32.92
134.00 34.17
135.00 35.84
136.00 38.08
137.00 41.04
138.00 44.79
139.00 48.86
140.00 51.22
141.00 49.89
142.00 46.73
143.00 43.92
144.00 42.06
145.00 41.09
146.00 40.90
147.00 41.53
148.00 43.24
149.00 46.47
150.00 49.22
151.00 45.88
152.00 42.29
153.00 40.09
154.00 38.69
155.00 37.70
156.00 36.97
157.00 36.52
158.00 36.46
159.00 36.93
160.00 38.19
161.00 40.55
162.00 43.94
163.00 45.11
164.00 42.82
165.00 41.18
166.00 40.69
167.00 40.63
168.00 40.23
169.00 39.47
170.00 38.78
171.00 38.38
172.00 38.20
173.00 38.13
174.00 38.10
175.00 38.18
176.00 38.55
177.00 39.39
178.00 40.70
179.00 41.88
180.00 42.69
181.00 43.10
182.00 43.73
183.00 44.92
184.00 46.61
185.00 47.91
186.00 47.16
187.00 44.84
188.00 42.73
189.00 41.47
190.00 41.05
191.00 41.27
192.00 41.87
193.00 42.54
194.00 42.91
195.00 42.84
196.00 42.74
197.00 43.20
198.00 44.50
199.00 46.57
200.00 49.14
201.00 52.52
202.00 57.57
203.00 55.36
204.00 49.96
205.00 46.70
206.00 44.36
207.00 42.39
208.00 40.94
209.00 40.26
210.00 40.43
211.00 41.29
212.00 42.41
213.00 43.10
214.00 42.75
215.00 41.44
216.00 39.81
217.00 38.37
218.00 37.30
219.00 36.68
220.00 36.49
221.00 36.68
222.00 37.07
223.00 37.60
224.00 38.53
225.00 40.41
226.00 43.99
227.00 48.53
228.00 46.28
229.00 42.86
230.00 41.11
231.00 40.20
232.00 39.55
233.00 38.99
234.00 38.50
235.00 37.96
236.00 37.50
237.00 37.48
238.00 38.20
239.00 39.62
240.00 41.12
241.00 41.83
242.00 42.13
243.00 43.03
244.00 44.80
245.00 45.69
246.00 43.33
247.00 40.34
248.00 38.37
249.00 37.52
250.00 37.69
251.00 38.64
252.00 39.90
253.00 40.63
254.00 40.20
255.00 38.97
256.00 37.75
257.00 37.09
258.00 37.17
259.00 37.94
260.00 39.08
261.00 39.97
262.00 39.74
263.00 38.20
264.00 36.34
265.00 35.03
266.00 34.61
267.00 35.15
268.00 36.61
269.00 38.89
270.00 42.06
271.00 46.89
272.00 51.66
273.00 45.68
274.00 41.31
275.00 39.02
276.00 37.93
277.00 37.56
278.00 37.72
279.00 38.46
280.00 40.03
281.00 42.77
282.00 47.20
283.00 53.46
284.00 56.64
285.00 59.24
286.00 61.41
287.00 48.63
288.00 42.50
289.00 38.83
290.00 36.56
291.00 35.26
292.00 34.67
293.00 34.54
294.00 34.52
295.00 34.19
296.00 33.46
297.00 32.72
298.00 32.47
299.00 33.15
300.00 35.24
301.00 39.17
302.00 39.37
303.00 33.68
304.00 29.45
305.00 26.47
306.00 24.20
307.00 22.31
308.00 20.67
309.00 19.24
310.00 18.04
311.00 17.11
312.00 16.50
313.00 16.20
314.00 16.20
315.00 16.48
316.00 17.00
317.00 17.72
318.00 18.60
319.00 19.66
320.00 20.94
321.00 22.52
322.00 24.44
323.00 26.69
324.00 29.12
325.00 31.44
326.00 33.42
327.00 34.88
328.00 35.27
329.00 34.35
330.00 33.17
331.00 32.65
332.00 33.13
333.00 34.45
334.00 34.87
335.00 32.31
336.00 28.92
337.00 26.10
338.00 23.93
339.00 22.29
340.00 21.16
341.00 20.58
342.00 20.70
343.00 21.71
344.00 24.07
345.00 28.91
346.00 37.09
347.00 29.21
348.00 24.66
349.00 23.10
350.00 24.03
351.00 29.35
352.00 30.62
353.00 19.38
354.00 13.53
355.00 9.57
356.00 6.65
357.00 4.42
358.00 2.72
359.00 1.47
