NAME ATR4518R7_1750_X_CO_M45_10T_yyR
FREQUENCY 1750
GAIN 13.87 dBd
TILT	ELECTRICAL
COMMENT DATE 05.08.2013 -45 degrees polarized system Lever position 10T deg
HORIZONTAL 360
0.00 0.03
1.00 0.01
2.00 0.01
3.00 0.00
4.00 0.00
5.00 0.00
6.00 0.01
7.00 0.02
8.00 0.03
9.00 0.06
10.00 0.08
11.00 0.12
12.00 0.16
13.00 0.21
14.00 0.26
15.00 0.33
16.00 0.40
17.00 0.48
18.00 0.58
19.00 0.68
20.00 0.79
21.00 0.91
22.00 1.04
23.00 1.19
24.00 1.35
25.00 1.51
26.00 1.69
27.00 1.89
28.00 2.09
29.00 2.31
30.00 2.54
31.00 2.78
32.00 3.03
33.00 3.30
34.00 3.58
35.00 3.87
36.00 4.17
37.00 4.49
38.00 4.81
39.00 5.15
40.00 5.50
41.00 5.85
42.00 6.22
43.00 6.59
44.00 6.97
45.00 7.36
46.00 7.75
47.00 8.14
48.00 8.54
49.00 8.93
50.00 9.33
51.00 9.72
52.00 10.10
53.00 10.48
54.00 10.86
55.00 11.22
56.00 11.57
57.00 11.92
58.00 12.25
59.00 12.57
60.00 12.87
61.00 13.17
62.00 13.45
63.00 13.73
64.00 13.99
65.00 14.25
66.00 14.50
67.00 14.74
68.00 14.97
69.00 15.20
70.00 15.43
71.00 15.66
72.00 15.89
73.00 16.11
74.00 16.34
75.00 16.57
76.00 16.80
77.00 17.03
78.00 17.27
79.00 17.50
80.00 17.75
81.00 17.99
82.00 18.24
83.00 18.49
84.00 18.75
85.00 19.01
86.00 19.27
87.00 19.53
88.00 19.80
89.00 20.07
90.00 20.34
91.00 20.61
92.00 20.89
93.00 21.16
94.00 21.44
95.00 21.72
96.00 22.00
97.00 22.28
98.00 22.56
99.00 22.84
100.00 23.12
101.00 23.41
102.00 23.69
103.00 23.97
104.00 24.25
105.00 24.54
106.00 24.82
107.00 25.11
108.00 25.39
109.00 25.68
110.00 25.97
111.00 26.26
112.00 26.55
113.00 26.83
114.00 27.12
115.00 27.40
116.00 27.67
117.00 27.93
118.00 28.19
119.00 28.44
120.00 28.67
121.00 28.89
122.00 29.10
123.00 29.30
124.00 29.48
125.00 29.66
126.00 29.83
127.00 30.00
128.00 30.17
129.00 30.36
130.00 30.56
131.00 30.77
132.00 31.02
133.00 31.30
134.00 31.62
135.00 32.00
136.00 32.43
137.00 32.93
138.00 33.52
139.00 34.21
140.00 35.02
141.00 35.98
142.00 37.13
143.00 38.54
144.00 40.30
145.00 42.59
146.00 45.85
147.00 51.20
148.00 64.62
149.00 53.34
150.00 46.90
151.00 43.26
152.00 40.75
153.00 38.86
154.00 37.36
155.00 36.15
156.00 35.16
157.00 34.33
158.00 33.65
159.00 33.09
160.00 32.63
161.00 32.27
162.00 32.00
163.00 31.81
164.00 31.70
165.00 31.66
166.00 31.69
167.00 31.81
168.00 31.99
169.00 32.24
170.00 32.57
171.00 32.97
172.00 33.46
173.00 34.03
174.00 34.68
175.00 35.41
176.00 36.22
177.00 37.08
178.00 37.97
179.00 38.80
180.00 39.47
181.00 39.85
182.00 39.85
183.00 39.47
184.00 38.82
185.00 38.03
186.00 37.20
187.00 36.40
188.00 35.65
189.00 34.97
190.00 34.37
191.00 33.84
192.00 33.38
193.00 32.98
194.00 32.65
195.00 32.38
196.00 32.15
197.00 31.98
198.00 31.85
199.00 31.77
200.00 31.72
201.00 31.71
202.00 31.73
203.00 31.78
204.00 31.85
205.00 31.94
206.00 32.04
207.00 32.15
208.00 32.26
209.00 32.36
210.00 32.45
211.00 32.51
212.00 32.55
213.00 32.56
214.00 32.53
215.00 32.47
216.00 32.38
217.00 32.25
218.00 32.11
219.00 31.96
220.00 31.79
221.00 31.63
222.00 31.48
223.00 31.33
224.00 31.21
225.00 31.12
226.00 31.05
227.00 31.02
228.00 31.02
229.00 31.06
230.00 31.14
231.00 31.27
232.00 31.45
233.00 31.67
234.00 31.95
235.00 32.28
236.00 32.66
237.00 33.09
238.00 33.56
239.00 34.07
240.00 34.60
241.00 35.11
242.00 35.57
243.00 35.92
244.00 36.10
245.00 36.06
246.00 35.80
247.00 35.32
248.00 34.70
249.00 33.98
250.00 33.22
251.00 32.45
252.00 31.69
253.00 30.96
254.00 30.27
255.00 29.60
256.00 28.98
257.00 28.39
258.00 27.84
259.00 27.31
260.00 26.80
261.00 26.32
262.00 25.86
263.00 25.42
264.00 24.99
265.00 24.57
266.00 24.17
267.00 23.77
268.00 23.38
269.00 22.99
270.00 22.61
271.00 22.23
272.00 21.86
273.00 21.49
274.00 21.12
275.00 20.75
276.00 20.38
277.00 20.01
278.00 19.64
279.00 19.27
280.00 18.90
281.00 18.52
282.00 18.15
283.00 17.77
284.00 17.39
285.00 17.01
286.00 16.63
287.00 16.25
288.00 15.86
289.00 15.47
290.00 15.07
291.00 14.68
292.00 14.28
293.00 13.89
294.00 13.49
295.00 13.08
296.00 12.68
297.00 12.28
298.00 11.88
299.00 11.48
300.00 11.08
301.00 10.68
302.00 10.28
303.00 9.89
304.00 9.50
305.00 9.12
306.00 8.75
307.00 8.37
308.00 8.00
309.00 7.64
310.00 7.29
311.00 6.94
312.00 6.60
313.00 6.27
314.00 5.95
315.00 5.64
316.00 5.33
317.00 5.04
318.00 4.75
319.00 4.47
320.00 4.21
321.00 3.95
322.00 3.70
323.00 3.47
324.00 3.24
325.00 3.02
326.00 2.81
327.00 2.61
328.00 2.43
329.00 2.25
330.00 2.08
331.00 1.92
332.00 1.77
333.00 1.62
334.00 1.49
335.00 1.37
336.00 1.25
337.00 1.14
338.00 1.04
339.00 0.94
340.00 0.85
341.00 0.77
342.00 0.70
343.00 0.63
344.00 0.56
345.00 0.50
346.00 0.45
347.00 0.40
348.00 0.35
349.00 0.31
350.00 0.27
351.00 0.24
352.00 0.20
353.00 0.17
354.00 0.14
355.00 0.12
356.00 0.09
357.00 0.07
358.00 0.06
359.00 0.04
VERTICAL 360
0.00 25.57
1.00 28.05
2.00 26.76
3.00 17.79
4.00 11.73
5.00 7.56
6.00 4.57
7.00 2.45
8.00 1.03
9.00 0.22
10.00 0.00
11.00 0.37
12.00 1.37
13.00 3.10
14.00 5.80
15.00 9.99
16.00 17.43
17.00 27.70
18.00 18.05
19.00 15.06
20.00 14.90
21.00 16.71
22.00 20.64
23.00 24.90
24.00 21.89
25.00 18.26
26.00 16.51
27.00 16.18
28.00 17.19
29.00 19.94
30.00 26.42
31.00 47.28
32.00 24.12
33.00 19.58
34.00 17.84
35.00 17.78
36.00 19.29
37.00 22.88
38.00 29.85
39.00 29.56
40.00 23.51
41.00 20.74
42.00 19.60
43.00 19.35
44.00 19.64
45.00 20.39
46.00 21.78
47.00 24.31
48.00 28.78
49.00 34.77
50.00 30.40
51.00 26.77
52.00 24.56
53.00 23.12
54.00 22.11
55.00 21.40
56.00 20.99
57.00 20.88
58.00 21.08
59.00 21.60
60.00 22.36
61.00 23.26
62.00 24.20
63.00 25.18
64.00 26.14
65.00 27.06
66.00 27.80
67.00 28.28
68.00 28.50
69.00 28.62
70.00 28.73
71.00 28.94
72.00 29.19
73.00 29.40
74.00 29.49
75.00 29.39
76.00 29.08
77.00 28.67
78.00 28.34
79.00 28.12
80.00 27.88
81.00 27.49
82.00 26.94
83.00 26.36
84.00 25.96
85.00 25.89
86.00 26.01
87.00 26.30
88.00 26.82
89.00 27.85
90.00 29.63
91.00 31.85
92.00 33.05
93.00 32.42
94.00 31.39
95.00 30.94
96.00 31.26
97.00 32.40
98.00 34.22
99.00 36.32
100.00 38.00
101.00 38.78
102.00 38.99
103.00 39.38
104.00 40.43
105.00 41.82
106.00 42.30
107.00 41.62
108.00 40.91
109.00 40.70
110.00 40.71
111.00 39.98
112.00 34.94
113.00 33.12
114.00 31.80
115.00 31.22
116.00 31.28
117.00 31.74
118.00 32.35
119.00 32.95
120.00 33.60
121.00 34.50
122.00 35.72
123.00 36.65
124.00 35.93
125.00 33.84
126.00 31.93
127.00 30.96
128.00 31.07
129.00 32.28
130.00 34.39
131.00 36.78
132.00 38.41
133.00 38.99
134.00 39.22
135.00 39.63
136.00 40.60
137.00 42.48
138.00 45.59
139.00 50.37
140.00 50.84
141.00 43.06
142.00 37.65
143.00 34.31
144.00 32.52
145.00 31.96
146.00 32.40
147.00 33.54
148.00 34.86
149.00 35.35
150.00 34.35
151.00 32.69
152.00 31.31
153.00 30.53
154.00 30.43
155.00 30.95
156.00 32.04
157.00 33.60
158.00 35.43
159.00 37.15
160.00 38.19
161.00 38.01
162.00 36.79
163.00 35.37
164.00 34.52
165.00 34.66
166.00 35.88
167.00 37.71
168.00 38.75
169.00 38.60
170.00 38.82
171.00 40.06
172.00 40.81
173.00 38.98
174.00 36.56
175.00 35.20
176.00 35.25
177.00 36.87
178.00 40.35
179.00 44.98
180.00 45.01
181.00 41.58
182.00 38.59
183.00 36.32
184.00 35.08
185.00 35.00
186.00 35.98
187.00 37.55
188.00 38.43
189.00 37.23
190.00 34.83
191.00 32.83
192.00 31.88
193.00 32.10
194.00 33.30
195.00 34.82
196.00 35.84
197.00 36.46
198.00 37.29
199.00 38.49
200.00 40.42
201.00 44.12
202.00 49.38
203.00 49.45
204.00 50.94
205.00 49.09
206.00 39.36
207.00 34.33
208.00 31.85
209.00 31.16
210.00 31.99
211.00 34.32
212.00 38.21
213.00 43.53
214.00 47.97
215.00 46.15
216.00 42.08
217.00 39.75
218.00 39.85
219.00 43.66
220.00 54.16
221.00 41.95
222.00 36.49
223.00 34.30
224.00 33.91
225.00 34.61
226.00 35.07
227.00 33.85
228.00 31.88
229.00 30.45
230.00 29.88
231.00 30.13
232.00 31.17
233.00 32.99
234.00 35.74
235.00 39.71
236.00 44.36
237.00 44.89
238.00 42.68
239.00 41.90
240.00 42.36
241.00 43.01
242.00 43.09
243.00 43.19
244.00 43.62
245.00 43.21
246.00 41.69
247.00 40.63
248.00 40.79
249.00 41.90
250.00 42.92
251.00 42.82
252.00 41.91
253.00 40.96
254.00 40.46
255.00 40.67
256.00 41.62
257.00 43.31
258.00 46.00
259.00 50.70
260.00 59.76
261.00 55.37
262.00 50.26
263.00 50.48
264.00 51.52
265.00 43.36
266.00 37.62
267.00 34.47
268.00 32.94
269.00 32.41
270.00 32.32
271.00 32.17
272.00 31.73
273.00 31.10
274.00 30.54
275.00 30.34
276.00 30.61
277.00 31.35
278.00 32.49
279.00 34.08
280.00 36.36
281.00 39.98
282.00 46.67
283.00 55.05
284.00 44.08
285.00 38.25
286.00 34.38
287.00 31.63
288.00 29.58
289.00 27.90
290.00 26.41
291.00 25.15
292.00 24.18
293.00 23.59
294.00 23.43
295.00 23.76
296.00 24.58
297.00 25.87
298.00 27.65
299.00 30.11
300.00 33.31
301.00 33.56
302.00 28.66
303.00 24.48
304.00 21.76
305.00 20.17
306.00 19.46
307.00 19.41
308.00 19.91
309.00 20.94
310.00 22.79
311.00 26.27
312.00 35.22
313.00 36.31
314.00 25.81
315.00 21.46
316.00 18.99
317.00 17.60
318.00 17.05
319.00 17.39
320.00 18.89
321.00 22.32
322.00 30.82
323.00 30.91
324.00 21.90
325.00 18.02
326.00 15.95
327.00 14.91
328.00 14.60
329.00 14.91
330.00 15.80
331.00 17.25
332.00 19.27
333.00 21.80
334.00 24.76
335.00 27.65
336.00 28.20
337.00 25.34
338.00 22.00
339.00 19.39
340.00 17.56
341.00 16.48
342.00 16.19
343.00 16.83
344.00 18.68
345.00 22.21
346.00 25.99
347.00 23.93
348.00 21.12
349.00 20.61
350.00 22.61
351.00 27.04
352.00 25.26
353.00 19.92
354.00 17.10
355.00 16.09
356.00 16.52
357.00 18.30
358.00 21.27
359.00 24.17
