NAME ATR4518R7_2655_X_CO_P45_03T_yyR
FREQUENCY 2655
GAIN 15.76 dBd
TILT	ELECTRICAL
COMMENT DATE 05.08.2013 +45 degrees polarized system Lever position 03T deg
HORIZONTAL 360
0.00 0.07
1.00 0.11
2.00 0.15
3.00 0.21
4.00 0.27
5.00 0.34
6.00 0.42
7.00 0.52
8.00 0.62
9.00 0.73
10.00 0.84
11.00 0.97
12.00 1.10
13.00 1.24
14.00 1.38
15.00 1.53
16.00 1.68
17.00 1.84
18.00 2.00
19.00 2.15
20.00 2.31
21.00 2.47
22.00 2.62
23.00 2.77
24.00 2.92
25.00 3.05
26.00 3.19
27.00 3.32
28.00 3.45
29.00 3.57
30.00 3.68
31.00 3.80
32.00 3.92
33.00 4.03
34.00 4.15
35.00 4.27
36.00 4.39
37.00 4.52
38.00 4.66
39.00 4.81
40.00 4.97
41.00 5.15
42.00 5.33
43.00 5.54
44.00 5.76
45.00 5.99
46.00 6.25
47.00 6.52
48.00 6.80
49.00 7.11
50.00 7.44
51.00 7.79
52.00 8.15
53.00 8.54
54.00 8.94
55.00 9.37
56.00 9.81
57.00 10.29
58.00 10.78
59.00 11.29
60.00 11.83
61.00 12.39
62.00 12.99
63.00 13.60
64.00 14.25
65.00 14.93
66.00 15.63
67.00 16.38
68.00 17.15
69.00 17.96
70.00 18.81
71.00 19.69
72.00 20.61
73.00 21.55
74.00 22.52
75.00 23.51
76.00 24.51
77.00 25.51
78.00 26.47
79.00 27.38
80.00 28.19
81.00 28.88
82.00 29.39
83.00 29.71
84.00 29.82
85.00 29.74
86.00 29.51
87.00 29.17
88.00 28.75
89.00 28.31
90.00 27.87
91.00 27.45
92.00 27.06
93.00 26.73
94.00 26.45
95.00 26.24
96.00 26.10
97.00 26.02
98.00 26.02
99.00 26.09
100.00 26.24
101.00 26.45
102.00 26.73
103.00 27.06
104.00 27.44
105.00 27.83
106.00 28.22
107.00 28.57
108.00 28.84
109.00 29.01
110.00 29.05
111.00 28.98
112.00 28.81
113.00 28.60
114.00 28.38
115.00 28.18
116.00 28.05
117.00 28.00
118.00 28.05
119.00 28.23
120.00 28.54
121.00 29.02
122.00 29.68
123.00 30.57
124.00 31.74
125.00 33.26
126.00 35.29
127.00 38.07
128.00 42.11
129.00 47.22
130.00 45.26
131.00 40.44
132.00 37.16
133.00 34.89
134.00 33.26
135.00 32.08
136.00 31.24
137.00 30.68
138.00 30.35
139.00 30.24
140.00 30.32
141.00 30.59
142.00 31.05
143.00 31.69
144.00 32.48
145.00 33.38
146.00 34.30
147.00 35.07
148.00 35.46
149.00 35.35
150.00 34.80
151.00 34.02
152.00 33.21
153.00 32.48
154.00 31.90
155.00 31.47
156.00 31.21
157.00 31.13
158.00 31.23
159.00 31.50
160.00 31.96
161.00 32.63
162.00 33.52
163.00 34.67
164.00 36.12
165.00 37.99
166.00 40.41
167.00 43.63
168.00 47.95
169.00 51.00
170.00 47.87
171.00 44.24
172.00 41.65
173.00 39.78
174.00 38.37
175.00 37.26
176.00 36.35
177.00 35.56
178.00 34.86
179.00 34.21
180.00 33.61
181.00 33.05
182.00 32.55
183.00 32.10
184.00 31.73
185.00 31.45
186.00 31.26
187.00 31.19
188.00 31.25
189.00 31.45
190.00 31.81
191.00 32.37
192.00 33.15
193.00 34.21
194.00 35.63
195.00 37.59
196.00 40.40
197.00 44.82
198.00 52.53
199.00 48.80
200.00 42.45
201.00 38.71
202.00 36.17
203.00 34.32
204.00 32.93
205.00 31.88
206.00 31.09
207.00 30.53
208.00 30.17
209.00 30.00
210.00 30.01
211.00 30.19
212.00 30.55
213.00 31.09
214.00 31.82
215.00 32.72
216.00 33.75
217.00 34.77
218.00 35.48
219.00 35.53
220.00 34.78
221.00 33.54
222.00 32.15
223.00 30.82
224.00 29.63
225.00 28.61
226.00 27.74
227.00 27.03
228.00 26.45
229.00 26.00
230.00 25.66
231.00 25.44
232.00 25.32
233.00 25.29
234.00 25.36
235.00 25.52
236.00 25.77
237.00 26.09
238.00 26.50
239.00 26.97
240.00 27.50
241.00 28.07
242.00 28.67
243.00 29.27
244.00 29.84
245.00 30.33
246.00 30.73
247.00 31.01
248.00 31.17
249.00 31.22
250.00 31.20
251.00 31.13
252.00 31.05
253.00 30.98
254.00 30.92
255.00 30.89
256.00 30.88
257.00 30.89
258.00 30.91
259.00 30.91
260.00 30.88
261.00 30.79
262.00 30.64
263.00 30.41
264.00 30.09
265.00 29.70
266.00 29.25
267.00 28.75
268.00 28.22
269.00 27.68
270.00 27.13
271.00 26.59
272.00 26.06
273.00 25.55
274.00 25.06
275.00 24.59
276.00 24.14
277.00 23.71
278.00 23.29
279.00 22.89
280.00 22.50
281.00 22.11
282.00 21.73
283.00 21.36
284.00 20.98
285.00 20.59
286.00 20.21
287.00 19.81
288.00 19.40
289.00 18.98
290.00 18.55
291.00 18.11
292.00 17.66
293.00 17.21
294.00 16.75
295.00 16.29
296.00 15.83
297.00 15.38
298.00 14.92
299.00 14.48
300.00 14.04
301.00 13.61
302.00 13.18
303.00 12.76
304.00 12.35
305.00 11.95
306.00 11.55
307.00 11.15
308.00 10.76
309.00 10.38
310.00 9.99
311.00 9.61
312.00 9.22
313.00 8.84
314.00 8.47
315.00 8.09
316.00 7.71
317.00 7.34
318.00 6.97
319.00 6.60
320.00 6.23
321.00 5.88
322.00 5.52
323.00 5.18
324.00 4.84
325.00 4.52
326.00 4.20
327.00 3.89
328.00 3.59
329.00 3.31
330.00 3.03
331.00 2.77
332.00 2.53
333.00 2.29
334.00 2.07
335.00 1.87
336.00 1.67
337.00 1.49
338.00 1.32
339.00 1.16
340.00 1.02
341.00 0.89
342.00 0.76
343.00 0.65
344.00 0.55
345.00 0.46
346.00 0.38
347.00 0.31
348.00 0.24
349.00 0.18
350.00 0.14
351.00 0.10
352.00 0.06
353.00 0.04
354.00 0.02
355.00 0.01
356.00 0.00
357.00 0.01
358.00 0.02
359.00 0.04
VERTICAL 360
0.00 6.77
1.00 2.82
2.00 0.70
3.00 0.00
4.00 0.65
5.00 2.82
6.00 7.10
7.00 14.90
8.00 18.01
9.00 14.43
10.00 15.65
11.00 23.73
12.00 28.03
13.00 17.83
14.00 16.14
15.00 18.51
16.00 28.00
17.00 24.68
18.00 18.14
19.00 17.07
20.00 19.46
21.00 26.45
22.00 25.64
23.00 19.46
24.00 17.94
25.00 19.58
26.00 24.16
27.00 28.47
28.00 25.63
29.00 20.05
30.00 15.87
31.00 13.71
32.00 13.20
33.00 14.00
34.00 16.13
35.00 20.47
36.00 27.72
37.00 25.32
38.00 21.68
39.00 21.60
40.00 24.04
41.00 29.98
42.00 35.15
43.00 25.96
44.00 21.95
45.00 21.03
46.00 22.42
47.00 25.43
48.00 28.03
49.00 29.75
50.00 33.26
51.00 37.44
52.00 36.53
53.00 39.23
54.00 51.50
55.00 31.86
56.00 27.72
57.00 26.99
58.00 27.72
59.00 29.74
60.00 33.80
61.00 30.34
62.00 25.07
63.00 22.70
64.00 21.70
65.00 20.98
66.00 20.20
67.00 19.71
68.00 19.85
69.00 20.49
70.00 21.07
71.00 21.13
72.00 20.94
73.00 21.22
74.00 22.47
75.00 24.64
76.00 27.00
77.00 28.34
78.00 28.13
79.00 27.35
80.00 27.26
81.00 28.76
82.00 32.58
83.00 35.50
84.00 32.32
85.00 29.75
86.00 27.68
87.00 26.01
88.00 26.42
89.00 31.26
90.00 43.61
91.00 30.17
92.00 26.82
93.00 27.80
94.00 32.50
95.00 33.56
96.00 29.96
97.00 30.60
98.00 33.75
99.00 33.32
100.00 34.17
101.00 44.16
102.00 39.68
103.00 35.33
104.00 36.19
105.00 35.49
106.00 34.85
107.00 37.73
108.00 43.91
109.00 47.74
110.00 50.39
111.00 53.37
112.00 52.99
113.00 45.85
114.00 43.64
115.00 45.80
116.00 44.80
117.00 41.38
118.00 40.93
119.00 43.37
120.00 48.46
121.00 47.18
122.00 47.07
123.00 54.58
124.00 39.60
125.00 34.46
126.00 33.10
127.00 33.71
128.00 35.47
129.00 38.41
130.00 39.67
131.00 37.71
132.00 38.50
133.00 40.70
134.00 38.37
135.00 38.88
136.00 42.36
137.00 37.90
138.00 36.99
139.00 43.18
140.00 42.56
141.00 40.34
142.00 42.71
143.00 35.95
144.00 32.99
145.00 34.12
146.00 37.51
147.00 41.28
148.00 47.50
149.00 59.49
150.00 59.87
151.00 45.98
152.00 43.10
153.00 48.03
154.00 67.93
155.00 49.88
156.00 50.06
157.00 42.53
158.00 37.91
159.00 35.55
160.00 34.39
161.00 34.58
162.00 35.98
163.00 37.75
164.00 38.68
165.00 38.93
166.00 40.57
167.00 44.95
168.00 45.14
169.00 41.28
170.00 40.02
171.00 40.27
172.00 40.72
173.00 40.69
174.00 40.48
175.00 40.32
176.00 38.87
177.00 36.35
178.00 34.76
179.00 35.09
180.00 37.19
181.00 40.28
182.00 42.45
183.00 42.39
184.00 39.86
185.00 36.73
186.00 35.86
187.00 39.30
188.00 49.52
189.00 40.12
190.00 36.89
191.00 39.15
192.00 48.61
193.00 51.48
194.00 45.31
195.00 42.04
196.00 38.44
197.00 36.72
198.00 36.84
199.00 37.72
200.00 37.68
201.00 36.56
202.00 36.41
203.00 38.62
204.00 40.54
205.00 37.44
206.00 35.07
207.00 34.54
208.00 35.20
209.00 37.10
210.00 40.76
211.00 45.26
212.00 44.19
213.00 40.34
214.00 38.36
215.00 38.34
216.00 39.04
217.00 38.60
218.00 37.06
219.00 34.79
220.00 32.84
221.00 32.64
222.00 34.79
223.00 37.79
224.00 38.22
225.00 39.29
226.00 41.57
227.00 39.74
228.00 36.80
229.00 34.72
230.00 34.06
231.00 35.45
232.00 37.16
233.00 36.31
234.00 35.46
235.00 35.55
236.00 35.91
237.00 37.44
238.00 40.29
239.00 39.56
240.00 37.72
241.00 38.63
242.00 39.86
243.00 38.70
244.00 38.20
245.00 37.96
246.00 36.38
247.00 34.79
248.00 34.10
249.00 34.61
250.00 36.46
251.00 39.14
252.00 39.98
253.00 37.18
254.00 35.16
255.00 35.71
256.00 38.80
257.00 43.42
258.00 46.28
259.00 45.37
260.00 42.31
261.00 38.45
262.00 35.89
263.00 35.54
264.00 37.22
265.00 39.70
266.00 40.16
267.00 38.35
268.00 36.04
269.00 33.87
270.00 32.11
271.00 31.08
272.00 30.99
273.00 31.50
274.00 31.72
275.00 32.07
276.00 34.17
277.00 38.08
278.00 36.30
279.00 31.65
280.00 29.34
281.00 29.09
282.00 29.92
283.00 29.96
284.00 28.72
285.00 27.45
286.00 27.18
287.00 28.60
288.00 31.99
289.00 36.81
290.00 40.56
291.00 41.15
292.00 39.42
293.00 33.16
294.00 27.18
295.00 23.05
296.00 20.01
297.00 17.51
298.00 15.35
299.00 13.59
300.00 12.27
301.00 11.38
302.00 10.89
303.00 10.85
304.00 11.33
305.00 12.46
306.00 14.40
307.00 17.50
308.00 22.73
309.00 34.80
310.00 30.69
311.00 24.44
312.00 22.78
313.00 23.27
314.00 25.58
315.00 31.03
316.00 42.86
317.00 30.77
318.00 26.13
319.00 25.07
320.00 24.77
321.00 23.50
322.00 22.05
323.00 21.22
324.00 21.27
325.00 22.97
326.00 28.39
327.00 33.09
328.00 24.50
329.00 21.03
330.00 20.52
331.00 22.21
332.00 25.52
333.00 27.16
334.00 26.58
335.00 28.57
336.00 31.86
337.00 25.22
338.00 20.42
339.00 18.84
340.00 20.20
341.00 26.59
342.00 34.38
343.00 23.32
344.00 21.45
345.00 24.29
346.00 31.81
347.00 25.49
348.00 20.52
349.00 19.58
350.00 21.70
351.00 25.83
352.00 25.59
353.00 24.81
354.00 30.78
355.00 30.72
356.00 22.26
357.00 21.99
358.00 24.05
359.00 13.63
