NAME ATR4518R7_0847_X_CO_M45_10T
FREQUENCY 0847
GAIN 14.46 dBd
TILT	ELECTRICAL
COMMENT DATE 05.08.2013 -45 degrees polarized system Lever position 10T deg
HORIZONTAL 360
0.00 0.00
1.00 0.00
2.00 0.01
3.00 0.03
4.00 0.05
5.00 0.08
6.00 0.11
7.00 0.15
8.00 0.20
9.00 0.25
10.00 0.31
11.00 0.38
12.00 0.45
13.00 0.52
14.00 0.61
15.00 0.70
16.00 0.79
17.00 0.90
18.00 1.01
19.00 1.12
20.00 1.24
21.00 1.37
22.00 1.51
23.00 1.64
24.00 1.79
25.00 1.95
26.00 2.10
27.00 2.27
28.00 2.44
29.00 2.62
30.00 2.81
31.00 3.00
32.00 3.20
33.00 3.40
34.00 3.61
35.00 3.83
36.00 4.05
37.00 4.29
38.00 4.52
39.00 4.76
40.00 5.02
41.00 5.27
42.00 5.53
43.00 5.80
44.00 6.08
45.00 6.36
46.00 6.64
47.00 6.94
48.00 7.24
49.00 7.54
50.00 7.85
51.00 8.17
52.00 8.49
53.00 8.82
54.00 9.16
55.00 9.49
56.00 9.84
57.00 10.19
58.00 10.55
59.00 10.91
60.00 11.28
61.00 11.65
62.00 12.03
63.00 12.41
64.00 12.80
65.00 13.19
66.00 13.58
67.00 13.99
68.00 14.39
69.00 14.80
70.00 15.22
71.00 15.64
72.00 16.07
73.00 16.50
74.00 16.94
75.00 17.38
76.00 17.83
77.00 18.28
78.00 18.74
79.00 19.21
80.00 19.68
81.00 20.16
82.00 20.64
83.00 21.13
84.00 21.63
85.00 22.13
86.00 22.64
87.00 23.16
88.00 23.68
89.00 24.21
90.00 24.74
91.00 25.28
92.00 25.82
93.00 26.36
94.00 26.91
95.00 27.45
96.00 27.99
97.00 28.52
98.00 29.04
99.00 29.56
100.00 30.05
101.00 30.53
102.00 30.99
103.00 31.43
104.00 31.84
105.00 32.22
106.00 32.58
107.00 32.91
108.00 33.22
109.00 33.51
110.00 33.78
111.00 34.04
112.00 34.29
113.00 34.53
114.00 34.77
115.00 35.02
116.00 35.27
117.00 35.53
118.00 35.80
119.00 36.09
120.00 36.40
121.00 36.72
122.00 37.07
123.00 37.43
124.00 37.82
125.00 38.22
126.00 38.65
127.00 39.09
128.00 39.54
129.00 40.00
130.00 40.45
131.00 40.89
132.00 41.32
133.00 41.70
134.00 42.03
135.00 42.31
136.00 42.52
137.00 42.66
138.00 42.72
139.00 42.71
140.00 42.66
141.00 42.57
142.00 42.46
143.00 42.33
144.00 42.21
145.00 42.09
146.00 42.00
147.00 41.92
148.00 41.89
149.00 41.88
150.00 41.91
151.00 41.98
152.00 42.10
153.00 42.25
154.00 42.46
155.00 42.70
156.00 42.99
157.00 43.31
158.00 43.68
159.00 44.07
160.00 44.47
161.00 44.87
162.00 45.21
163.00 45.47
164.00 45.61
165.00 45.60
166.00 45.41
167.00 45.04
168.00 44.53
169.00 43.93
170.00 43.26
171.00 42.57
172.00 41.87
173.00 41.19
174.00 40.54
175.00 39.93
176.00 39.34
177.00 38.81
178.00 38.30
179.00 37.84
180.00 37.42
181.00 37.04
182.00 36.68
183.00 36.37
184.00 36.09
185.00 35.84
186.00 35.63
187.00 35.44
188.00 35.29
189.00 35.17
190.00 35.08
191.00 35.02
192.00 34.99
193.00 34.99
194.00 35.02
195.00 35.08
196.00 35.17
197.00 35.30
198.00 35.46
199.00 35.65
200.00 35.89
201.00 36.15
202.00 36.46
203.00 36.82
204.00 37.21
205.00 37.67
206.00 38.17
207.00 38.74
208.00 39.37
209.00 40.08
210.00 40.87
211.00 41.76
212.00 42.75
213.00 43.85
214.00 45.05
215.00 46.31
216.00 47.49
217.00 48.36
218.00 48.55
219.00 48.03
220.00 46.96
221.00 45.64
222.00 44.30
223.00 43.03
224.00 41.88
225.00 40.82
226.00 39.86
227.00 38.98
228.00 38.16
229.00 37.40
230.00 36.70
231.00 36.04
232.00 35.42
233.00 34.83
234.00 34.26
235.00 33.72
236.00 33.20
237.00 32.69
238.00 32.19
239.00 31.70
240.00 31.22
241.00 30.75
242.00 30.28
243.00 29.82
244.00 29.35
245.00 28.89
246.00 28.44
247.00 27.98
248.00 27.52
249.00 27.07
250.00 26.62
251.00 26.17
252.00 25.73
253.00 25.28
254.00 24.85
255.00 24.41
256.00 23.98
257.00 23.55
258.00 23.13
259.00 22.72
260.00 22.31
261.00 21.90
262.00 21.50
263.00 21.11
264.00 20.72
265.00 20.34
266.00 19.96
267.00 19.59
268.00 19.23
269.00 18.87
270.00 18.51
271.00 18.17
272.00 17.82
273.00 17.48
274.00 17.15
275.00 16.82
276.00 16.50
277.00 16.17
278.00 15.86
279.00 15.54
280.00 15.23
281.00 14.93
282.00 14.62
283.00 14.32
284.00 14.02
285.00 13.72
286.00 13.43
287.00 13.14
288.00 12.85
289.00 12.56
290.00 12.27
291.00 11.99
292.00 11.70
293.00 11.42
294.00 11.14
295.00 10.86
296.00 10.58
297.00 10.31
298.00 10.03
299.00 9.75
300.00 9.48
301.00 9.21
302.00 8.94
303.00 8.67
304.00 8.41
305.00 8.14
306.00 7.88
307.00 7.62
308.00 7.37
309.00 7.11
310.00 6.86
311.00 6.61
312.00 6.36
313.00 6.12
314.00 5.88
315.00 5.64
316.00 5.41
317.00 5.18
318.00 4.96
319.00 4.74
320.00 4.52
321.00 4.30
322.00 4.10
323.00 3.89
324.00 3.69
325.00 3.50
326.00 3.30
327.00 3.12
328.00 2.94
329.00 2.76
330.00 2.59
331.00 2.42
332.00 2.26
333.00 2.10
334.00 1.95
335.00 1.81
336.00 1.67
337.00 1.53
338.00 1.40
339.00 1.28
340.00 1.16
341.00 1.05
342.00 0.94
343.00 0.84
344.00 0.74
345.00 0.65
346.00 0.57
347.00 0.49
348.00 0.42
349.00 0.35
350.00 0.29
351.00 0.23
352.00 0.18
353.00 0.14
354.00 0.10
355.00 0.07
356.00 0.04
357.00 0.02
358.00 0.01
359.00 0.00
VERTICAL 360
0.00 27.35
1.00 19.08
2.00 13.63
3.00 9.72
4.00 6.78
5.00 4.54
6.00 2.84
7.00 1.59
8.00 0.72
9.00 0.20
10.00 0.00
11.00 0.12
12.00 0.57
13.00 1.37
14.00 2.54
15.00 4.14
16.00 6.22
17.00 8.92
18.00 12.46
19.00 17.39
20.00 25.19
21.00 30.33
22.00 24.26
23.00 21.99
24.00 21.85
25.00 23.35
26.00 26.75
27.00 32.29
28.00 30.39
29.00 25.46
30.00 22.76
31.00 21.50
32.00 21.22
33.00 21.66
34.00 22.69
35.00 24.23
36.00 26.28
37.00 28.87
38.00 32.13
39.00 36.30
40.00 41.57
41.00 46.59
42.00 49.78
43.00 62.50
44.00 47.70
45.00 39.24
46.00 34.49
47.00 31.23
48.00 28.83
49.00 27.04
50.00 25.83
51.00 25.17
52.00 25.09
53.00 25.61
54.00 26.84
55.00 29.01
56.00 32.60
57.00 39.32
58.00 49.17
59.00 37.00
60.00 32.49
61.00 30.20
62.00 28.97
63.00 28.36
64.00 28.10
65.00 27.76
66.00 26.91
67.00 25.76
68.00 24.83
69.00 24.44
70.00 24.66
71.00 25.48
72.00 26.89
73.00 28.63
74.00 30.00
75.00 30.43
76.00 30.27
77.00 30.29
78.00 31.21
79.00 33.84
80.00 39.72
81.00 47.03
82.00 40.80
83.00 38.60
84.00 36.92
85.00 34.10
86.00 31.59
87.00 29.87
88.00 28.80
89.00 28.33
90.00 28.40
91.00 28.50
92.00 28.02
93.00 27.20
94.00 26.67
95.00 26.71
96.00 27.39
97.00 28.83
98.00 31.25
99.00 34.82
100.00 39.29
101.00 43.16
102.00 44.15
103.00 43.03
104.00 41.72
105.00 40.48
106.00 39.42
107.00 39.47
108.00 41.62
109.00 46.05
110.00 43.48
111.00 38.20
112.00 34.86
113.00 32.84
114.00 31.97
115.00 32.19
116.00 33.39
117.00 35.01
118.00 35.78
119.00 34.93
120.00 33.51
121.00 32.56
122.00 32.43
123.00 33.12
124.00 34.30
125.00 35.43
126.00 35.94
127.00 35.79
128.00 35.40
129.00 35.19
130.00 35.31
131.00 35.58
132.00 35.66
133.00 35.37
134.00 34.88
135.00 34.42
136.00 34.11
137.00 33.87
138.00 33.59
139.00 33.19
140.00 32.74
141.00 32.40
142.00 32.33
143.00 32.60
144.00 33.11
145.00 33.73
146.00 34.34
147.00 34.96
148.00 35.67
149.00 36.46
150.00 37.22
151.00 38.03
152.00 39.25
153.00 41.19
154.00 43.71
155.00 45.29
156.00 43.48
157.00 40.06
158.00 37.47
159.00 36.15
160.00 36.02
161.00 36.81
162.00 37.98
163.00 38.74
164.00 38.62
165.00 37.91
166.00 37.11
167.00 36.58
168.00 36.48
169.00 36.80
170.00 37.42
171.00 37.78
172.00 38.16
173.00 38.62
174.00 39.29
175.00 40.16
176.00 40.84
177.00 40.84
178.00 40.76
179.00 40.73
180.00 40.82
181.00 40.68
182.00 40.22
183.00 39.58
184.00 38.99
185.00 38.72
186.00 38.88
187.00 39.23
188.00 39.28
189.00 39.01
190.00 38.80
191.00 38.90
192.00 39.46
193.00 40.62
194.00 42.14
195.00 42.97
196.00 42.64
197.00 42.31
198.00 42.68
199.00 43.92
200.00 46.41
201.00 50.45
202.00 49.77
203.00 44.53
204.00 40.98
205.00 38.90
206.00 37.83
207.00 37.44
208.00 37.32
209.00 37.18
210.00 36.87
211.00 36.50
212.00 36.42
213.00 37.07
214.00 38.51
215.00 39.42
216.00 38.01
217.00 35.80
218.00 34.11
219.00 33.10
220.00 32.78
221.00 33.06
222.00 33.62
223.00 34.00
224.00 34.12
225.00 34.10
226.00 33.91
227.00 33.74
228.00 34.10
229.00 35.40
230.00 37.64
231.00 40.12
232.00 41.01
233.00 39.40
234.00 36.96
235.00 35.08
236.00 34.04
237.00 33.65
238.00 33.35
239.00 32.80
240.00 32.27
241.00 32.22
242.00 32.85
243.00 33.99
244.00 35.09
245.00 35.49
246.00 35.01
247.00 34.05
248.00 33.19
249.00 32.84
250.00 33.10
251.00 33.83
252.00 34.72
253.00 35.35
254.00 35.63
255.00 35.91
256.00 36.60
257.00 37.74
258.00 38.84
259.00 39.15
260.00 38.39
261.00 36.96
262.00 35.45
263.00 34.37
264.00 34.02
265.00 34.42
266.00 35.21
267.00 35.73
268.00 35.39
269.00 34.19
270.00 32.79
271.00 32.12
272.00 32.88
273.00 35.79
274.00 41.73
275.00 41.55
276.00 36.96
277.00 35.03
278.00 34.62
279.00 35.32
280.00 37.46
281.00 41.25
282.00 41.08
283.00 36.74
284.00 33.84
285.00 32.29
286.00 31.82
287.00 32.53
288.00 34.56
289.00 37.60
290.00 38.76
291.00 36.38
292.00 33.91
293.00 32.43
294.00 31.99
295.00 32.52
296.00 33.78
297.00 35.17
298.00 35.97
299.00 36.20
300.00 36.65
301.00 38.01
302.00 40.62
303.00 43.45
304.00 43.61
305.00 42.81
306.00 42.79
307.00 42.09
308.00 39.71
309.00 37.38
310.00 36.31
311.00 37.12
312.00 41.21
313.00 46.34
314.00 36.53
315.00 31.25
316.00 28.17
317.00 26.20
318.00 24.88
319.00 23.95
320.00 23.37
321.00 23.19
322.00 23.58
323.00 24.78
324.00 27.26
325.00 32.27
326.00 41.61
327.00 31.28
328.00 25.67
329.00 22.50
330.00 20.56
331.00 19.44
332.00 18.93
333.00 18.94
334.00 19.46
335.00 20.55
336.00 22.39
337.00 25.37
338.00 30.04
339.00 32.83
340.00 28.63
341.00 25.64
342.00 24.48
343.00 24.79
344.00 26.34
345.00 27.90
346.00 26.41
347.00 23.23
348.00 20.71
349.00 19.15
350.00 18.50
351.00 18.73
352.00 19.96
353.00 22.49
354.00 27.22
355.00 37.20
356.00 33.07
357.00 28.23
358.00 27.85
359.00 31.35
