NAME ATR4518R7_1880_X_CO_M45_06T_yL
FREQUENCY 1880
GAIN 15.00 dBd
TILT	ELECTRICAL
COMMENT DATE 05.08.2013 -45 degrees polarized system Lever position 06T deg
HORIZONTAL 360
0.00 0.01
1.00 0.00
2.00 0.00
3.00 0.01
4.00 0.03
5.00 0.05
6.00 0.07
7.00 0.11
8.00 0.15
9.00 0.19
10.00 0.25
11.00 0.30
12.00 0.37
13.00 0.43
14.00 0.50
15.00 0.58
16.00 0.66
17.00 0.75
18.00 0.83
19.00 0.93
20.00 1.03
21.00 1.13
22.00 1.23
23.00 1.35
24.00 1.46
25.00 1.58
26.00 1.71
27.00 1.84
28.00 1.97
29.00 2.12
30.00 2.27
31.00 2.42
32.00 2.59
33.00 2.76
34.00 2.94
35.00 3.13
36.00 3.33
37.00 3.53
38.00 3.75
39.00 3.97
40.00 4.20
41.00 4.45
42.00 4.70
43.00 4.96
44.00 5.23
45.00 5.52
46.00 5.81
47.00 6.11
48.00 6.42
49.00 6.73
50.00 7.06
51.00 7.40
52.00 7.74
53.00 8.09
54.00 8.45
55.00 8.81
56.00 9.18
57.00 9.55
58.00 9.94
59.00 10.32
60.00 10.71
61.00 11.11
62.00 11.50
63.00 11.90
64.00 12.31
65.00 12.71
66.00 13.12
67.00 13.52
68.00 13.93
69.00 14.34
70.00 14.74
71.00 15.14
72.00 15.54
73.00 15.94
74.00 16.33
75.00 16.72
76.00 17.11
77.00 17.49
78.00 17.87
79.00 18.24
80.00 18.61
81.00 18.98
82.00 19.35
83.00 19.72
84.00 20.09
85.00 20.47
86.00 20.85
87.00 21.23
88.00 21.63
89.00 22.04
90.00 22.45
91.00 22.88
92.00 23.32
93.00 23.77
94.00 24.22
95.00 24.66
96.00 25.10
97.00 25.52
98.00 25.90
99.00 26.24
100.00 26.52
101.00 26.74
102.00 26.88
103.00 26.96
104.00 26.96
105.00 26.92
106.00 26.85
107.00 26.76
108.00 26.66
109.00 26.57
110.00 26.50
111.00 26.47
112.00 26.47
113.00 26.51
114.00 26.60
115.00 26.73
116.00 26.91
117.00 27.12
118.00 27.37
119.00 27.64
120.00 27.92
121.00 28.19
122.00 28.44
123.00 28.65
124.00 28.79
125.00 28.87
126.00 28.88
127.00 28.83
128.00 28.73
129.00 28.60
130.00 28.47
131.00 28.34
132.00 28.25
133.00 28.20
134.00 28.20
135.00 28.27
136.00 28.40
137.00 28.62
138.00 28.91
139.00 29.28
140.00 29.74
141.00 30.27
142.00 30.89
143.00 31.58
144.00 32.31
145.00 33.07
146.00 33.79
147.00 34.43
148.00 34.89
149.00 35.14
150.00 35.16
151.00 34.97
152.00 34.66
153.00 34.27
154.00 33.87
155.00 33.48
156.00 33.14
157.00 32.83
158.00 32.56
159.00 32.34
160.00 32.15
161.00 32.00
162.00 31.88
163.00 31.78
164.00 31.72
165.00 31.68
166.00 31.68
167.00 31.72
168.00 31.79
169.00 31.91
170.00 32.08
171.00 32.28
172.00 32.50
173.00 32.73
174.00 32.93
175.00 33.06
176.00 33.07
177.00 32.92
178.00 32.61
179.00 32.16
180.00 31.59
181.00 30.98
182.00 30.35
183.00 29.75
184.00 29.20
185.00 28.73
186.00 28.34
187.00 28.05
188.00 27.86
189.00 27.78
190.00 27.82
191.00 27.99
192.00 28.28
193.00 28.73
194.00 29.35
195.00 30.17
196.00 31.22
197.00 32.57
198.00 34.28
199.00 36.42
200.00 38.88
201.00 40.65
202.00 39.87
203.00 37.40
204.00 34.96
205.00 32.95
206.00 31.34
207.00 30.05
208.00 29.03
209.00 28.23
210.00 27.62
211.00 27.17
212.00 26.88
213.00 26.73
214.00 26.72
215.00 26.85
216.00 27.13
217.00 27.56
218.00 28.17
219.00 28.96
220.00 30.00
221.00 31.32
222.00 33.05
223.00 35.38
224.00 38.69
225.00 43.89
226.00 48.62
227.00 42.47
228.00 37.73
229.00 34.62
230.00 32.38
231.00 30.67
232.00 29.32
233.00 28.23
234.00 27.34
235.00 26.62
236.00 26.04
237.00 25.57
238.00 25.19
239.00 24.91
240.00 24.70
241.00 24.56
242.00 24.47
243.00 24.43
244.00 24.42
245.00 24.43
246.00 24.46
247.00 24.49
248.00 24.49
249.00 24.47
250.00 24.40
251.00 24.29
252.00 24.11
253.00 23.89
254.00 23.62
255.00 23.31
256.00 22.97
257.00 22.62
258.00 22.26
259.00 21.90
260.00 21.55
261.00 21.22
262.00 20.91
263.00 20.61
264.00 20.33
265.00 20.07
266.00 19.83
267.00 19.60
268.00 19.38
269.00 19.16
270.00 18.94
271.00 18.72
272.00 18.49
273.00 18.24
274.00 17.99
275.00 17.71
276.00 17.41
277.00 17.10
278.00 16.77
279.00 16.42
280.00 16.07
281.00 15.70
282.00 15.32
283.00 14.94
284.00 14.56
285.00 14.18
286.00 13.81
287.00 13.43
288.00 13.07
289.00 12.71
290.00 12.36
291.00 12.01
292.00 11.68
293.00 11.35
294.00 11.03
295.00 10.71
296.00 10.40
297.00 10.11
298.00 9.81
299.00 9.52
300.00 9.25
301.00 8.97
302.00 8.71
303.00 8.44
304.00 8.19
305.00 7.94
306.00 7.70
307.00 7.47
308.00 7.24
309.00 7.02
310.00 6.80
311.00 6.59
312.00 6.38
313.00 6.18
314.00 5.99
315.00 5.80
316.00 5.61
317.00 5.42
318.00 5.24
319.00 5.06
320.00 4.88
321.00 4.70
322.00 4.53
323.00 4.35
324.00 4.17
325.00 4.00
326.00 3.83
327.00 3.65
328.00 3.48
329.00 3.30
330.00 3.13
331.00 2.96
332.00 2.80
333.00 2.63
334.00 2.47
335.00 2.31
336.00 2.15
337.00 2.00
338.00 1.86
339.00 1.71
340.00 1.57
341.00 1.44
342.00 1.31
343.00 1.19
344.00 1.07
345.00 0.96
346.00 0.85
347.00 0.75
348.00 0.65
349.00 0.56
350.00 0.48
351.00 0.40
352.00 0.33
353.00 0.26
354.00 0.21
355.00 0.16
356.00 0.11
357.00 0.08
358.00 0.05
359.00 0.02
VERTICAL 360
0.00 13.99
1.00 8.71
2.00 5.13
3.00 2.66
4.00 1.04
5.00 0.17
6.00 0.02
7.00 0.62
8.00 2.06
9.00 4.59
10.00 8.79
11.00 16.79
12.00 22.56
13.00 14.13
14.00 11.63
15.00 11.65
16.00 13.66
17.00 18.11
18.00 24.26
19.00 20.13
20.00 16.42
21.00 15.07
22.00 15.37
23.00 17.32
24.00 21.75
25.00 32.25
26.00 25.77
27.00 20.38
28.00 18.49
29.00 18.46
30.00 19.90
31.00 23.06
32.00 29.85
33.00 41.37
34.00 26.68
35.00 22.49
36.00 20.91
37.00 20.86
38.00 21.88
39.00 23.35
40.00 24.09
41.00 23.07
42.00 21.14
43.00 19.39
44.00 18.21
45.00 17.63
46.00 17.51
47.00 17.67
48.00 18.00
49.00 18.55
50.00 19.46
51.00 20.80
52.00 22.49
53.00 24.25
54.00 25.81
55.00 27.44
56.00 29.67
57.00 32.45
58.00 34.10
59.00 33.86
60.00 33.54
61.00 33.15
62.00 31.79
63.00 29.90
64.00 28.32
65.00 27.28
66.00 26.71
67.00 26.44
68.00 26.33
69.00 26.34
70.00 26.47
71.00 26.78
72.00 27.30
73.00 28.02
74.00 28.86
75.00 29.67
76.00 30.39
77.00 31.08
78.00 31.87
79.00 32.91
80.00 34.43
81.00 36.64
82.00 39.62
83.00 43.11
84.00 47.09
85.00 54.64
86.00 56.57
87.00 48.33
88.00 45.40
89.00 43.09
90.00 40.93
91.00 40.56
92.00 43.41
93.00 47.78
94.00 41.18
95.00 37.48
96.00 36.78
97.00 38.34
98.00 41.96
99.00 46.17
100.00 45.54
101.00 43.32
102.00 42.79
103.00 43.78
104.00 44.23
105.00 42.50
106.00 40.89
107.00 40.36
108.00 40.53
109.00 40.71
110.00 40.30
111.00 39.38
112.00 38.63
113.00 38.48
114.00 38.81
115.00 39.15
116.00 39.10
117.00 38.67
118.00 38.08
119.00 37.62
120.00 37.75
121.00 39.07
122.00 42.62
123.00 50.06
124.00 47.50
125.00 43.44
126.00 42.92
127.00 43.42
128.00 43.00
129.00 43.42
130.00 47.23
131.00 52.05
132.00 45.37
133.00 42.79
134.00 43.19
135.00 45.00
136.00 46.54
137.00 48.25
138.00 51.33
139.00 50.13
140.00 44.68
141.00 40.62
142.00 38.18
143.00 37.20
144.00 37.49
145.00 38.63
146.00 39.74
147.00 39.46
148.00 37.80
149.00 36.29
150.00 35.86
151.00 36.83
152.00 39.06
153.00 41.10
154.00 40.64
155.00 38.61
156.00 36.27
157.00 34.25
158.00 33.00
159.00 32.67
160.00 33.13
161.00 34.06
162.00 34.92
163.00 35.11
164.00 34.78
165.00 34.77
166.00 35.71
167.00 37.71
168.00 40.34
169.00 41.34
170.00 38.14
171.00 34.34
172.00 31.80
173.00 30.56
174.00 30.41
175.00 31.06
176.00 32.12
177.00 33.32
178.00 34.88
179.00 37.61
180.00 42.19
181.00 43.07
182.00 39.73
183.00 38.91
184.00 41.02
185.00 47.25
186.00 60.74
187.00 47.19
188.00 41.82
189.00 38.11
190.00 35.81
191.00 35.08
192.00 36.03
193.00 38.81
194.00 42.25
195.00 41.73
196.00 40.26
197.00 41.02
198.00 44.93
199.00 58.79
200.00 47.42
201.00 39.91
202.00 35.76
203.00 33.41
204.00 32.70
205.00 33.83
206.00 37.38
207.00 41.98
208.00 37.48
209.00 33.56
210.00 31.77
211.00 31.30
212.00 31.59
213.00 32.20
214.00 32.95
215.00 34.04
216.00 35.96
217.00 39.36
218.00 45.63
219.00 65.77
220.00 51.30
221.00 46.75
222.00 44.00
223.00 41.55
224.00 39.97
225.00 39.44
226.00 39.56
227.00 39.72
228.00 39.63
229.00 39.59
230.00 40.10
231.00 41.67
232.00 44.67
233.00 48.96
234.00 54.02
235.00 61.31
236.00 53.17
237.00 48.15
238.00 46.81
239.00 47.79
240.00 50.10
241.00 52.60
242.00 55.15
243.00 59.00
244.00 53.98
245.00 46.92
246.00 43.38
247.00 42.66
248.00 44.77
249.00 50.30
250.00 55.70
251.00 57.79
252.00 65.17
253.00 49.50
254.00 44.35
255.00 41.34
256.00 39.18
257.00 38.02
258.00 37.81
259.00 37.38
260.00 35.77
261.00 33.97
262.00 32.72
263.00 31.96
264.00 31.47
265.00 31.07
266.00 30.50
267.00 29.73
268.00 29.04
269.00 28.65
270.00 28.58
271.00 28.67
272.00 28.79
273.00 28.84
274.00 28.83
275.00 28.84
276.00 28.92
277.00 29.16
278.00 29.67
279.00 30.61
280.00 32.05
281.00 33.52
282.00 33.75
283.00 32.55
284.00 31.14
285.00 30.06
286.00 29.19
287.00 28.29
288.00 27.28
289.00 26.22
290.00 25.21
291.00 24.31
292.00 23.56
293.00 23.04
294.00 22.83
295.00 22.97
296.00 23.46
297.00 24.38
298.00 25.98
299.00 28.86
300.00 34.89
301.00 43.60
302.00 31.51
303.00 26.72
304.00 24.14
305.00 22.60
306.00 21.61
307.00 21.01
308.00 20.88
309.00 21.40
310.00 22.87
311.00 25.68
312.00 30.48
313.00 33.52
314.00 28.16
315.00 23.97
316.00 21.32
317.00 19.81
318.00 19.28
319.00 19.69
320.00 21.08
321.00 23.59
322.00 27.62
323.00 32.97
324.00 32.19
325.00 28.46
326.00 26.77
327.00 26.93
328.00 28.67
329.00 30.24
330.00 28.48
331.00 26.01
332.00 24.76
333.00 24.63
334.00 24.87
335.00 24.31
336.00 22.89
337.00 21.74
338.00 21.58
339.00 22.75
340.00 25.48
341.00 27.46
342.00 23.94
343.00 20.32
344.00 18.27
345.00 17.58
346.00 18.19
347.00 20.29
348.00 24.84
349.00 36.42
350.00 28.74
351.00 23.02
352.00 21.04
353.00 21.21
354.00 23.16
355.00 25.56
356.00 25.58
357.00 26.28
358.00 38.10
359.00 23.02
