NAME ATR4518R7_2535_X_CO_P45_09T_yL
FREQUENCY 2535
GAIN 15.42 dBd
TILT	ELECTRICAL
COMMENT DATE 05.08.2013 +45 degrees polarized system Lever position 09T deg
HORIZONTAL 360
0.00 0.12
1.00 0.07
2.00 0.03
3.00 0.00
4.00 0.00
5.00 0.01
6.00 0.04
7.00 0.09
8.00 0.15
9.00 0.21
10.00 0.30
11.00 0.39
12.00 0.49
13.00 0.60
14.00 0.72
15.00 0.84
16.00 0.97
17.00 1.10
18.00 1.23
19.00 1.37
20.00 1.50
21.00 1.63
22.00 1.76
23.00 1.90
24.00 2.04
25.00 2.18
26.00 2.32
27.00 2.47
28.00 2.63
29.00 2.79
30.00 2.95
31.00 3.14
32.00 3.33
33.00 3.52
34.00 3.73
35.00 3.95
36.00 4.18
37.00 4.42
38.00 4.67
39.00 4.91
40.00 5.18
41.00 5.44
42.00 5.71
43.00 5.97
44.00 6.25
45.00 6.51
46.00 6.78
47.00 7.03
48.00 7.29
49.00 7.54
50.00 7.78
51.00 8.01
52.00 8.24
53.00 8.45
54.00 8.66
55.00 8.86
56.00 9.06
57.00 9.25
58.00 9.43
59.00 9.61
60.00 9.80
61.00 9.98
62.00 10.17
63.00 10.38
64.00 10.60
65.00 10.83
66.00 11.07
67.00 11.31
68.00 11.57
69.00 11.83
70.00 12.10
71.00 12.38
72.00 12.65
73.00 12.93
74.00 13.22
75.00 13.50
76.00 13.79
77.00 14.07
78.00 14.35
79.00 14.62
80.00 14.90
81.00 15.16
82.00 15.41
83.00 15.66
84.00 15.92
85.00 16.16
86.00 16.40
87.00 16.64
88.00 16.89
89.00 17.13
90.00 17.40
91.00 17.66
92.00 17.94
93.00 18.24
94.00 18.54
95.00 18.85
96.00 19.19
97.00 19.52
98.00 19.87
99.00 20.23
100.00 20.58
101.00 20.94
102.00 21.28
103.00 21.63
104.00 21.95
105.00 22.27
106.00 22.57
107.00 22.86
108.00 23.16
109.00 23.46
110.00 23.76
111.00 24.09
112.00 24.44
113.00 24.83
114.00 25.26
115.00 25.74
116.00 26.27
117.00 26.85
118.00 27.50
119.00 28.19
120.00 28.94
121.00 29.70
122.00 30.44
123.00 31.12
124.00 31.67
125.00 32.01
126.00 32.12
127.00 32.01
128.00 31.73
129.00 31.36
130.00 30.95
131.00 30.55
132.00 30.20
133.00 29.92
134.00 29.72
135.00 29.60
136.00 29.57
137.00 29.64
138.00 29.81
139.00 30.06
140.00 30.41
141.00 30.85
142.00 31.38
143.00 31.98
144.00 32.64
145.00 33.34
146.00 34.03
147.00 34.65
148.00 35.16
149.00 35.48
150.00 35.61
151.00 35.57
152.00 35.43
153.00 35.23
154.00 35.04
155.00 34.90
156.00 34.84
157.00 34.88
158.00 35.05
159.00 35.35
160.00 35.80
161.00 36.42
162.00 37.24
163.00 38.30
164.00 39.67
165.00 41.44
166.00 43.78
167.00 46.89
168.00 50.48
169.00 50.89
170.00 47.43
171.00 44.21
172.00 41.81
173.00 40.01
174.00 38.65
175.00 37.62
176.00 36.87
177.00 36.35
178.00 36.05
179.00 35.96
180.00 36.08
181.00 36.41
182.00 36.97
183.00 37.80
184.00 38.95
185.00 40.51
186.00 42.63
187.00 45.61
188.00 49.75
189.00 52.95
190.00 49.59
191.00 45.70
192.00 42.98
193.00 41.10
194.00 39.80
195.00 38.93
196.00 38.43
197.00 38.25
198.00 38.38
199.00 38.82
200.00 39.60
201.00 40.73
202.00 42.21
203.00 43.85
204.00 44.90
205.00 44.31
206.00 42.43
207.00 40.32
208.00 38.47
209.00 36.95
210.00 35.74
211.00 34.81
212.00 34.13
213.00 33.68
214.00 33.43
215.00 33.38
216.00 33.54
217.00 33.92
218.00 34.51
219.00 35.36
220.00 36.50
221.00 37.97
222.00 39.80
223.00 41.86
224.00 43.47
225.00 43.37
226.00 41.65
227.00 39.58
228.00 37.77
229.00 36.30
230.00 35.14
231.00 34.24
232.00 33.56
233.00 33.07
234.00 32.74
235.00 32.55
236.00 32.47
237.00 32.48
238.00 32.56
239.00 32.68
240.00 32.80
241.00 32.87
242.00 32.86
243.00 32.73
244.00 32.49
245.00 32.12
246.00 31.66
247.00 31.14
248.00 30.59
249.00 30.03
250.00 29.48
251.00 28.95
252.00 28.46
253.00 27.99
254.00 27.54
255.00 27.12
256.00 26.70
257.00 26.30
258.00 25.90
259.00 25.50
260.00 25.10
261.00 24.69
262.00 24.27
263.00 23.85
264.00 23.43
265.00 23.01
266.00 22.59
267.00 22.17
268.00 21.77
269.00 21.38
270.00 21.01
271.00 20.66
272.00 20.33
273.00 20.01
274.00 19.72
275.00 19.44
276.00 19.18
277.00 18.93
278.00 18.71
279.00 18.49
280.00 18.29
281.00 18.09
282.00 17.90
283.00 17.72
284.00 17.54
285.00 17.36
286.00 17.18
287.00 17.01
288.00 16.83
289.00 16.64
290.00 16.46
291.00 16.26
292.00 16.06
293.00 15.86
294.00 15.64
295.00 15.42
296.00 15.19
297.00 14.94
298.00 14.70
299.00 14.44
300.00 14.17
301.00 13.90
302.00 13.65
303.00 13.39
304.00 13.12
305.00 12.84
306.00 12.55
307.00 12.25
308.00 11.95
309.00 11.63
310.00 11.30
311.00 10.97
312.00 10.62
313.00 10.27
314.00 9.91
315.00 9.55
316.00 9.18
317.00 8.81
318.00 8.43
319.00 8.07
320.00 7.70
321.00 7.34
322.00 6.99
323.00 6.65
324.00 6.31
325.00 5.99
326.00 5.67
327.00 5.37
328.00 5.09
329.00 4.81
330.00 4.55
331.00 4.31
332.00 4.06
333.00 3.84
334.00 3.62
335.00 3.41
336.00 3.23
337.00 3.04
338.00 2.86
339.00 2.69
340.00 2.52
341.00 2.36
342.00 2.21
343.00 2.07
344.00 1.92
345.00 1.79
346.00 1.65
347.00 1.52
348.00 1.39
349.00 1.26
350.00 1.12
351.00 1.00
352.00 0.88
353.00 0.76
354.00 0.65
355.00 0.54
356.00 0.43
357.00 0.34
358.00 0.26
359.00 0.19
VERTICAL 360
0.00 18.86
1.00 19.82
2.00 19.00
3.00 15.82
4.00 11.73
5.00 7.62
6.00 4.20
7.00 1.74
8.00 0.32
9.00 0.00
10.00 0.87
11.00 3.18
12.00 7.58
13.00 17.16
14.00 20.96
15.00 12.77
16.00 11.46
17.00 13.40
18.00 18.96
19.00 22.92
20.00 17.85
21.00 16.39
22.00 17.98
23.00 23.47
24.00 52.21
25.00 25.13
26.00 22.47
27.00 24.62
28.00 33.81
29.00 28.59
30.00 22.16
31.00 20.02
32.00 20.76
33.00 25.44
34.00 28.14
35.00 19.89
36.00 16.08
37.00 14.46
38.00 14.04
39.00 14.40
40.00 15.57
41.00 17.88
42.00 21.81
43.00 28.19
44.00 36.98
45.00 33.69
46.00 29.74
47.00 27.28
48.00 26.10
49.00 26.30
50.00 27.68
51.00 29.61
52.00 31.03
53.00 31.59
54.00 32.76
55.00 37.43
56.00 42.18
57.00 32.66
58.00 28.82
59.00 27.07
60.00 26.05
61.00 25.46
62.00 25.41
63.00 25.98
64.00 27.19
65.00 28.92
66.00 30.89
67.00 33.09
68.00 35.42
69.00 37.46
70.00 37.49
71.00 35.73
72.00 35.24
73.00 36.04
74.00 36.35
75.00 35.65
76.00 34.41
77.00 33.78
78.00 34.50
79.00 35.05
80.00 34.68
81.00 35.57
82.00 38.21
83.00 41.56
84.00 45.83
85.00 45.57
86.00 41.45
87.00 38.07
88.00 35.38
89.00 34.04
90.00 33.83
91.00 34.36
92.00 35.84
93.00 38.31
94.00 41.59
95.00 47.84
96.00 57.39
97.00 48.90
98.00 49.42
99.00 54.19
100.00 48.81
101.00 43.06
102.00 40.25
103.00 39.14
104.00 38.90
105.00 38.83
106.00 37.34
107.00 35.30
108.00 34.43
109.00 34.53
110.00 34.81
111.00 34.91
112.00 34.08
113.00 32.75
114.00 32.17
115.00 32.41
116.00 32.72
117.00 32.51
118.00 32.09
119.00 32.10
120.00 32.69
121.00 33.74
122.00 35.81
123.00 40.04
124.00 45.51
125.00 43.08
126.00 39.40
127.00 36.59
128.00 34.68
129.00 33.49
130.00 32.72
131.00 32.68
132.00 33.81
133.00 35.71
134.00 37.09
135.00 38.63
136.00 41.80
137.00 44.51
138.00 43.10
139.00 40.32
140.00 38.50
141.00 38.44
142.00 39.63
143.00 41.17
144.00 42.34
145.00 42.47
146.00 42.03
147.00 39.93
148.00 37.42
149.00 36.58
150.00 37.19
151.00 37.59
152.00 36.61
153.00 35.21
154.00 34.59
155.00 34.94
156.00 35.07
157.00 34.82
158.00 35.83
159.00 38.88
160.00 41.83
161.00 42.82
162.00 45.01
163.00 41.00
164.00 36.56
165.00 34.96
166.00 35.12
167.00 36.41
168.00 39.59
169.00 45.45
170.00 42.06
171.00 38.95
172.00 39.07
173.00 41.37
174.00 45.69
175.00 45.64
176.00 40.82
177.00 38.59
178.00 38.38
179.00 39.14
180.00 39.43
181.00 38.75
182.00 37.56
183.00 36.16
184.00 35.45
185.00 36.02
186.00 37.45
187.00 38.37
188.00 38.28
189.00 37.98
190.00 37.22
191.00 35.61
192.00 34.75
193.00 36.39
194.00 43.00
195.00 51.18
196.00 40.77
197.00 38.25
198.00 37.18
199.00 37.17
200.00 39.37
201.00 45.08
202.00 46.83
203.00 41.63
204.00 39.07
205.00 37.87
206.00 37.53
207.00 38.16
208.00 40.36
209.00 46.56
210.00 51.59
211.00 39.92
212.00 36.23
213.00 35.98
214.00 39.03
215.00 47.73
216.00 50.55
217.00 43.35
218.00 39.95
219.00 37.45
220.00 35.66
221.00 34.34
222.00 33.44
223.00 32.87
224.00 32.65
225.00 33.04
226.00 34.20
227.00 35.81
228.00 36.75
229.00 35.68
230.00 33.83
231.00 32.69
232.00 32.40
233.00 32.62
234.00 33.09
235.00 33.86
236.00 35.15
237.00 37.07
238.00 39.45
239.00 41.14
240.00 40.38
241.00 39.06
242.00 39.09
243.00 40.80
244.00 44.44
245.00 50.90
246.00 48.25
247.00 41.76
248.00 38.26
249.00 36.92
250.00 37.41
251.00 39.34
252.00 41.83
253.00 43.73
254.00 44.17
255.00 43.56
256.00 42.48
257.00 41.14
258.00 40.79
259.00 42.42
260.00 45.70
261.00 45.78
262.00 42.54
263.00 40.07
264.00 38.95
265.00 39.45
266.00 41.92
267.00 46.50
268.00 48.77
269.00 46.02
270.00 44.15
271.00 43.30
272.00 42.55
273.00 41.13
274.00 39.74
275.00 39.60
276.00 41.32
277.00 43.68
278.00 42.40
279.00 40.11
280.00 38.46
281.00 36.43
282.00 34.26
283.00 32.69
284.00 31.90
285.00 31.73
286.00 31.95
287.00 32.53
288.00 33.55
289.00 34.62
290.00 35.20
291.00 35.64
292.00 35.68
293.00 34.42
294.00 32.55
295.00 30.78
296.00 29.24
297.00 27.69
298.00 25.85
299.00 23.72
300.00 21.55
301.00 19.63
302.00 17.98
303.00 16.52
304.00 15.16
305.00 13.89
306.00 12.79
307.00 11.98
308.00 11.58
309.00 11.67
310.00 12.33
311.00 13.72
312.00 16.04
313.00 19.65
314.00 24.91
315.00 23.14
316.00 18.37
317.00 16.43
318.00 16.65
319.00 19.26
320.00 26.59
321.00 33.23
322.00 22.06
323.00 19.04
324.00 18.75
325.00 20.60
326.00 25.38
327.00 35.95
328.00 26.46
329.00 22.07
330.00 21.42
331.00 24.57
332.00 37.08
333.00 22.96
334.00 17.64
335.00 16.24
336.00 18.09
337.00 26.11
338.00 25.63
339.00 16.71
340.00 13.96
341.00 13.88
342.00 16.17
343.00 21.98
344.00 39.12
345.00 27.21
346.00 24.71
347.00 26.44
348.00 28.06
349.00 23.95
350.00 20.83
351.00 20.08
352.00 21.71
353.00 26.52
354.00 39.57
355.00 34.05
356.00 27.75
357.00 23.49
358.00 20.33
359.00 18.76
