NAME ATR4518R7_1950_X_CO_P45_10T_yyR
FREQUENCY 1950
GAIN 14.71 dBd
TILT	ELECTRICAL
COMMENT DATE 05.08.2013 +45 degrees polarized system Lever position 10T deg
HORIZONTAL 360
0.00 0.07
1.00 0.04
2.00 0.02
3.00 0.01
4.00 0.00
5.00 0.00
6.00 0.01
7.00 0.03
8.00 0.05
9.00 0.09
10.00 0.13
11.00 0.19
12.00 0.25
13.00 0.33
14.00 0.41
15.00 0.50
16.00 0.61
17.00 0.72
18.00 0.84
19.00 0.98
20.00 1.13
21.00 1.28
22.00 1.45
23.00 1.63
24.00 1.81
25.00 2.01
26.00 2.21
27.00 2.43
28.00 2.65
29.00 2.89
30.00 3.13
31.00 3.38
32.00 3.64
33.00 3.90
34.00 4.17
35.00 4.44
36.00 4.73
37.00 5.01
38.00 5.30
39.00 5.59
40.00 5.88
41.00 6.18
42.00 6.47
43.00 6.77
44.00 7.06
45.00 7.35
46.00 7.64
47.00 7.93
48.00 8.21
49.00 8.49
50.00 8.76
51.00 9.03
52.00 9.30
53.00 9.56
54.00 9.82
55.00 10.07
56.00 10.31
57.00 10.55
58.00 10.79
59.00 11.02
60.00 11.25
61.00 11.47
62.00 11.69
63.00 11.90
64.00 12.11
65.00 12.32
66.00 12.52
67.00 12.72
68.00 12.91
69.00 13.11
70.00 13.30
71.00 13.49
72.00 13.67
73.00 13.86
74.00 14.04
75.00 14.23
76.00 14.42
77.00 14.61
78.00 14.81
79.00 15.00
80.00 15.21
81.00 15.42
82.00 15.64
83.00 15.86
84.00 16.10
85.00 16.34
86.00 16.60
87.00 16.87
88.00 17.14
89.00 17.43
90.00 17.74
91.00 18.05
92.00 18.38
93.00 18.72
94.00 19.07
95.00 19.44
96.00 19.81
97.00 20.20
98.00 20.60
99.00 21.01
100.00 21.43
101.00 21.86
102.00 22.30
103.00 22.75
104.00 23.21
105.00 23.68
106.00 24.18
107.00 24.68
108.00 25.21
109.00 25.76
110.00 26.34
111.00 26.96
112.00 27.61
113.00 28.30
114.00 29.04
115.00 29.82
116.00 30.65
117.00 31.49
118.00 32.31
119.00 33.07
120.00 33.66
121.00 34.01
122.00 34.03
123.00 33.75
124.00 33.24
125.00 32.58
126.00 31.88
127.00 31.18
128.00 30.53
129.00 29.95
130.00 29.44
131.00 29.02
132.00 28.67
133.00 28.41
134.00 28.23
135.00 28.14
136.00 28.13
137.00 28.20
138.00 28.37
139.00 28.63
140.00 28.99
141.00 29.46
142.00 30.05
143.00 30.77
144.00 31.65
145.00 32.71
146.00 33.99
147.00 35.53
148.00 37.40
149.00 39.64
150.00 42.08
151.00 43.77
152.00 43.25
153.00 41.23
154.00 39.13
155.00 37.38
156.00 35.98
157.00 34.90
158.00 34.06
159.00 33.43
160.00 33.00
161.00 32.72
162.00 32.60
163.00 32.63
164.00 32.80
165.00 33.13
166.00 33.60
167.00 34.25
168.00 35.08
169.00 36.14
170.00 37.47
171.00 39.14
172.00 41.26
173.00 44.02
174.00 47.50
175.00 50.29
176.00 48.68
177.00 45.44
178.00 42.83
179.00 40.91
180.00 39.49
181.00 38.45
182.00 37.70
183.00 37.19
184.00 36.90
185.00 36.80
186.00 36.88
187.00 37.15
188.00 37.60
189.00 38.25
190.00 39.09
191.00 40.15
192.00 41.38
193.00 42.69
194.00 43.81
195.00 44.23
196.00 43.64
197.00 42.33
198.00 40.80
199.00 39.35
200.00 38.05
201.00 36.93
202.00 35.97
203.00 35.16
204.00 34.48
205.00 33.90
206.00 33.41
207.00 33.01
208.00 32.67
209.00 32.38
210.00 32.13
211.00 31.93
212.00 31.74
213.00 31.58
214.00 31.42
215.00 31.27
216.00 31.12
217.00 30.97
218.00 30.81
219.00 30.66
220.00 30.50
221.00 30.35
222.00 30.20
223.00 30.07
224.00 29.94
225.00 29.84
226.00 29.74
227.00 29.67
228.00 29.62
229.00 29.58
230.00 29.56
231.00 29.55
232.00 29.57
233.00 29.59
234.00 29.61
235.00 29.64
236.00 29.67
237.00 29.69
238.00 29.70
239.00 29.70
240.00 29.68
241.00 29.63
242.00 29.57
243.00 29.49
244.00 29.38
245.00 29.26
246.00 29.12
247.00 28.96
248.00 28.79
249.00 28.61
250.00 28.43
251.00 28.23
252.00 28.03
253.00 27.82
254.00 27.61
255.00 27.39
256.00 27.16
257.00 26.93
258.00 26.69
259.00 26.44
260.00 26.18
261.00 25.90
262.00 25.61
263.00 25.30
264.00 24.98
265.00 24.63
266.00 24.28
267.00 23.90
268.00 23.51
269.00 23.10
270.00 22.68
271.00 22.25
272.00 21.81
273.00 21.36
274.00 20.91
275.00 20.45
276.00 20.00
277.00 19.54
278.00 19.08
279.00 18.63
280.00 18.19
281.00 17.75
282.00 17.32
283.00 16.90
284.00 16.48
285.00 16.08
286.00 15.68
287.00 15.29
288.00 14.92
289.00 14.55
290.00 14.19
291.00 13.83
292.00 13.49
293.00 13.15
294.00 12.82
295.00 12.50
296.00 12.18
297.00 11.87
298.00 11.57
299.00 11.26
300.00 10.96
301.00 10.67
302.00 10.38
303.00 10.09
304.00 9.80
305.00 9.52
306.00 9.23
307.00 8.95
308.00 8.67
309.00 8.40
310.00 8.13
311.00 7.85
312.00 7.58
313.00 7.32
314.00 7.05
315.00 6.79
316.00 6.53
317.00 6.28
318.00 6.02
319.00 5.78
320.00 5.53
321.00 5.29
322.00 5.06
323.00 4.83
324.00 4.61
325.00 4.39
326.00 4.17
327.00 3.96
328.00 3.76
329.00 3.57
330.00 3.37
331.00 3.19
332.00 3.01
333.00 2.84
334.00 2.67
335.00 2.50
336.00 2.35
337.00 2.20
338.00 2.05
339.00 1.91
340.00 1.77
341.00 1.64
342.00 1.52
343.00 1.40
344.00 1.28
345.00 1.17
346.00 1.06
347.00 0.96
348.00 0.86
349.00 0.77
350.00 0.68
351.00 0.59
352.00 0.52
353.00 0.44
354.00 0.37
355.00 0.31
356.00 0.25
357.00 0.19
358.00 0.15
359.00 0.10
VERTICAL 360
0.00 22.82
1.00 26.24
2.00 23.02
3.00 17.37
4.00 12.35
5.00 8.24
6.00 5.07
7.00 2.75
8.00 1.18
9.00 0.27
10.00 0.00
11.00 0.43
12.00 1.63
13.00 3.83
14.00 7.48
15.00 13.99
16.00 26.85
17.00 17.98
18.00 14.38
19.00 14.48
20.00 17.45
21.00 26.38
22.00 29.14
23.00 19.21
24.00 16.14
25.00 15.46
26.00 16.63
27.00 20.14
28.00 28.89
29.00 28.53
30.00 21.04
31.00 18.60
32.00 18.48
33.00 20.10
34.00 23.28
35.00 26.88
36.00 27.21
37.00 24.78
38.00 22.39
39.00 20.86
40.00 20.55
41.00 21.79
42.00 25.08
43.00 32.22
44.00 45.70
45.00 33.09
46.00 29.56
47.00 27.93
48.00 27.06
49.00 27.25
50.00 29.13
51.00 33.70
52.00 40.87
53.00 36.57
54.00 32.54
55.00 31.14
56.00 31.24
57.00 32.85
58.00 37.14
59.00 45.95
60.00 37.61
61.00 32.15
62.00 29.83
63.00 29.07
64.00 29.20
65.00 29.78
66.00 30.55
67.00 31.41
68.00 32.42
69.00 33.57
70.00 34.59
71.00 35.14
72.00 35.15
73.00 34.86
74.00 34.47
75.00 33.96
76.00 33.23
77.00 32.30
78.00 31.25
79.00 30.17
80.00 29.08
81.00 27.97
82.00 26.93
83.00 26.18
84.00 25.93
85.00 26.34
86.00 27.54
87.00 29.52
88.00 31.68
89.00 32.54
90.00 31.66
91.00 29.88
92.00 28.00
93.00 26.72
94.00 26.37
95.00 26.89
96.00 28.03
97.00 29.39
98.00 30.59
99.00 31.37
100.00 31.91
101.00 32.70
102.00 33.96
103.00 35.52
104.00 37.15
105.00 38.87
106.00 40.77
107.00 42.92
108.00 45.35
109.00 46.81
110.00 45.88
111.00 44.41
112.00 43.48
113.00 42.76
114.00 41.77
115.00 40.46
116.00 39.13
117.00 38.18
118.00 37.84
119.00 38.20
120.00 39.18
121.00 40.45
122.00 41.41
123.00 41.40
124.00 40.30
125.00 38.53
126.00 36.82
127.00 35.86
128.00 35.95
129.00 37.16
130.00 39.20
131.00 41.20
132.00 41.75
133.00 41.17
134.00 41.54
135.00 44.68
136.00 50.02
137.00 44.30
138.00 40.33
139.00 39.67
140.00 41.50
141.00 45.74
142.00 52.11
143.00 56.66
144.00 54.08
145.00 49.22
146.00 46.48
147.00 46.47
148.00 49.51
149.00 50.02
150.00 43.28
151.00 38.41
152.00 35.30
153.00 33.69
154.00 33.53
155.00 34.34
156.00 34.61
157.00 33.91
158.00 33.95
159.00 35.19
160.00 35.75
161.00 35.04
162.00 35.98
163.00 41.18
164.00 43.56
165.00 36.06
166.00 33.33
167.00 33.13
168.00 34.42
169.00 36.15
170.00 36.82
171.00 36.67
172.00 37.67
173.00 40.67
174.00 42.10
175.00 39.80
176.00 38.95
177.00 39.17
178.00 39.05
179.00 40.00
180.00 44.09
181.00 46.32
182.00 42.09
183.00 40.62
184.00 39.15
185.00 36.72
186.00 35.66
187.00 36.38
188.00 37.55
189.00 37.94
190.00 38.60
191.00 38.65
192.00 36.14
193.00 33.80
194.00 32.82
195.00 32.86
196.00 33.59
197.00 35.11
198.00 37.19
199.00 37.69
200.00 36.09
201.00 35.37
202.00 36.98
203.00 40.88
204.00 40.15
205.00 36.18
206.00 34.52
207.00 34.17
208.00 33.83
209.00 33.39
210.00 33.61
211.00 34.72
212.00 36.23
213.00 37.42
214.00 37.70
215.00 36.73
216.00 35.09
217.00 33.70
218.00 32.94
219.00 32.97
220.00 33.95
221.00 36.21
222.00 40.07
223.00 44.60
224.00 45.57
225.00 44.42
226.00 42.16
227.00 39.41
228.00 37.88
229.00 37.84
230.00 39.09
231.00 41.21
232.00 42.23
233.00 40.11
234.00 37.98
235.00 37.62
236.00 39.41
237.00 43.89
238.00 48.92
239.00 45.35
240.00 42.56
241.00 42.24
242.00 44.50
243.00 52.62
244.00 46.79
245.00 38.41
246.00 34.47
247.00 32.51
248.00 31.69
249.00 31.42
250.00 31.32
251.00 31.32
252.00 31.47
253.00 31.49
254.00 30.82
255.00 29.63
256.00 28.71
257.00 28.39
258.00 28.50
259.00 28.45
260.00 27.67
261.00 26.34
262.00 25.10
263.00 24.32
264.00 24.04
265.00 24.11
266.00 24.31
267.00 24.49
268.00 24.61
269.00 24.68
270.00 24.69
271.00 24.64
272.00 24.58
273.00 24.61
274.00 24.79
275.00 25.09
276.00 25.44
277.00 25.80
278.00 26.20
279.00 26.69
280.00 27.30
281.00 27.92
282.00 28.36
283.00 28.54
284.00 28.71
285.00 29.31
286.00 30.85
287.00 34.06
288.00 39.38
289.00 37.19
290.00 31.74
291.00 28.86
292.00 27.40
293.00 26.71
294.00 26.61
295.00 27.38
296.00 29.55
297.00 33.94
298.00 38.47
299.00 34.09
300.00 30.56
301.00 29.15
302.00 28.74
303.00 28.14
304.00 26.53
305.00 24.33
306.00 22.42
307.00 21.31
308.00 21.22
309.00 22.27
310.00 24.73
311.00 29.83
312.00 42.04
313.00 30.21
314.00 23.90
315.00 20.85
316.00 19.55
317.00 19.67
318.00 21.27
319.00 24.83
320.00 30.23
321.00 26.79
322.00 21.22
323.00 18.22
324.00 17.03
325.00 17.45
326.00 19.44
327.00 21.52
328.00 20.23
329.00 17.63
330.00 15.47
331.00 14.00
332.00 13.24
333.00 13.20
334.00 13.89
335.00 15.36
336.00 17.64
337.00 20.53
338.00 23.20
339.00 24.84
340.00 26.71
341.00 30.25
342.00 30.00
343.00 24.65
344.00 21.89
345.00 21.12
346.00 21.95
347.00 24.66
348.00 29.41
349.00 28.40
350.00 23.64
351.00 21.74
352.00 22.56
353.00 26.77
354.00 29.70
355.00 22.76
356.00 18.92
357.00 17.43
358.00 17.60
359.00 19.34
