NAME ATR4518R7_0847_X_CO_P45_05T
FREQUENCY 0847
GAIN 14.48 dBd
TILT	ELECTRICAL
COMMENT DATE 05.08.2013 +45 degrees polarized system Lever position 05T deg
HORIZONTAL 360
0.00 0.00
1.00 0.00
2.00 0.00
3.00 0.01
4.00 0.02
5.00 0.04
6.00 0.07
7.00 0.10
8.00 0.14
9.00 0.18
10.00 0.23
11.00 0.28
12.00 0.34
13.00 0.41
14.00 0.48
15.00 0.56
16.00 0.64
17.00 0.73
18.00 0.82
19.00 0.92
20.00 1.03
21.00 1.14
22.00 1.26
23.00 1.38
24.00 1.51
25.00 1.64
26.00 1.78
27.00 1.93
28.00 2.08
29.00 2.23
30.00 2.39
31.00 2.56
32.00 2.73
33.00 2.91
34.00 3.10
35.00 3.28
36.00 3.48
37.00 3.68
38.00 3.88
39.00 4.10
40.00 4.31
41.00 4.53
42.00 4.76
43.00 4.99
44.00 5.23
45.00 5.47
46.00 5.72
47.00 5.97
48.00 6.23
49.00 6.50
50.00 6.77
51.00 7.04
52.00 7.32
53.00 7.60
54.00 7.89
55.00 8.18
56.00 8.48
57.00 8.78
58.00 9.09
59.00 9.41
60.00 9.72
61.00 10.04
62.00 10.37
63.00 10.70
64.00 11.04
65.00 11.38
66.00 11.72
67.00 12.06
68.00 12.41
69.00 12.77
70.00 13.13
71.00 13.49
72.00 13.85
73.00 14.22
74.00 14.59
75.00 14.97
76.00 15.34
77.00 15.72
78.00 16.10
79.00 16.48
80.00 16.86
81.00 17.24
82.00 17.63
83.00 18.01
84.00 18.40
85.00 18.78
86.00 19.17
87.00 19.55
88.00 19.93
89.00 20.30
90.00 20.68
91.00 21.05
92.00 21.42
93.00 21.78
94.00 22.13
95.00 22.48
96.00 22.83
97.00 23.16
98.00 23.49
99.00 23.80
100.00 24.11
101.00 24.41
102.00 24.69
103.00 24.97
104.00 25.23
105.00 25.49
106.00 25.73
107.00 25.96
108.00 26.18
109.00 26.38
110.00 26.58
111.00 26.77
112.00 26.94
113.00 27.11
114.00 27.27
115.00 27.42
116.00 27.56
117.00 27.70
118.00 27.83
119.00 27.96
120.00 28.08
121.00 28.20
122.00 28.32
123.00 28.44
124.00 28.55
125.00 28.67
126.00 28.78
127.00 28.90
128.00 29.02
129.00 29.13
130.00 29.26
131.00 29.38
132.00 29.51
133.00 29.63
134.00 29.76
135.00 29.90
136.00 30.03
137.00 30.17
138.00 30.31
139.00 30.44
140.00 30.59
141.00 30.73
142.00 30.87
143.00 31.01
144.00 31.15
145.00 31.28
146.00 31.41
147.00 31.54
148.00 31.67
149.00 31.78
150.00 31.90
151.00 32.00
152.00 32.10
153.00 32.20
154.00 32.28
155.00 32.36
156.00 32.44
157.00 32.50
158.00 32.56
159.00 32.62
160.00 32.67
161.00 32.72
162.00 32.76
163.00 32.80
164.00 32.85
165.00 32.89
166.00 32.94
167.00 32.99
168.00 33.05
169.00 33.11
170.00 33.18
171.00 33.26
172.00 33.35
173.00 33.45
174.00 33.56
175.00 33.68
176.00 33.82
177.00 33.97
178.00 34.13
179.00 34.32
180.00 34.52
181.00 34.74
182.00 34.98
183.00 35.24
184.00 35.53
185.00 35.84
186.00 36.17
187.00 36.53
188.00 36.93
189.00 37.35
190.00 37.82
191.00 38.31
192.00 38.85
193.00 39.44
194.00 40.08
195.00 40.78
196.00 41.54
197.00 42.39
198.00 43.31
199.00 44.35
200.00 45.50
201.00 46.80
202.00 48.29
203.00 49.93
204.00 51.67
205.00 53.26
206.00 54.16
207.00 53.84
208.00 52.55
209.00 50.93
210.00 49.36
211.00 47.95
212.00 46.71
213.00 45.60
214.00 44.63
215.00 43.77
216.00 42.99
217.00 42.29
218.00 41.65
219.00 41.06
220.00 40.52
221.00 40.02
222.00 39.56
223.00 39.11
224.00 38.69
225.00 38.29
226.00 37.91
227.00 37.54
228.00 37.18
229.00 36.81
230.00 36.46
231.00 36.10
232.00 35.75
233.00 35.39
234.00 35.03
235.00 34.65
236.00 34.27
237.00 33.89
238.00 33.49
239.00 33.09
240.00 32.68
241.00 32.26
242.00 31.83
243.00 31.39
244.00 30.95
245.00 30.50
246.00 30.05
247.00 29.60
248.00 29.14
249.00 28.68
250.00 28.23
251.00 27.77
252.00 27.31
253.00 26.86
254.00 26.41
255.00 25.96
256.00 25.52
257.00 25.08
258.00 24.65
259.00 24.22
260.00 23.80
261.00 23.38
262.00 22.97
263.00 22.56
264.00 22.16
265.00 21.77
266.00 21.38
267.00 21.00
268.00 20.62
269.00 20.25
270.00 19.89
271.00 19.53
272.00 19.17
273.00 18.82
274.00 18.47
275.00 18.13
276.00 17.79
277.00 17.46
278.00 17.13
279.00 16.80
280.00 16.47
281.00 16.15
282.00 15.83
283.00 15.51
284.00 15.19
285.00 14.88
286.00 14.56
287.00 14.25
288.00 13.94
289.00 13.62
290.00 13.32
291.00 13.00
292.00 12.70
293.00 12.39
294.00 12.08
295.00 11.78
296.00 11.48
297.00 11.17
298.00 10.87
299.00 10.56
300.00 10.27
301.00 9.97
302.00 9.67
303.00 9.38
304.00 9.08
305.00 8.79
306.00 8.51
307.00 8.22
308.00 7.94
309.00 7.66
310.00 7.39
311.00 7.12
312.00 6.85
313.00 6.58
314.00 6.32
315.00 6.06
316.00 5.81
317.00 5.56
318.00 5.32
319.00 5.08
320.00 4.85
321.00 4.62
322.00 4.39
323.00 4.17
324.00 3.96
325.00 3.75
326.00 3.55
327.00 3.35
328.00 3.15
329.00 2.97
330.00 2.79
331.00 2.61
332.00 2.44
333.00 2.27
334.00 2.11
335.00 1.96
336.00 1.81
337.00 1.67
338.00 1.53
339.00 1.40
340.00 1.28
341.00 1.16
342.00 1.04
343.00 0.94
344.00 0.83
345.00 0.74
346.00 0.65
347.00 0.56
348.00 0.49
349.00 0.41
350.00 0.35
351.00 0.29
352.00 0.23
353.00 0.18
354.00 0.14
355.00 0.10
356.00 0.07
357.00 0.04
358.00 0.02
359.00 0.01
VERTICAL 360
0.00 4.21
1.00 2.58
2.00 1.39
3.00 0.57
4.00 0.12
5.00 0.00
6.00 0.21
7.00 0.77
8.00 1.69
9.00 3.00
10.00 4.76
11.00 7.07
12.00 10.12
13.00 14.27
14.00 20.46
15.00 33.71
16.00 31.37
17.00 26.21
18.00 26.32
19.00 30.33
20.00 42.97
21.00 28.74
22.00 22.84
23.00 19.70
24.00 17.93
25.00 17.09
26.00 17.00
27.00 17.59
28.00 18.85
29.00 20.84
30.00 23.72
31.00 27.86
32.00 33.51
33.00 34.71
34.00 31.26
35.00 29.69
36.00 30.12
37.00 32.36
38.00 33.95
39.00 30.16
40.00 26.05
41.00 23.21
42.00 21.31
43.00 20.05
44.00 19.19
45.00 18.60
46.00 18.28
47.00 18.27
48.00 18.63
49.00 19.41
50.00 20.65
51.00 22.34
52.00 24.47
53.00 27.02
54.00 30.06
55.00 34.22
56.00 41.69
57.00 47.00
58.00 37.82
59.00 34.13
60.00 32.35
61.00 31.43
62.00 30.86
63.00 30.29
64.00 29.65
65.00 29.24
66.00 29.45
67.00 30.56
68.00 32.79
69.00 35.81
70.00 36.83
71.00 34.74
72.00 32.83
73.00 31.99
74.00 32.27
75.00 33.90
76.00 36.73
77.00 36.43
78.00 32.46
79.00 29.73
80.00 28.61
81.00 28.89
82.00 30.47
83.00 33.14
84.00 34.45
85.00 31.96
86.00 29.42
87.00 28.19
88.00 28.13
89.00 28.87
90.00 29.85
91.00 30.67
92.00 31.17
93.00 31.14
94.00 30.52
95.00 29.94
96.00 29.96
97.00 30.60
98.00 31.41
99.00 31.96
100.00 32.35
101.00 33.03
102.00 34.30
103.00 36.41
104.00 39.58
105.00 43.66
106.00 47.23
107.00 49.77
108.00 53.57
109.00 56.70
110.00 53.76
111.00 48.14
112.00 43.07
113.00 39.81
114.00 38.19
115.00 37.83
116.00 38.32
117.00 39.12
118.00 39.63
119.00 39.28
120.00 38.20
121.00 37.26
122.00 36.97
123.00 37.36
124.00 38.11
125.00 38.59
126.00 38.32
127.00 37.41
128.00 36.41
129.00 35.75
130.00 35.59
131.00 35.91
132.00 36.55
133.00 37.25
134.00 37.74
135.00 37.81
136.00 37.54
137.00 37.24
138.00 37.34
139.00 38.25
140.00 40.42
141.00 44.68
142.00 51.84
143.00 47.51
144.00 42.10
145.00 38.87
146.00 36.68
147.00 35.21
148.00 34.38
149.00 34.05
150.00 33.97
151.00 33.85
152.00 33.64
153.00 33.59
154.00 33.88
155.00 34.53
156.00 35.37
157.00 36.23
158.00 37.08
159.00 38.16
160.00 40.07
161.00 44.02
162.00 51.46
163.00 45.63
164.00 40.70
165.00 38.90
166.00 39.20
167.00 41.67
168.00 48.16
169.00 55.77
170.00 43.47
171.00 38.83
172.00 36.24
173.00 34.83
174.00 34.34
175.00 34.74
176.00 35.25
177.00 36.52
178.00 38.23
179.00 39.86
180.00 40.88
181.00 41.13
182.00 40.87
183.00 40.46
184.00 39.89
185.00 39.17
186.00 38.22
187.00 37.11
188.00 35.99
189.00 35.05
190.00 34.47
191.00 34.30
192.00 34.46
193.00 34.72
194.00 34.90
195.00 34.96
196.00 35.00
197.00 35.16
198.00 35.57
199.00 36.28
200.00 37.28
201.00 38.31
202.00 38.89
203.00 38.57
204.00 37.70
205.00 37.07
206.00 37.24
207.00 38.63
208.00 41.82
209.00 47.95
210.00 50.17
211.00 44.36
212.00 41.13
213.00 39.02
214.00 37.20
215.00 35.47
216.00 34.01
217.00 33.01
218.00 32.64
219.00 32.94
220.00 33.81
221.00 34.95
222.00 35.98
223.00 36.56
224.00 36.64
225.00 36.36
226.00 36.02
227.00 35.82
228.00 35.68
229.00 35.28
230.00 34.36
231.00 33.01
232.00 31.53
233.00 30.19
234.00 29.19
235.00 28.63
236.00 28.52
237.00 28.79
238.00 29.31
239.00 29.99
240.00 30.71
241.00 31.21
242.00 31.25
243.00 31.03
244.00 31.06
245.00 31.55
246.00 32.29
247.00 32.75
248.00 32.62
249.00 31.99
250.00 31.25
251.00 30.89
252.00 31.24
253.00 32.36
254.00 33.95
255.00 34.95
256.00 34.04
257.00 31.90
258.00 30.07
259.00 29.26
260.00 29.67
261.00 31.42
262.00 34.51
263.00 37.47
264.00 36.29
265.00 33.53
266.00 31.73
267.00 31.09
268.00 31.57
269.00 33.15
270.00 35.59
271.00 36.84
272.00 34.67
273.00 32.22
274.00 31.03
275.00 31.17
276.00 32.37
277.00 33.76
278.00 33.88
279.00 32.65
280.00 31.15
281.00 29.97
282.00 29.30
283.00 29.11
284.00 29.17
285.00 29.24
286.00 29.23
287.00 29.29
288.00 29.55
289.00 30.13
290.00 31.18
291.00 32.79
292.00 35.12
293.00 38.40
294.00 43.36
295.00 51.03
296.00 47.57
297.00 42.39
298.00 39.50
299.00 37.94
300.00 37.51
301.00 38.17
302.00 39.65
303.00 41.14
304.00 41.89
305.00 41.27
306.00 38.00
307.00 33.63
308.00 29.78
309.00 26.70
310.00 24.30
311.00 22.46
312.00 21.06
313.00 19.99
314.00 19.17
315.00 18.53
316.00 18.10
317.00 17.91
318.00 18.04
319.00 18.56
320.00 19.53
321.00 20.99
322.00 23.00
323.00 25.64
324.00 29.17
325.00 34.48
326.00 46.38
327.00 42.93
328.00 35.84
329.00 33.38
330.00 32.92
331.00 33.93
332.00 36.31
333.00 39.94
334.00 42.78
335.00 40.16
336.00 35.87
337.00 32.14
338.00 29.02
339.00 26.39
340.00 24.20
341.00 22.44
342.00 21.16
343.00 20.43
344.00 20.35
345.00 21.05
346.00 22.75
347.00 25.94
348.00 32.36
349.00 42.71
350.00 30.60
351.00 26.57
352.00 25.52
353.00 27.36
354.00 37.61
355.00 27.13
356.00 18.16
357.00 12.89
358.00 9.16
359.00 6.36
