NAME ATR4518R7_1880_X_CO_M45_03T_yL
FREQUENCY 1880
GAIN 15.01 dBd
TILT	ELECTRICAL
COMMENT DATE 05.08.2013 -45 degrees polarized system Lever position 03T deg
HORIZONTAL 360
0.00 0.01
1.00 0.00
2.00 0.00
3.00 0.00
4.00 0.01
5.00 0.03
6.00 0.05
7.00 0.08
8.00 0.11
9.00 0.16
10.00 0.20
11.00 0.26
12.00 0.31
13.00 0.38
14.00 0.45
15.00 0.52
16.00 0.60
17.00 0.68
18.00 0.77
19.00 0.86
20.00 0.96
21.00 1.06
22.00 1.17
23.00 1.28
24.00 1.40
25.00 1.52
26.00 1.65
27.00 1.78
28.00 1.92
29.00 2.07
30.00 2.23
31.00 2.39
32.00 2.56
33.00 2.74
34.00 2.93
35.00 3.13
36.00 3.33
37.00 3.55
38.00 3.77
39.00 4.01
40.00 4.25
41.00 4.50
42.00 4.76
43.00 5.03
44.00 5.32
45.00 5.60
46.00 5.90
47.00 6.21
48.00 6.52
49.00 6.85
50.00 7.18
51.00 7.52
52.00 7.86
53.00 8.21
54.00 8.57
55.00 8.94
56.00 9.31
57.00 9.68
58.00 10.07
59.00 10.45
60.00 10.85
61.00 11.24
62.00 11.64
63.00 12.05
64.00 12.46
65.00 12.88
66.00 13.30
67.00 13.73
68.00 14.15
69.00 14.58
70.00 15.02
71.00 15.46
72.00 15.90
73.00 16.34
74.00 16.78
75.00 17.23
76.00 17.68
77.00 18.12
78.00 18.56
79.00 19.01
80.00 19.45
81.00 19.89
82.00 20.33
83.00 20.77
84.00 21.21
85.00 21.66
86.00 22.11
87.00 22.56
88.00 23.03
89.00 23.50
90.00 23.99
91.00 24.49
92.00 25.00
93.00 25.53
94.00 26.07
95.00 26.61
96.00 27.15
97.00 27.68
98.00 28.18
99.00 28.62
100.00 28.99
101.00 29.27
102.00 29.45
103.00 29.51
104.00 29.47
105.00 29.35
106.00 29.18
107.00 28.96
108.00 28.74
109.00 28.53
110.00 28.34
111.00 28.18
112.00 28.06
113.00 27.99
114.00 27.97
115.00 27.99
116.00 28.05
117.00 28.15
118.00 28.28
119.00 28.42
120.00 28.58
121.00 28.72
122.00 28.84
123.00 28.92
124.00 28.95
125.00 28.91
126.00 28.83
127.00 28.69
128.00 28.52
129.00 28.33
130.00 28.13
131.00 27.94
132.00 27.78
133.00 27.66
134.00 27.57
135.00 27.54
136.00 27.56
137.00 27.64
138.00 27.78
139.00 27.98
140.00 28.25
141.00 28.58
142.00 28.99
143.00 29.46
144.00 30.00
145.00 30.60
146.00 31.28
147.00 32.02
148.00 32.82
149.00 33.66
150.00 34.52
151.00 35.37
152.00 36.14
153.00 36.75
154.00 37.13
155.00 37.22
156.00 37.04
157.00 36.62
158.00 36.08
159.00 35.47
160.00 34.86
161.00 34.29
162.00 33.79
163.00 33.37
164.00 33.03
165.00 32.79
166.00 32.65
167.00 32.62
168.00 32.70
169.00 32.89
170.00 33.20
171.00 33.65
172.00 34.20
173.00 34.85
174.00 35.55
175.00 36.19
176.00 36.60
177.00 36.60
178.00 36.13
179.00 35.29
180.00 34.24
181.00 33.16
182.00 32.15
183.00 31.23
184.00 30.45
185.00 29.80
186.00 29.28
187.00 28.89
188.00 28.63
189.00 28.50
190.00 28.51
191.00 28.66
192.00 28.96
193.00 29.42
194.00 30.07
195.00 30.94
196.00 32.08
197.00 33.56
198.00 35.51
199.00 38.13
200.00 41.58
201.00 44.48
202.00 42.48
203.00 38.77
204.00 35.83
205.00 33.62
206.00 31.93
207.00 30.60
208.00 29.56
209.00 28.75
210.00 28.13
211.00 27.68
212.00 27.38
213.00 27.23
214.00 27.22
215.00 27.35
216.00 27.61
217.00 28.03
218.00 28.61
219.00 29.39
220.00 30.38
221.00 31.65
222.00 33.29
223.00 35.45
224.00 38.41
225.00 42.60
226.00 46.24
227.00 42.72
228.00 38.43
229.00 35.36
230.00 33.10
231.00 31.36
232.00 29.97
233.00 28.85
234.00 27.93
235.00 27.17
236.00 26.55
237.00 26.04
238.00 25.62
239.00 25.29
240.00 25.03
241.00 24.82
242.00 24.67
243.00 24.56
244.00 24.48
245.00 24.41
246.00 24.35
247.00 24.29
248.00 24.22
249.00 24.13
250.00 24.00
251.00 23.84
252.00 23.64
253.00 23.41
254.00 23.15
255.00 22.86
256.00 22.55
257.00 22.24
258.00 21.91
259.00 21.59
260.00 21.27
261.00 20.96
262.00 20.65
263.00 20.36
264.00 20.07
265.00 19.79
266.00 19.52
267.00 19.25
268.00 18.98
269.00 18.70
270.00 18.43
271.00 18.15
272.00 17.86
273.00 17.56
274.00 17.25
275.00 16.94
276.00 16.62
277.00 16.29
278.00 15.95
279.00 15.62
280.00 15.28
281.00 14.94
282.00 14.60
283.00 14.26
284.00 13.93
285.00 13.60
286.00 13.28
287.00 12.96
288.00 12.65
289.00 12.34
290.00 12.04
291.00 11.74
292.00 11.45
293.00 11.16
294.00 10.88
295.00 10.60
296.00 10.32
297.00 10.05
298.00 9.78
299.00 9.51
300.00 9.25
301.00 8.99
302.00 8.74
303.00 8.49
304.00 8.24
305.00 8.01
306.00 7.77
307.00 7.54
308.00 7.32
309.00 7.10
310.00 6.88
311.00 6.67
312.00 6.47
313.00 6.27
314.00 6.07
315.00 5.87
316.00 5.68
317.00 5.49
318.00 5.30
319.00 5.11
320.00 4.92
321.00 4.73
322.00 4.54
323.00 4.35
324.00 4.16
325.00 3.97
326.00 3.79
327.00 3.60
328.00 3.42
329.00 3.23
330.00 3.06
331.00 2.88
332.00 2.71
333.00 2.54
334.00 2.38
335.00 2.22
336.00 2.07
337.00 1.92
338.00 1.78
339.00 1.65
340.00 1.52
341.00 1.39
342.00 1.27
343.00 1.15
344.00 1.04
345.00 0.94
346.00 0.84
347.00 0.74
348.00 0.65
349.00 0.57
350.00 0.49
351.00 0.41
352.00 0.34
353.00 0.28
354.00 0.22
355.00 0.17
356.00 0.13
357.00 0.09
358.00 0.05
359.00 0.03
VERTICAL 360
0.00 3.74
1.00 1.75
2.00 0.53
3.00 0.00
4.00 0.17
5.00 1.11
6.00 2.97
7.00 6.11
8.00 11.55
9.00 25.31
10.00 18.89
11.00 13.34
12.00 12.06
13.00 13.02
14.00 16.16
15.00 21.54
16.00 20.60
17.00 16.53
18.00 14.85
19.00 15.05
20.00 16.88
21.00 20.47
22.00 25.01
23.00 23.38
24.00 19.68
25.00 17.72
26.00 17.34
27.00 18.52
28.00 21.68
29.00 28.52
30.00 34.69
31.00 25.98
32.00 22.61
33.00 21.18
34.00 20.73
35.00 20.98
36.00 21.82
37.00 22.85
38.00 23.12
39.00 22.27
40.00 21.13
41.00 20.26
42.00 19.66
43.00 19.14
44.00 18.63
45.00 18.25
46.00 18.14
47.00 18.40
48.00 19.07
49.00 20.14
50.00 21.57
51.00 23.30
52.00 25.32
53.00 27.86
54.00 31.57
55.00 37.53
56.00 37.51
57.00 31.70
58.00 28.28
59.00 26.23
60.00 24.94
61.00 24.11
62.00 23.63
63.00 23.46
64.00 23.62
65.00 24.09
66.00 24.83
67.00 25.75
68.00 26.74
69.00 27.72
70.00 28.70
71.00 29.82
72.00 31.22
73.00 33.02
74.00 35.16
75.00 37.25
76.00 38.78
77.00 39.77
78.00 40.82
79.00 42.58
80.00 45.53
81.00 48.37
82.00 45.81
83.00 42.37
84.00 40.82
85.00 41.23
86.00 43.80
87.00 49.12
88.00 56.62
89.00 62.44
90.00 58.18
91.00 47.29
92.00 42.32
93.00 39.87
94.00 38.89
95.00 38.84
96.00 39.37
97.00 40.40
98.00 41.91
99.00 43.81
100.00 45.91
101.00 48.14
102.00 51.06
103.00 56.64
104.00 63.26
105.00 53.51
106.00 49.27
107.00 47.24
108.00 45.89
109.00 44.33
110.00 42.34
111.00 40.39
112.00 39.00
113.00 38.49
114.00 38.91
115.00 39.92
116.00 40.51
117.00 39.64
118.00 38.02
119.00 36.83
120.00 36.58
121.00 37.46
122.00 39.35
123.00 41.51
124.00 43.10
125.00 45.21
126.00 49.41
127.00 49.69
128.00 45.39
129.00 43.62
130.00 43.56
131.00 43.41
132.00 42.04
133.00 40.58
134.00 39.93
135.00 40.30
136.00 41.75
137.00 44.28
138.00 47.28
139.00 48.74
140.00 46.56
141.00 42.46
142.00 38.96
143.00 36.68
144.00 35.59
145.00 35.57
146.00 36.54
147.00 38.50
148.00 41.29
149.00 42.69
150.00 40.51
151.00 38.17
152.00 37.08
153.00 37.22
154.00 38.42
155.00 40.36
156.00 41.84
157.00 40.31
158.00 37.03
159.00 34.41
160.00 32.94
161.00 32.54
162.00 32.96
163.00 33.72
164.00 34.38
165.00 35.11
166.00 36.38
167.00 38.20
168.00 39.68
169.00 40.02
170.00 39.45
171.00 38.00
172.00 36.01
173.00 34.32
174.00 33.19
175.00 32.50
176.00 32.00
177.00 31.68
178.00 31.90
179.00 32.97
180.00 35.54
181.00 40.81
182.00 48.18
183.00 43.24
184.00 41.45
185.00 43.44
186.00 47.35
187.00 46.80
188.00 44.30
189.00 39.87
190.00 35.41
191.00 32.74
192.00 31.96
193.00 33.03
194.00 36.12
195.00 41.44
196.00 46.22
197.00 46.92
198.00 49.03
199.00 47.38
200.00 43.97
201.00 44.00
202.00 50.49
203.00 48.02
204.00 38.57
205.00 34.60
206.00 33.20
207.00 33.95
208.00 37.30
209.00 44.64
210.00 41.98
211.00 37.19
212.00 35.43
213.00 34.65
214.00 33.57
215.00 32.34
216.00 31.66
217.00 31.91
218.00 33.15
219.00 35.42
220.00 38.60
221.00 41.20
222.00 40.68
223.00 39.23
224.00 38.85
225.00 39.84
226.00 41.85
227.00 42.36
228.00 39.78
229.00 37.35
230.00 36.22
231.00 36.45
232.00 38.13
233.00 41.66
234.00 48.54
235.00 68.37
236.00 49.75
237.00 45.73
238.00 44.25
239.00 44.15
240.00 45.15
241.00 47.22
242.00 50.47
243.00 54.43
244.00 56.70
245.00 58.33
246.00 58.41
247.00 51.92
248.00 47.74
249.00 46.11
250.00 46.36
251.00 47.73
252.00 48.92
253.00 49.21
254.00 48.83
255.00 48.11
256.00 48.11
257.00 50.09
258.00 55.87
259.00 63.62
260.00 55.30
261.00 51.13
262.00 47.24
263.00 43.99
264.00 42.04
265.00 41.37
266.00 41.56
267.00 41.73
268.00 40.73
269.00 38.69
270.00 36.59
271.00 34.91
272.00 33.70
273.00 32.84
274.00 32.15
275.00 31.49
276.00 30.76
277.00 29.93
278.00 29.03
279.00 28.11
280.00 27.25
281.00 26.49
282.00 25.87
283.00 25.42
284.00 25.18
285.00 25.19
286.00 25.47
287.00 26.02
288.00 26.87
289.00 28.01
290.00 29.45
291.00 31.11
292.00 32.77
293.00 34.06
294.00 34.76
295.00 34.43
296.00 32.36
297.00 29.26
298.00 26.34
299.00 24.10
300.00 22.58
301.00 21.73
302.00 21.46
303.00 21.61
304.00 22.11
305.00 22.98
306.00 24.41
307.00 26.66
308.00 29.56
309.00 30.45
310.00 27.78
311.00 25.01
312.00 23.02
313.00 21.63
314.00 20.68
315.00 20.18
316.00 20.22
317.00 20.94
318.00 22.46
319.00 24.91
320.00 28.12
321.00 30.31
322.00 29.16
323.00 27.03
324.00 25.35
325.00 24.13
326.00 23.24
327.00 22.66
328.00 22.47
329.00 22.82
330.00 23.79
331.00 24.98
332.00 24.91
333.00 23.10
334.00 21.24
335.00 20.34
336.00 20.76
337.00 22.92
338.00 27.29
339.00 26.97
340.00 21.54
341.00 18.31
342.00 16.89
343.00 16.95
344.00 18.59
345.00 22.58
346.00 33.16
347.00 29.78
348.00 22.84
349.00 20.63
350.00 20.71
351.00 22.66
352.00 25.74
353.00 26.23
354.00 25.18
355.00 28.22
356.00 30.78
357.00 17.52
358.00 10.94
359.00 6.67
