NAME ATR4518R7_1850_X_CO_M45_06T_yL
FREQUENCY 1850
GAIN 15.30 dBd
TILT	ELECTRICAL
COMMENT DATE 05.08.2013 -45 degrees polarized system Lever position 06T deg
HORIZONTAL 360
0.00 0.00
1.00 0.01
2.00 0.02
3.00 0.04
4.00 0.07
5.00 0.10
6.00 0.14
7.00 0.18
8.00 0.22
9.00 0.27
10.00 0.33
11.00 0.39
12.00 0.45
13.00 0.51
14.00 0.58
15.00 0.65
16.00 0.72
17.00 0.79
18.00 0.86
19.00 0.94
20.00 1.01
21.00 1.09
22.00 1.17
23.00 1.26
24.00 1.34
25.00 1.44
26.00 1.53
27.00 1.64
28.00 1.75
29.00 1.87
30.00 1.99
31.00 2.13
32.00 2.27
33.00 2.43
34.00 2.59
35.00 2.76
36.00 2.95
37.00 3.14
38.00 3.35
39.00 3.56
40.00 3.79
41.00 4.02
42.00 4.26
43.00 4.51
44.00 4.77
45.00 5.04
46.00 5.31
47.00 5.59
48.00 5.88
49.00 6.17
50.00 6.46
51.00 6.76
52.00 7.06
53.00 7.36
54.00 7.66
55.00 7.97
56.00 8.28
57.00 8.58
58.00 8.90
59.00 9.21
60.00 9.52
61.00 9.84
62.00 10.15
63.00 10.48
64.00 10.81
65.00 11.14
66.00 11.47
67.00 11.81
68.00 12.16
69.00 12.52
70.00 12.88
71.00 13.26
72.00 13.64
73.00 14.03
74.00 14.43
75.00 14.84
76.00 15.26
77.00 15.69
78.00 16.12
79.00 16.57
80.00 17.02
81.00 17.47
82.00 17.93
83.00 18.39
84.00 18.84
85.00 19.29
86.00 19.72
87.00 20.15
88.00 20.55
89.00 20.94
90.00 21.30
91.00 21.64
92.00 21.95
93.00 22.24
94.00 22.50
95.00 22.74
96.00 22.96
97.00 23.16
98.00 23.36
99.00 23.54
100.00 23.73
101.00 23.91
102.00 24.10
103.00 24.29
104.00 24.48
105.00 24.68
106.00 24.87
107.00 25.06
108.00 25.25
109.00 25.43
110.00 25.60
111.00 25.76
112.00 25.91
113.00 26.05
114.00 26.19
115.00 26.32
116.00 26.46
117.00 26.60
118.00 26.76
119.00 26.94
120.00 27.15
121.00 27.38
122.00 27.63
123.00 27.90
124.00 28.19
125.00 28.47
126.00 28.73
127.00 28.95
128.00 29.10
129.00 29.17
130.00 29.13
131.00 29.00
132.00 28.78
133.00 28.49
134.00 28.18
135.00 27.84
136.00 27.53
137.00 27.24
138.00 27.00
139.00 26.82
140.00 26.71
141.00 26.67
142.00 26.70
143.00 26.82
144.00 27.03
145.00 27.34
146.00 27.74
147.00 28.25
148.00 28.87
149.00 29.62
150.00 30.49
151.00 31.51
152.00 32.66
153.00 33.94
154.00 35.28
155.00 36.57
156.00 37.59
157.00 38.09
158.00 38.00
159.00 37.49
160.00 36.84
161.00 36.22
162.00 35.74
163.00 35.44
164.00 35.34
165.00 35.47
166.00 35.83
167.00 36.46
168.00 37.39
169.00 38.73
170.00 40.59
171.00 43.20
172.00 46.67
173.00 48.81
174.00 45.83
175.00 42.06
176.00 39.15
177.00 36.94
178.00 35.22
179.00 33.86
180.00 32.78
181.00 31.93
182.00 31.27
183.00 30.78
184.00 30.45
185.00 30.26
186.00 30.21
187.00 30.31
188.00 30.56
189.00 30.97
190.00 31.56
191.00 32.35
192.00 33.40
193.00 34.77
194.00 36.60
195.00 39.15
196.00 43.02
197.00 50.01
198.00 51.77
199.00 43.65
200.00 39.19
201.00 36.24
202.00 34.06
203.00 32.37
204.00 31.01
205.00 29.90
206.00 28.99
207.00 28.23
208.00 27.61
209.00 27.12
210.00 26.73
211.00 26.45
212.00 26.27
213.00 26.18
214.00 26.19
215.00 26.29
216.00 26.50
217.00 26.82
218.00 27.26
219.00 27.83
220.00 28.57
221.00 29.50
222.00 30.68
223.00 32.18
224.00 34.17
225.00 36.94
226.00 41.28
227.00 50.94
228.00 50.18
229.00 40.84
230.00 36.45
231.00 33.58
232.00 31.48
233.00 29.84
234.00 28.53
235.00 27.46
236.00 26.58
237.00 25.85
238.00 25.25
239.00 24.77
240.00 24.38
241.00 24.07
242.00 23.84
243.00 23.67
244.00 23.55
245.00 23.48
246.00 23.43
247.00 23.40
248.00 23.38
249.00 23.34
250.00 23.28
251.00 23.19
252.00 23.05
253.00 22.87
254.00 22.63
255.00 22.36
256.00 22.05
257.00 21.72
258.00 21.37
259.00 21.01
260.00 20.66
261.00 20.32
262.00 19.98
263.00 19.67
264.00 19.37
265.00 19.08
266.00 18.81
267.00 18.55
268.00 18.31
269.00 18.07
270.00 17.84
271.00 17.60
272.00 17.37
273.00 17.13
274.00 16.88
275.00 16.62
276.00 16.35
277.00 16.06
278.00 15.76
279.00 15.45
280.00 15.13
281.00 14.80
282.00 14.46
283.00 14.12
284.00 13.77
285.00 13.42
286.00 13.07
287.00 12.72
288.00 12.38
289.00 12.04
290.00 11.70
291.00 11.38
292.00 11.06
293.00 10.75
294.00 10.45
295.00 10.16
296.00 9.87
297.00 9.59
298.00 9.31
299.00 9.05
300.00 8.79
301.00 8.54
302.00 8.29
303.00 8.06
304.00 7.82
305.00 7.60
306.00 7.38
307.00 7.16
308.00 6.95
309.00 6.75
310.00 6.55
311.00 6.36
312.00 6.17
313.00 5.99
314.00 5.82
315.00 5.65
316.00 5.48
317.00 5.31
318.00 5.15
319.00 4.98
320.00 4.82
321.00 4.66
322.00 4.49
323.00 4.32
324.00 4.15
325.00 3.98
326.00 3.80
327.00 3.62
328.00 3.43
329.00 3.25
330.00 3.06
331.00 2.87
332.00 2.68
333.00 2.50
334.00 2.31
335.00 2.13
336.00 1.95
337.00 1.78
338.00 1.62
339.00 1.46
340.00 1.31
341.00 1.17
342.00 1.04
343.00 0.91
344.00 0.79
345.00 0.69
346.00 0.59
347.00 0.50
348.00 0.42
349.00 0.34
350.00 0.28
351.00 0.22
352.00 0.17
353.00 0.12
354.00 0.09
355.00 0.06
356.00 0.03
357.00 0.01
358.00 0.00
359.00 0.00
VERTICAL 360
0.00 12.52
1.00 8.18
2.00 5.00
3.00 2.71
4.00 1.15
5.00 0.25
6.00 0.00
7.00 0.40
8.00 1.53
9.00 3.56
10.00 6.86
11.00 12.37
12.00 22.47
13.00 17.47
14.00 13.29
15.00 12.39
16.00 13.66
17.00 17.29
18.00 23.84
19.00 21.31
20.00 16.57
21.00 14.50
22.00 14.07
23.00 14.95
24.00 17.19
25.00 21.18
26.00 26.49
27.00 25.10
28.00 21.76
29.00 20.43
30.00 20.72
31.00 22.58
32.00 26.77
33.00 35.49
34.00 28.18
35.00 22.43
36.00 19.67
37.00 18.56
38.00 18.65
39.00 19.68
40.00 21.36
41.00 23.20
42.00 24.30
43.00 23.79
44.00 22.18
45.00 20.53
46.00 19.34
47.00 18.66
48.00 18.38
49.00 18.32
50.00 18.38
51.00 18.55
52.00 18.93
53.00 19.66
54.00 20.83
55.00 22.45
56.00 24.48
57.00 26.87
58.00 29.70
59.00 33.41
60.00 39.33
61.00 57.06
62.00 43.85
63.00 38.08
64.00 35.31
65.00 33.51
66.00 32.08
67.00 30.86
68.00 29.89
69.00 29.24
70.00 28.91
71.00 28.78
72.00 28.71
73.00 28.66
74.00 28.69
75.00 28.94
76.00 29.55
77.00 30.56
78.00 31.93
79.00 33.63
80.00 35.79
81.00 38.50
82.00 41.44
83.00 44.08
84.00 47.08
85.00 52.09
86.00 56.89
87.00 49.57
88.00 43.69
89.00 39.97
90.00 38.00
91.00 37.63
92.00 38.71
93.00 40.41
94.00 40.22
95.00 38.55
96.00 37.92
97.00 39.09
98.00 42.23
99.00 47.03
100.00 50.00
101.00 48.69
102.00 46.43
103.00 45.29
104.00 46.29
105.00 49.61
106.00 51.59
107.00 49.67
108.00 48.82
109.00 49.02
110.00 49.03
111.00 47.60
112.00 45.13
113.00 43.60
114.00 43.81
115.00 45.41
116.00 45.90
117.00 44.20
118.00 42.77
119.00 42.42
120.00 43.37
121.00 45.59
122.00 45.79
123.00 42.50
124.00 40.14
125.00 39.28
126.00 39.47
127.00 40.44
128.00 42.39
129.00 45.41
130.00 46.54
131.00 43.68
132.00 41.14
133.00 39.73
134.00 39.29
135.00 39.67
136.00 40.71
137.00 42.15
138.00 43.80
139.00 45.43
140.00 46.35
141.00 46.03
142.00 45.57
143.00 46.36
144.00 50.35
145.00 71.15
146.00 47.42
147.00 41.76
148.00 39.31
149.00 38.60
150.00 38.90
151.00 39.62
152.00 40.53
153.00 41.33
154.00 40.73
155.00 38.85
156.00 37.52
157.00 37.33
158.00 37.74
159.00 37.68
160.00 36.73
161.00 35.41
162.00 34.05
163.00 32.97
164.00 32.48
165.00 32.65
166.00 33.30
167.00 34.25
168.00 35.26
169.00 35.76
170.00 35.10
171.00 33.88
172.00 33.03
173.00 32.84
174.00 33.29
175.00 34.30
176.00 35.84
177.00 38.19
178.00 42.15
179.00 50.32
180.00 53.24
181.00 46.06
182.00 43.93
183.00 43.93
184.00 46.52
185.00 58.55
186.00 44.91
187.00 37.97
188.00 34.78
189.00 33.65
190.00 34.03
191.00 35.52
192.00 37.50
193.00 38.92
194.00 39.42
195.00 39.84
196.00 40.88
197.00 42.87
198.00 46.49
199.00 54.49
200.00 50.67
201.00 42.79
202.00 38.53
203.00 36.10
204.00 35.22
205.00 36.20
206.00 40.35
207.00 63.23
208.00 40.74
209.00 34.92
210.00 32.11
211.00 30.36
212.00 29.07
213.00 28.24
214.00 28.07
215.00 28.74
216.00 30.31
217.00 32.85
218.00 36.26
219.00 39.90
220.00 42.54
221.00 44.15
222.00 44.61
223.00 42.21
224.00 39.01
225.00 36.74
226.00 35.55
227.00 35.30
228.00 35.93
229.00 37.40
230.00 39.67
231.00 42.28
232.00 43.19
233.00 41.42
234.00 39.10
235.00 37.17
236.00 35.75
237.00 34.85
238.00 34.48
239.00 34.57
240.00 34.95
241.00 35.40
242.00 35.71
243.00 35.90
244.00 36.13
245.00 36.57
246.00 37.14
247.00 37.55
248.00 37.63
249.00 37.43
250.00 37.08
251.00 36.71
252.00 36.55
253.00 36.83
254.00 37.81
255.00 39.85
256.00 43.69
257.00 51.78
258.00 57.03
259.00 48.03
260.00 45.00
261.00 43.32
262.00 41.46
263.00 39.24
264.00 37.19
265.00 35.61
266.00 34.46
267.00 33.57
268.00 32.78
269.00 32.05
270.00 31.44
271.00 31.12
272.00 31.20
273.00 31.58
274.00 31.91
275.00 31.79
276.00 31.26
277.00 30.75
278.00 30.62
279.00 30.91
280.00 31.32
281.00 31.31
282.00 30.64
283.00 29.61
284.00 28.59
285.00 27.70
286.00 26.91
287.00 26.16
288.00 25.46
289.00 24.84
290.00 24.29
291.00 23.81
292.00 23.41
293.00 23.15
294.00 23.05
295.00 23.17
296.00 23.60
297.00 24.56
298.00 26.43
299.00 29.77
300.00 34.26
301.00 32.29
302.00 27.99
303.00 25.32
304.00 23.72
305.00 22.72
306.00 22.12
307.00 21.95
308.00 22.40
309.00 23.73
310.00 26.21
311.00 29.20
312.00 28.45
313.00 24.92
314.00 22.09
315.00 20.14
316.00 18.92
317.00 18.36
318.00 18.49
319.00 19.43
320.00 21.39
321.00 24.86
322.00 30.88
323.00 34.05
324.00 28.57
325.00 25.87
326.00 25.31
327.00 26.51
328.00 29.64
329.00 32.82
330.00 29.45
331.00 25.79
332.00 23.91
333.00 23.51
334.00 24.36
335.00 26.19
336.00 27.61
337.00 26.64
338.00 24.71
339.00 23.48
340.00 23.28
341.00 24.14
342.00 26.03
343.00 28.09
344.00 27.86
345.00 26.04
346.00 25.05
347.00 25.44
348.00 26.63
349.00 25.96
350.00 23.08
351.00 20.71
352.00 19.59
353.00 19.79
354.00 21.40
355.00 24.66
356.00 30.13
357.00 40.49
358.00 27.53
359.00 18.52
