NAME ATR4518R7_1750_X_CO_P45_07T_yyR
FREQUENCY 1750
GAIN 14.81 dBd
TILT	ELECTRICAL
COMMENT DATE 05.08.2013 +45 degrees polarized system Lever position 07T deg
HORIZONTAL 360
0.00 0.00
1.00 0.00
2.00 0.01
3.00 0.02
4.00 0.03
5.00 0.05
6.00 0.08
7.00 0.12
8.00 0.16
9.00 0.21
10.00 0.26
11.00 0.33
12.00 0.40
13.00 0.48
14.00 0.57
15.00 0.67
16.00 0.77
17.00 0.89
18.00 1.01
19.00 1.15
20.00 1.29
21.00 1.44
22.00 1.61
23.00 1.78
24.00 1.96
25.00 2.14
26.00 2.34
27.00 2.54
28.00 2.75
29.00 2.96
30.00 3.18
31.00 3.40
32.00 3.62
33.00 3.85
34.00 4.08
35.00 4.31
36.00 4.53
37.00 4.76
38.00 4.98
39.00 5.20
40.00 5.42
41.00 5.63
42.00 5.83
43.00 6.04
44.00 6.23
45.00 6.43
46.00 6.62
47.00 6.80
48.00 6.99
49.00 7.17
50.00 7.35
51.00 7.53
52.00 7.71
53.00 7.89
54.00 8.07
55.00 8.25
56.00 8.44
57.00 8.63
58.00 8.82
59.00 9.02
60.00 9.22
61.00 9.42
62.00 9.63
63.00 9.85
64.00 10.07
65.00 10.29
66.00 10.52
67.00 10.76
68.00 10.99
69.00 11.24
70.00 11.49
71.00 11.74
72.00 11.99
73.00 12.26
74.00 12.53
75.00 12.80
76.00 13.08
77.00 13.36
78.00 13.65
79.00 13.94
80.00 14.24
81.00 14.54
82.00 14.85
83.00 15.16
84.00 15.48
85.00 15.80
86.00 16.12
87.00 16.44
88.00 16.77
89.00 17.10
90.00 17.42
91.00 17.75
92.00 18.07
93.00 18.39
94.00 18.70
95.00 19.01
96.00 19.31
97.00 19.60
98.00 19.88
99.00 20.14
100.00 20.40
101.00 20.64
102.00 20.88
103.00 21.09
104.00 21.30
105.00 21.49
106.00 21.67
107.00 21.84
108.00 22.00
109.00 22.14
110.00 22.28
111.00 22.41
112.00 22.53
113.00 22.65
114.00 22.76
115.00 22.86
116.00 22.97
117.00 23.08
118.00 23.19
119.00 23.30
120.00 23.42
121.00 23.56
122.00 23.70
123.00 23.86
124.00 24.04
125.00 24.24
126.00 24.46
127.00 24.70
128.00 24.97
129.00 25.28
130.00 25.61
131.00 25.98
132.00 26.39
133.00 26.84
134.00 27.33
135.00 27.86
136.00 28.44
137.00 29.07
138.00 29.75
139.00 30.47
140.00 31.24
141.00 32.04
142.00 32.88
143.00 33.74
144.00 34.59
145.00 35.41
146.00 36.17
147.00 36.84
148.00 37.41
149.00 37.88
150.00 38.26
151.00 38.58
152.00 38.89
153.00 39.23
154.00 39.64
155.00 40.15
156.00 40.83
157.00 41.70
158.00 42.84
159.00 44.33
160.00 46.31
161.00 48.91
162.00 51.85
163.00 52.59
164.00 49.72
165.00 46.46
166.00 43.81
167.00 41.72
168.00 40.04
169.00 38.65
170.00 37.51
171.00 36.57
172.00 35.78
173.00 35.14
174.00 34.63
175.00 34.22
176.00 33.93
177.00 33.72
178.00 33.62
179.00 33.60
180.00 33.67
181.00 33.82
182.00 34.04
183.00 34.34
184.00 34.69
185.00 35.09
186.00 35.50
187.00 35.90
188.00 36.23
189.00 36.42
190.00 36.46
191.00 36.30
192.00 35.95
193.00 35.47
194.00 34.90
195.00 34.29
196.00 33.68
197.00 33.09
198.00 32.56
199.00 32.08
200.00 31.66
201.00 31.31
202.00 31.02
203.00 30.79
204.00 30.63
205.00 30.54
206.00 30.50
207.00 30.53
208.00 30.61
209.00 30.75
210.00 30.95
211.00 31.20
212.00 31.51
213.00 31.85
214.00 32.24
215.00 32.65
216.00 33.08
217.00 33.50
218.00 33.89
219.00 34.23
220.00 34.49
221.00 34.64
222.00 34.69
223.00 34.62
224.00 34.46
225.00 34.22
226.00 33.94
227.00 33.63
228.00 33.32
229.00 33.03
230.00 32.75
231.00 32.51
232.00 32.30
233.00 32.14
234.00 32.00
235.00 31.91
236.00 31.86
237.00 31.84
238.00 31.85
239.00 31.90
240.00 31.98
241.00 32.09
242.00 32.22
243.00 32.37
244.00 32.55
245.00 32.75
246.00 32.96
247.00 33.19
248.00 33.44
249.00 33.71
250.00 34.01
251.00 34.33
252.00 34.68
253.00 35.06
254.00 35.49
255.00 35.96
256.00 36.49
257.00 37.08
258.00 37.71
259.00 38.39
260.00 39.07
261.00 39.68
262.00 40.10
263.00 40.16
264.00 39.76
265.00 38.93
266.00 37.79
267.00 36.50
268.00 35.18
269.00 33.88
270.00 32.64
271.00 31.46
272.00 30.35
273.00 29.30
274.00 28.31
275.00 27.38
276.00 26.49
277.00 25.64
278.00 24.83
279.00 24.05
280.00 23.31
281.00 22.59
282.00 21.89
283.00 21.22
284.00 20.57
285.00 19.94
286.00 19.32
287.00 18.72
288.00 18.14
289.00 17.56
290.00 17.00
291.00 16.46
292.00 15.92
293.00 15.39
294.00 14.87
295.00 14.37
296.00 13.87
297.00 13.38
298.00 12.90
299.00 12.43
300.00 11.97
301.00 11.52
302.00 11.08
303.00 10.64
304.00 10.21
305.00 9.80
306.00 9.38
307.00 8.99
308.00 8.59
309.00 8.21
310.00 7.84
311.00 7.47
312.00 7.12
313.00 6.77
314.00 6.43
315.00 6.10
316.00 5.78
317.00 5.47
318.00 5.17
319.00 4.88
320.00 4.60
321.00 4.33
322.00 4.06
323.00 3.81
324.00 3.57
325.00 3.33
326.00 3.11
327.00 2.89
328.00 2.69
329.00 2.49
330.00 2.31
331.00 2.13
332.00 1.96
333.00 1.80
334.00 1.65
335.00 1.51
336.00 1.37
337.00 1.25
338.00 1.13
339.00 1.02
340.00 0.92
341.00 0.82
342.00 0.73
343.00 0.65
344.00 0.57
345.00 0.50
346.00 0.44
347.00 0.37
348.00 0.32
349.00 0.27
350.00 0.23
351.00 0.18
352.00 0.15
353.00 0.12
354.00 0.09
355.00 0.06
356.00 0.04
357.00 0.02
358.00 0.01
359.00 0.00
VERTICAL 360
0.00 17.16
1.00 12.28
2.00 7.94
3.00 4.72
4.00 2.45
5.00 0.97
6.00 0.17
7.00 0.00
8.00 0.45
9.00 1.54
10.00 3.42
11.00 6.37
12.00 11.09
13.00 20.36
14.00 25.86
15.00 17.41
16.00 15.74
17.00 17.09
18.00 22.13
19.00 34.34
20.00 21.10
21.00 15.88
22.00 13.58
23.00 12.84
24.00 13.27
25.00 14.86
26.00 17.93
27.00 23.87
28.00 34.80
29.00 25.40
30.00 21.06
31.00 19.85
32.00 20.56
33.00 23.11
34.00 27.54
35.00 28.16
36.00 23.00
37.00 19.42
38.00 17.45
39.00 16.77
40.00 17.29
41.00 19.01
42.00 21.97
43.00 26.00
44.00 29.22
45.00 27.86
46.00 24.71
47.00 22.16
48.00 20.49
49.00 19.72
50.00 19.71
51.00 20.14
52.00 20.48
53.00 20.43
54.00 20.14
55.00 19.94
56.00 20.10
57.00 20.76
58.00 21.96
59.00 23.68
60.00 25.90
61.00 28.64
62.00 31.97
63.00 35.72
64.00 38.38
65.00 38.44
66.00 37.30
67.00 35.99
68.00 34.68
69.00 33.50
70.00 32.54
71.00 31.61
72.00 30.49
73.00 29.26
74.00 28.21
75.00 27.47
76.00 26.98
77.00 26.68
78.00 26.56
79.00 26.64
80.00 26.76
81.00 26.67
82.00 26.34
83.00 26.11
84.00 26.30
85.00 27.24
86.00 29.16
87.00 31.38
88.00 32.00
89.00 32.16
90.00 33.95
91.00 34.14
92.00 30.44
93.00 28.12
94.00 27.82
95.00 29.02
96.00 31.06
97.00 33.18
98.00 34.31
99.00 33.83
100.00 32.95
101.00 32.85
102.00 33.79
103.00 35.71
104.00 38.30
105.00 40.70
106.00 41.93
107.00 41.90
108.00 41.54
109.00 42.18
110.00 44.31
111.00 46.55
112.00 45.57
113.00 41.80
114.00 38.56
115.00 37.10
116.00 37.49
117.00 39.49
118.00 42.07
119.00 42.05
120.00 38.99
121.00 36.35
122.00 34.82
123.00 33.89
124.00 33.28
125.00 33.19
126.00 33.87
127.00 35.13
128.00 36.27
129.00 37.00
130.00 38.12
131.00 40.30
132.00 42.28
133.00 42.59
134.00 43.75
135.00 44.45
136.00 40.31
137.00 37.01
138.00 35.83
139.00 36.35
140.00 37.77
141.00 37.82
142.00 36.54
143.00 36.83
144.00 40.24
145.00 44.36
146.00 40.59
147.00 38.55
148.00 38.86
149.00 39.51
150.00 38.63
151.00 35.97
152.00 33.46
153.00 32.46
154.00 33.32
155.00 36.02
156.00 40.27
157.00 46.46
158.00 63.66
159.00 42.98
160.00 37.01
161.00 34.42
162.00 33.78
163.00 34.42
164.00 35.70
165.00 37.38
166.00 40.40
167.00 47.72
168.00 45.82
169.00 37.49
170.00 33.76
171.00 32.30
172.00 32.46
173.00 33.73
174.00 35.63
175.00 38.04
176.00 40.91
177.00 41.23
178.00 39.52
179.00 40.19
180.00 44.70
181.00 44.12
182.00 38.60
183.00 36.87
184.00 37.14
185.00 36.55
186.00 34.59
187.00 33.42
188.00 33.22
189.00 32.93
190.00 32.07
191.00 31.23
192.00 30.72
193.00 30.63
194.00 31.21
195.00 32.54
196.00 33.84
197.00 34.20
198.00 34.64
199.00 36.60
200.00 39.94
201.00 40.32
202.00 38.17
203.00 37.33
204.00 37.13
205.00 36.69
206.00 36.99
207.00 39.48
208.00 41.93
209.00 37.48
210.00 33.90
211.00 32.49
212.00 32.18
213.00 31.84
214.00 31.06
215.00 30.40
216.00 30.34
217.00 30.91
218.00 31.94
219.00 33.22
220.00 34.76
221.00 36.56
222.00 37.98
223.00 38.01
224.00 37.29
225.00 36.56
226.00 35.57
227.00 34.30
228.00 33.13
229.00 32.34
230.00 32.07
231.00 32.44
232.00 33.54
233.00 35.38
234.00 38.07
235.00 42.23
236.00 45.91
237.00 40.08
238.00 35.18
239.00 32.75
240.00 32.24
241.00 33.43
242.00 36.17
243.00 39.42
244.00 40.04
245.00 37.86
246.00 35.30
247.00 33.08
248.00 31.52
249.00 30.91
250.00 31.43
251.00 33.08
252.00 35.20
253.00 36.11
254.00 35.74
255.00 36.07
256.00 38.50
257.00 43.85
258.00 43.64
259.00 38.53
260.00 36.09
261.00 34.93
262.00 34.12
263.00 33.44
264.00 33.06
265.00 33.10
266.00 33.30
267.00 33.07
268.00 31.93
269.00 30.20
270.00 28.66
271.00 27.92
272.00 28.20
273.00 29.36
274.00 30.68
275.00 30.64
276.00 28.79
277.00 26.66
278.00 25.24
279.00 24.74
280.00 24.98
281.00 25.47
282.00 25.55
283.00 24.87
284.00 23.87
285.00 23.24
286.00 23.33
287.00 24.05
288.00 24.98
289.00 25.58
290.00 25.65
291.00 25.83
292.00 27.13
293.00 30.86
294.00 39.53
295.00 34.63
296.00 28.09
297.00 24.93
298.00 23.11
299.00 21.93
300.00 21.13
301.00 20.72
302.00 20.81
303.00 21.50
304.00 22.84
305.00 24.97
306.00 28.03
307.00 31.14
308.00 30.47
309.00 27.13
310.00 24.18
311.00 21.89
312.00 20.13
313.00 18.91
314.00 18.26
315.00 18.22
316.00 18.84
317.00 20.24
318.00 22.70
319.00 26.76
320.00 31.67
321.00 29.83
322.00 26.17
323.00 24.46
324.00 24.12
325.00 24.61
326.00 25.42
327.00 25.83
328.00 25.28
329.00 24.06
330.00 23.15
331.00 23.47
332.00 26.19
333.00 30.80
334.00 24.36
335.00 18.54
336.00 15.39
337.00 13.87
338.00 13.54
339.00 14.16
340.00 15.58
341.00 17.68
342.00 20.38
343.00 23.23
344.00 24.07
345.00 22.12
346.00 20.45
347.00 20.29
348.00 21.55
349.00 22.65
350.00 21.38
351.00 19.62
352.00 19.20
353.00 20.69
354.00 25.07
355.00 30.76
356.00 24.21
357.00 20.19
358.00 19.05
359.00 19.25
