NAME ATR4518R7_2350_X_CO_P45_01T_yL
FREQUENCY 2350
GAIN 15.42 dBd
TILT	ELECTRICAL
COMMENT DATE 05.08.2013 +45 degrees polarized system Lever position 01T deg
HORIZONTAL 360
0.00 0.03
1.00 0.01
2.00 0.00
3.00 0.01
4.00 0.02
5.00 0.05
6.00 0.09
7.00 0.14
8.00 0.20
9.00 0.26
10.00 0.33
11.00 0.40
12.00 0.48
13.00 0.56
14.00 0.64
15.00 0.72
16.00 0.80
17.00 0.87
18.00 0.95
19.00 1.02
20.00 1.10
21.00 1.18
22.00 1.25
23.00 1.34
24.00 1.43
25.00 1.52
26.00 1.62
27.00 1.74
28.00 1.86
29.00 1.99
30.00 2.14
31.00 2.30
32.00 2.48
33.00 2.66
34.00 2.86
35.00 3.08
36.00 3.31
37.00 3.55
38.00 3.80
39.00 4.06
40.00 4.33
41.00 4.61
42.00 4.90
43.00 5.19
44.00 5.48
45.00 5.77
46.00 6.06
47.00 6.35
48.00 6.63
49.00 6.91
50.00 7.18
51.00 7.44
52.00 7.69
53.00 7.94
54.00 8.17
55.00 8.40
56.00 8.62
57.00 8.84
58.00 9.06
59.00 9.27
60.00 9.48
61.00 9.69
62.00 9.91
63.00 10.13
64.00 10.36
65.00 10.60
66.00 10.85
67.00 11.11
68.00 11.38
69.00 11.66
70.00 11.95
71.00 12.26
72.00 12.58
73.00 12.91
74.00 13.25
75.00 13.60
76.00 13.95
77.00 14.32
78.00 14.68
79.00 15.05
80.00 15.42
81.00 15.78
82.00 16.14
83.00 16.49
84.00 16.84
85.00 17.17
86.00 17.49
87.00 17.80
88.00 18.10
89.00 18.39
90.00 18.67
91.00 18.94
92.00 19.21
93.00 19.47
94.00 19.73
95.00 19.98
96.00 20.24
97.00 20.50
98.00 20.75
99.00 21.01
100.00 21.27
101.00 21.53
102.00 21.78
103.00 22.02
104.00 22.25
105.00 22.46
106.00 22.65
107.00 22.80
108.00 22.93
109.00 23.01
110.00 23.06
111.00 23.06
112.00 23.04
113.00 22.99
114.00 22.92
115.00 22.83
116.00 22.76
117.00 22.69
118.00 22.64
119.00 22.62
120.00 22.63
121.00 22.69
122.00 22.79
123.00 22.95
124.00 23.16
125.00 23.43
126.00 23.76
127.00 24.16
128.00 24.61
129.00 25.11
130.00 25.65
131.00 26.21
132.00 26.77
133.00 27.30
134.00 27.75
135.00 28.10
136.00 28.33
137.00 28.44
138.00 28.44
139.00 28.38
140.00 28.30
141.00 28.22
142.00 28.18
143.00 28.20
144.00 28.29
145.00 28.47
146.00 28.73
147.00 29.09
148.00 29.53
149.00 30.04
150.00 30.62
151.00 31.24
152.00 31.86
153.00 32.45
154.00 32.95
155.00 33.32
156.00 33.56
157.00 33.66
158.00 33.66
159.00 33.59
160.00 33.48
161.00 33.36
162.00 33.23
163.00 33.09
164.00 32.92
165.00 32.69
166.00 32.41
167.00 32.06
168.00 31.66
169.00 31.21
170.00 30.76
171.00 30.31
172.00 29.90
173.00 29.55
174.00 29.26
175.00 29.05
176.00 28.92
177.00 28.88
178.00 28.94
179.00 29.08
180.00 29.31
181.00 29.63
182.00 30.02
183.00 30.46
184.00 30.95
185.00 31.44
186.00 31.92
187.00 32.34
188.00 32.67
189.00 32.91
190.00 33.06
191.00 33.14
192.00 33.18
193.00 33.24
194.00 33.32
195.00 33.46
196.00 33.66
197.00 33.93
198.00 34.26
199.00 34.62
200.00 34.96
201.00 35.23
202.00 35.39
203.00 35.38
204.00 35.22
205.00 34.91
206.00 34.53
207.00 34.14
208.00 33.77
209.00 33.46
210.00 33.23
211.00 33.10
212.00 33.08
213.00 33.15
214.00 33.33
215.00 33.62
216.00 34.00
217.00 34.46
218.00 34.99
219.00 35.58
220.00 36.21
221.00 36.87
222.00 37.53
223.00 38.18
224.00 38.85
225.00 39.54
226.00 40.29
227.00 41.18
228.00 42.22
229.00 43.47
230.00 44.90
231.00 46.32
232.00 47.15
233.00 46.64
234.00 45.04
235.00 43.14
236.00 41.37
237.00 39.85
238.00 38.59
239.00 37.57
240.00 36.76
241.00 36.11
242.00 35.63
243.00 35.29
244.00 35.06
245.00 34.94
246.00 34.89
247.00 34.91
248.00 34.99
249.00 35.09
250.00 35.21
251.00 35.34
252.00 35.49
253.00 35.66
254.00 35.86
255.00 36.09
256.00 36.38
257.00 36.72
258.00 37.05
259.00 37.33
260.00 37.41
261.00 37.16
262.00 36.50
263.00 35.49
264.00 34.27
265.00 32.97
266.00 31.69
267.00 30.49
268.00 29.40
269.00 28.41
270.00 27.53
271.00 26.76
272.00 26.08
273.00 25.50
274.00 25.00
275.00 24.58
276.00 24.23
277.00 23.94
278.00 23.69
279.00 23.47
280.00 23.28
281.00 23.08
282.00 22.87
283.00 22.62
284.00 22.33
285.00 21.98
286.00 21.57
287.00 21.09
288.00 20.55
289.00 19.98
290.00 19.37
291.00 18.74
292.00 18.11
293.00 17.48
294.00 16.86
295.00 16.25
296.00 15.66
297.00 15.08
298.00 14.53
299.00 13.99
300.00 13.47
301.00 12.96
302.00 12.47
303.00 11.99
304.00 11.53
305.00 11.07
306.00 10.61
307.00 10.16
308.00 9.72
309.00 9.29
310.00 8.86
311.00 8.44
312.00 8.02
313.00 7.61
314.00 7.22
315.00 6.83
316.00 6.45
317.00 6.09
318.00 5.74
319.00 5.40
320.00 5.08
321.00 4.77
322.00 4.48
323.00 4.20
324.00 3.95
325.00 3.70
326.00 3.47
327.00 3.26
328.00 3.06
329.00 2.87
330.00 2.70
331.00 2.54
332.00 2.39
333.00 2.26
334.00 2.13
335.00 2.01
336.00 1.90
337.00 1.80
338.00 1.71
339.00 1.62
340.00 1.53
341.00 1.45
342.00 1.37
343.00 1.29
344.00 1.21
345.00 1.13
346.00 1.05
347.00 0.97
348.00 0.88
349.00 0.79
350.00 0.70
351.00 0.62
352.00 0.53
353.00 0.44
354.00 0.36
355.00 0.28
356.00 0.21
357.00 0.15
358.00 0.10
359.00 0.06
VERTICAL 360
0.00 0.81
1.00 0.00
2.00 0.31
3.00 1.81
4.00 4.91
5.00 11.02
6.00 29.33
7.00 14.11
8.00 10.80
9.00 11.37
10.00 15.46
11.00 30.67
12.00 19.88
13.00 14.82
14.00 14.24
15.00 16.57
16.00 21.99
17.00 23.90
18.00 19.24
19.00 17.27
20.00 18.01
21.00 22.77
22.00 35.56
23.00 21.50
24.00 17.88
25.00 17.42
26.00 18.46
27.00 19.71
28.00 20.17
29.00 19.68
30.00 18.73
31.00 17.87
32.00 16.96
33.00 15.78
34.00 14.86
35.00 14.89
36.00 16.22
37.00 18.98
38.00 23.32
39.00 29.97
40.00 33.45
41.00 27.15
42.00 23.74
43.00 22.30
44.00 22.31
45.00 23.89
46.00 28.18
47.00 45.18
48.00 30.85
49.00 25.34
50.00 23.66
51.00 23.70
52.00 24.58
53.00 25.93
54.00 27.99
55.00 31.25
56.00 35.49
57.00 36.46
58.00 34.53
59.00 33.19
60.00 32.24
61.00 31.51
62.00 31.21
63.00 31.56
64.00 32.69
65.00 34.38
66.00 35.86
67.00 36.56
68.00 36.89
69.00 38.15
70.00 41.80
71.00 48.40
72.00 46.02
73.00 41.49
74.00 38.18
75.00 35.76
76.00 34.35
77.00 33.89
78.00 34.01
79.00 33.90
80.00 33.14
81.00 32.37
82.00 32.24
83.00 32.92
84.00 34.41
85.00 36.41
86.00 38.56
87.00 40.74
88.00 41.98
89.00 41.19
90.00 39.47
91.00 37.81
92.00 36.82
93.00 36.81
94.00 37.81
95.00 40.18
96.00 44.98
97.00 53.11
98.00 51.08
99.00 46.73
100.00 43.58
101.00 42.02
102.00 41.80
103.00 41.98
104.00 42.41
105.00 43.29
106.00 44.72
107.00 47.12
108.00 45.71
109.00 42.15
110.00 41.11
111.00 42.20
112.00 44.41
113.00 44.95
114.00 40.32
115.00 36.73
116.00 35.59
117.00 36.55
118.00 39.22
119.00 43.09
120.00 45.58
121.00 43.34
122.00 40.79
123.00 40.40
124.00 43.21
125.00 43.58
126.00 37.95
127.00 35.79
128.00 36.98
129.00 41.20
130.00 43.35
131.00 41.51
132.00 42.03
133.00 42.64
134.00 40.38
135.00 38.45
136.00 37.72
137.00 37.46
138.00 37.06
139.00 36.55
140.00 36.68
141.00 38.24
142.00 41.48
143.00 44.71
144.00 43.90
145.00 40.47
146.00 38.28
147.00 38.08
148.00 39.03
149.00 40.72
150.00 44.85
151.00 45.31
152.00 41.87
153.00 44.41
154.00 41.72
155.00 34.94
156.00 32.70
157.00 33.70
158.00 37.66
159.00 44.88
160.00 58.37
161.00 43.16
162.00 38.34
163.00 38.05
164.00 42.02
165.00 48.69
166.00 44.86
167.00 44.01
168.00 46.01
169.00 49.60
170.00 50.93
171.00 54.53
172.00 48.85
173.00 37.84
174.00 33.52
175.00 32.27
176.00 32.17
177.00 31.16
178.00 29.98
179.00 30.02
180.00 31.17
181.00 32.44
182.00 33.31
183.00 34.71
184.00 36.98
185.00 38.25
186.00 38.62
187.00 40.46
188.00 42.82
189.00 43.06
190.00 40.79
191.00 38.31
192.00 38.43
193.00 40.92
194.00 40.89
195.00 41.87
196.00 50.06
197.00 39.41
198.00 35.56
199.00 36.35
200.00 39.73
201.00 40.04
202.00 39.01
203.00 39.93
204.00 44.18
205.00 57.68
206.00 40.73
207.00 37.52
208.00 39.35
209.00 46.64
210.00 46.87
211.00 44.83
212.00 42.85
213.00 39.36
214.00 38.94
215.00 41.59
216.00 42.86
217.00 41.46
218.00 41.72
219.00 41.78
220.00 40.91
221.00 39.58
222.00 36.06
223.00 32.71
224.00 31.00
225.00 30.81
226.00 31.52
227.00 31.97
228.00 31.59
229.00 31.15
230.00 31.18
231.00 31.62
232.00 32.41
233.00 33.59
234.00 34.24
235.00 32.94
236.00 30.89
237.00 29.50
238.00 29.04
239.00 29.52
240.00 31.08
241.00 34.04
242.00 38.15
243.00 38.40
244.00 35.32
245.00 33.27
246.00 32.16
247.00 31.61
248.00 31.53
249.00 31.91
250.00 32.75
251.00 33.90
252.00 34.65
253.00 34.37
254.00 33.74
255.00 33.65
256.00 34.31
257.00 35.40
258.00 36.57
259.00 37.65
260.00 37.68
261.00 35.47
262.00 32.29
263.00 29.59
264.00 27.73
265.00 26.58
266.00 25.80
267.00 25.23
268.00 24.88
269.00 24.85
270.00 25.05
271.00 25.09
272.00 24.44
273.00 23.02
274.00 21.42
275.00 20.19
276.00 19.55
277.00 19.47
278.00 19.74
279.00 20.04
280.00 20.10
281.00 19.84
282.00 19.44
283.00 19.09
284.00 18.89
285.00 18.90
286.00 19.14
287.00 19.59
288.00 20.24
289.00 21.14
290.00 22.43
291.00 24.36
292.00 27.40
293.00 32.63
294.00 38.36
295.00 30.78
296.00 26.03
297.00 23.59
298.00 22.64
299.00 22.82
300.00 23.79
301.00 25.09
302.00 26.40
303.00 28.30
304.00 33.09
305.00 50.15
306.00 29.88
307.00 24.63
308.00 22.45
309.00 22.11
310.00 23.34
311.00 26.37
312.00 31.51
313.00 30.77
314.00 25.76
315.00 23.07
316.00 22.23
317.00 22.92
318.00 25.00
319.00 27.35
320.00 25.55
321.00 21.38
322.00 18.24
323.00 16.39
324.00 15.59
325.00 15.48
326.00 15.63
327.00 15.82
328.00 16.04
329.00 16.13
330.00 15.64
331.00 14.44
332.00 13.03
333.00 12.14
334.00 12.38
335.00 14.34
336.00 19.33
337.00 39.73
338.00 22.02
339.00 17.23
340.00 16.31
341.00 18.15
342.00 24.11
343.00 30.80
344.00 21.45
345.00 18.60
346.00 18.84
347.00 21.80
348.00 25.58
349.00 21.61
350.00 18.40
351.00 18.02
352.00 20.53
353.00 26.55
354.00 27.14
355.00 24.53
356.00 19.58
357.00 11.81
358.00 6.34
359.00 2.83
