NAME ATR4518R7_2655_X_CO_P45_04T_yL
FREQUENCY 2655
GAIN 15.99 dBd
TILT	ELECTRICAL
COMMENT DATE 05.08.2013 +45 degrees polarized system Lever position 04T deg
HORIZONTAL 360
0.00 0.01
1.00 0.03
2.00 0.06
3.00 0.10
4.00 0.13
5.00 0.18
6.00 0.24
7.00 0.30
8.00 0.36
9.00 0.43
10.00 0.50
11.00 0.57
12.00 0.65
13.00 0.74
14.00 0.83
15.00 0.93
16.00 1.03
17.00 1.14
18.00 1.26
19.00 1.39
20.00 1.52
21.00 1.67
22.00 1.82
23.00 1.98
24.00 2.15
25.00 2.32
26.00 2.50
27.00 2.68
28.00 2.87
29.00 3.07
30.00 3.27
31.00 3.47
32.00 3.67
33.00 3.88
34.00 4.08
35.00 4.29
36.00 4.50
37.00 4.72
38.00 4.93
39.00 5.14
40.00 5.36
41.00 5.58
42.00 5.80
43.00 6.01
44.00 6.24
45.00 6.46
46.00 6.69
47.00 6.91
48.00 7.13
49.00 7.36
50.00 7.57
51.00 7.79
52.00 8.01
53.00 8.22
54.00 8.42
55.00 8.62
56.00 8.81
57.00 9.01
58.00 9.21
59.00 9.39
60.00 9.57
61.00 9.74
62.00 9.92
63.00 10.08
64.00 10.25
65.00 10.43
66.00 10.61
67.00 10.79
68.00 10.98
69.00 11.20
70.00 11.41
71.00 11.64
72.00 11.90
73.00 12.16
74.00 12.45
75.00 12.75
76.00 13.07
77.00 13.42
78.00 13.80
79.00 14.20
80.00 14.63
81.00 15.09
82.00 15.59
83.00 16.11
84.00 16.67
85.00 17.27
86.00 17.91
87.00 18.58
88.00 19.30
89.00 20.05
90.00 20.84
91.00 21.66
92.00 22.51
93.00 23.37
94.00 24.25
95.00 25.11
96.00 25.96
97.00 26.79
98.00 27.57
99.00 28.32
100.00 29.03
101.00 29.75
102.00 30.47
103.00 31.25
104.00 32.10
105.00 33.08
106.00 34.22
107.00 35.60
108.00 37.28
109.00 39.40
110.00 42.18
111.00 46.09
112.00 51.91
113.00 54.22
114.00 48.75
115.00 45.06
116.00 42.75
117.00 41.24
118.00 40.29
119.00 39.74
120.00 39.53
121.00 39.61
122.00 39.95
123.00 40.53
124.00 41.33
125.00 42.32
126.00 43.40
127.00 44.42
128.00 45.16
129.00 45.43
130.00 45.19
131.00 44.61
132.00 43.87
133.00 43.05
134.00 42.18
135.00 41.26
136.00 40.25
137.00 39.17
138.00 38.06
139.00 36.95
140.00 35.89
141.00 34.91
142.00 34.01
143.00 33.23
144.00 32.55
145.00 31.98
146.00 31.52
147.00 31.16
148.00 30.88
149.00 30.67
150.00 30.53
151.00 30.42
152.00 30.34
153.00 30.26
154.00 30.16
155.00 30.03
156.00 29.88
157.00 29.71
158.00 29.52
159.00 29.35
160.00 29.20
161.00 29.10
162.00 29.05
163.00 29.09
164.00 29.21
165.00 29.43
166.00 29.75
167.00 30.16
168.00 30.68
169.00 31.29
170.00 31.95
171.00 32.62
172.00 33.22
173.00 33.65
174.00 33.82
175.00 33.70
176.00 33.36
177.00 32.89
178.00 32.39
179.00 31.92
180.00 31.55
181.00 31.29
182.00 31.18
183.00 31.21
184.00 31.42
185.00 31.80
186.00 32.38
187.00 33.17
188.00 34.20
189.00 35.46
190.00 36.88
191.00 38.17
192.00 38.72
193.00 38.08
194.00 36.62
195.00 34.98
196.00 33.47
197.00 32.20
198.00 31.16
199.00 30.35
200.00 29.74
201.00 29.32
202.00 29.09
203.00 29.04
204.00 29.16
205.00 29.47
206.00 29.96
207.00 30.66
208.00 31.56
209.00 32.67
210.00 33.96
211.00 35.27
212.00 36.26
213.00 36.44
214.00 35.70
215.00 34.44
216.00 33.11
217.00 31.90
218.00 30.89
219.00 30.10
220.00 29.49
221.00 29.08
222.00 28.84
223.00 28.76
224.00 28.85
225.00 29.09
226.00 29.50
227.00 30.08
228.00 30.84
229.00 31.78
230.00 32.95
231.00 34.37
232.00 36.06
233.00 38.06
234.00 40.31
235.00 42.43
236.00 43.49
237.00 42.88
238.00 41.42
239.00 39.90
240.00 38.61
241.00 37.53
242.00 36.62
243.00 35.80
244.00 35.02
245.00 34.24
246.00 33.43
247.00 32.60
248.00 31.74
249.00 30.90
250.00 30.07
251.00 29.29
252.00 28.56
253.00 27.89
254.00 27.30
255.00 26.77
256.00 26.33
257.00 25.96
258.00 25.66
259.00 25.44
260.00 25.29
261.00 25.22
262.00 25.21
263.00 25.26
264.00 25.37
265.00 25.51
266.00 25.68
267.00 25.85
268.00 25.98
269.00 26.05
270.00 26.02
271.00 25.87
272.00 25.59
273.00 25.21
274.00 24.74
275.00 24.22
276.00 23.67
277.00 23.13
278.00 22.60
279.00 22.12
280.00 21.68
281.00 21.27
282.00 20.90
283.00 20.57
284.00 20.26
285.00 19.97
286.00 19.69
287.00 19.41
288.00 19.12
289.00 18.83
290.00 18.51
291.00 18.18
292.00 17.84
293.00 17.49
294.00 17.12
295.00 16.76
296.00 16.40
297.00 16.05
298.00 15.71
299.00 15.39
300.00 15.07
301.00 14.77
302.00 14.48
303.00 14.19
304.00 13.89
305.00 13.59
306.00 13.26
307.00 12.91
308.00 12.53
309.00 12.11
310.00 11.66
311.00 11.19
312.00 10.69
313.00 10.18
314.00 9.67
315.00 9.17
316.00 8.71
317.00 8.25
318.00 7.82
319.00 7.40
320.00 7.00
321.00 6.62
322.00 6.27
323.00 5.94
324.00 5.62
325.00 5.33
326.00 5.05
327.00 4.78
328.00 4.52
329.00 4.29
330.00 4.05
331.00 3.82
332.00 3.59
333.00 3.38
334.00 3.16
335.00 2.96
336.00 2.76
337.00 2.56
338.00 2.37
339.00 2.18
340.00 1.99
341.00 1.81
342.00 1.63
343.00 1.46
344.00 1.30
345.00 1.15
346.00 0.99
347.00 0.85
348.00 0.72
349.00 0.59
350.00 0.48
351.00 0.37
352.00 0.28
353.00 0.20
354.00 0.13
355.00 0.09
356.00 0.04
357.00 0.02
358.00 0.00
359.00 0.00
VERTICAL 360
0.00 10.32
1.00 5.84
2.00 2.63
3.00 0.70
4.00 0.00
5.00 0.62
6.00 2.87
7.00 7.74
8.00 21.02
9.00 14.97
10.00 10.15
11.00 10.23
12.00 13.78
13.00 22.95
14.00 20.59
15.00 16.14
16.00 16.80
17.00 23.28
18.00 24.86
19.00 16.97
20.00 15.28
21.00 17.43
22.00 25.96
23.00 25.11
24.00 17.74
25.00 15.73
26.00 16.34
27.00 19.44
28.00 26.56
29.00 31.58
30.00 25.47
31.00 25.50
32.00 31.16
33.00 31.49
34.00 24.75
35.00 22.53
36.00 22.43
37.00 23.56
38.00 26.17
39.00 31.16
40.00 29.88
41.00 26.05
42.00 26.03
43.00 30.37
44.00 41.39
45.00 31.46
46.00 27.57
47.00 25.91
48.00 24.89
49.00 24.56
50.00 25.49
51.00 27.89
52.00 30.57
53.00 30.93
54.00 30.39
55.00 30.80
56.00 32.63
57.00 35.11
58.00 35.10
59.00 33.46
60.00 32.00
61.00 30.84
62.00 30.01
63.00 29.16
64.00 27.99
65.00 26.72
66.00 25.78
67.00 25.33
68.00 25.19
69.00 25.09
70.00 24.83
71.00 24.49
72.00 24.40
73.00 24.73
74.00 25.32
75.00 25.81
76.00 26.14
77.00 26.78
78.00 28.20
79.00 30.24
80.00 32.00
81.00 32.88
82.00 33.53
83.00 34.38
84.00 32.93
85.00 30.07
86.00 28.54
87.00 28.15
88.00 28.16
89.00 29.06
90.00 32.28
91.00 35.93
92.00 31.91
93.00 29.90
94.00 30.97
95.00 33.96
96.00 37.07
97.00 41.62
98.00 48.51
99.00 44.92
100.00 46.91
101.00 44.51
102.00 39.85
103.00 39.23
104.00 40.84
105.00 41.73
106.00 39.24
107.00 36.42
108.00 35.17
109.00 35.39
110.00 36.29
111.00 36.32
112.00 34.99
113.00 33.92
114.00 34.13
115.00 35.63
116.00 37.41
117.00 37.80
118.00 38.03
119.00 39.95
120.00 43.07
121.00 43.49
122.00 41.53
123.00 38.93
124.00 36.70
125.00 34.78
126.00 32.96
127.00 32.34
128.00 34.02
129.00 39.16
130.00 52.66
131.00 51.07
132.00 45.00
133.00 42.78
134.00 44.00
135.00 44.98
136.00 41.43
137.00 39.14
138.00 37.70
139.00 36.64
140.00 36.39
141.00 36.90
142.00 37.58
143.00 37.71
144.00 37.86
145.00 39.25
146.00 39.96
147.00 36.65
148.00 33.45
149.00 31.87
150.00 31.83
151.00 32.87
152.00 34.34
153.00 36.39
154.00 38.91
155.00 39.75
156.00 39.26
157.00 37.15
158.00 35.68
159.00 37.49
160.00 40.07
161.00 36.05
162.00 34.66
163.00 36.51
164.00 39.23
165.00 41.91
166.00 46.99
167.00 43.25
168.00 42.47
169.00 47.23
170.00 45.73
171.00 45.30
172.00 54.64
173.00 43.77
174.00 36.98
175.00 33.36
176.00 31.92
177.00 32.44
178.00 34.41
179.00 36.13
180.00 35.25
181.00 33.82
182.00 34.18
183.00 36.04
184.00 36.29
185.00 35.42
186.00 35.98
187.00 37.56
188.00 38.89
189.00 40.41
190.00 44.49
191.00 45.63
192.00 38.46
193.00 35.45
194.00 35.06
195.00 35.95
196.00 37.19
197.00 39.08
198.00 43.27
199.00 63.02
200.00 40.41
201.00 34.12
202.00 31.31
203.00 30.56
204.00 31.49
205.00 34.26
206.00 39.50
207.00 43.69
208.00 39.74
209.00 37.49
210.00 36.87
211.00 37.25
212.00 38.75
213.00 41.86
214.00 48.48
215.00 49.93
216.00 42.02
217.00 38.15
218.00 35.52
219.00 33.70
220.00 33.16
221.00 33.98
222.00 35.20
223.00 35.34
224.00 35.29
225.00 35.92
226.00 36.35
227.00 36.24
228.00 36.70
229.00 38.19
230.00 40.70
231.00 43.54
232.00 43.47
233.00 43.07
234.00 46.92
235.00 50.71
236.00 41.89
237.00 38.23
238.00 36.64
239.00 35.70
240.00 35.12
241.00 35.31
242.00 36.40
243.00 37.88
244.00 38.57
245.00 37.64
246.00 35.98
247.00 35.12
248.00 35.76
249.00 37.78
250.00 40.79
251.00 45.72
252.00 54.19
253.00 52.10
254.00 55.69
255.00 53.47
256.00 48.85
257.00 50.42
258.00 50.56
259.00 50.52
260.00 49.36
261.00 45.52
262.00 49.04
263.00 46.43
264.00 38.22
265.00 35.83
266.00 35.28
267.00 33.78
268.00 32.43
269.00 32.31
270.00 32.63
271.00 32.79
272.00 33.17
273.00 33.90
274.00 35.22
275.00 38.28
276.00 46.45
277.00 48.11
278.00 38.62
279.00 34.81
280.00 33.02
281.00 32.68
282.00 33.63
283.00 35.17
284.00 35.48
285.00 34.63
286.00 34.50
287.00 35.94
288.00 39.24
289.00 44.73
290.00 52.10
291.00 45.15
292.00 38.95
293.00 34.26
294.00 29.89
295.00 26.11
296.00 23.07
297.00 20.61
298.00 18.59
299.00 16.88
300.00 15.37
301.00 14.01
302.00 12.84
303.00 11.95
304.00 11.41
305.00 11.33
306.00 11.85
307.00 13.22
308.00 15.95
309.00 21.39
310.00 41.40
311.00 23.55
312.00 18.18
313.00 16.01
314.00 15.61
315.00 16.97
316.00 21.03
317.00 34.30
318.00 26.38
319.00 20.60
320.00 19.58
321.00 21.81
322.00 30.56
323.00 27.50
324.00 19.44
325.00 16.53
326.00 16.27
327.00 18.68
328.00 26.24
329.00 25.85
330.00 17.96
331.00 14.94
332.00 14.24
333.00 15.44
334.00 18.70
335.00 23.88
336.00 25.73
337.00 22.54
338.00 18.76
339.00 15.85
340.00 14.61
341.00 15.30
342.00 18.54
343.00 26.49
344.00 25.09
345.00 19.86
346.00 19.36
347.00 22.66
348.00 26.36
349.00 20.58
350.00 17.53
351.00 17.41
352.00 20.03
353.00 25.80
354.00 25.33
355.00 21.51
356.00 20.81
357.00 21.78
358.00 20.79
359.00 15.83
