NAME ATR4518R7_0847_X_CO_P45_07T
FREQUENCY 0847
GAIN 14.52 dBd
TILT	ELECTRICAL
COMMENT DATE 05.08.2013 +45 degrees polarized system Lever position 07T deg
HORIZONTAL 360
0.00 0.00
1.00 0.00
2.00 0.00
3.00 0.02
4.00 0.03
5.00 0.06
6.00 0.09
7.00 0.12
8.00 0.16
9.00 0.21
10.00 0.26
11.00 0.31
12.00 0.38
13.00 0.45
14.00 0.52
15.00 0.60
16.00 0.68
17.00 0.77
18.00 0.87
19.00 0.97
20.00 1.08
21.00 1.19
22.00 1.31
23.00 1.43
24.00 1.56
25.00 1.70
26.00 1.83
27.00 1.98
28.00 2.13
29.00 2.29
30.00 2.45
31.00 2.61
32.00 2.79
33.00 2.96
34.00 3.15
35.00 3.33
36.00 3.53
37.00 3.72
38.00 3.93
39.00 4.13
40.00 4.35
41.00 4.57
42.00 4.79
43.00 5.02
44.00 5.25
45.00 5.49
46.00 5.73
47.00 5.98
48.00 6.24
49.00 6.49
50.00 6.76
51.00 7.02
52.00 7.29
53.00 7.57
54.00 7.85
55.00 8.13
56.00 8.42
57.00 8.72
58.00 9.02
59.00 9.32
60.00 9.62
61.00 9.93
62.00 10.24
63.00 10.55
64.00 10.88
65.00 11.20
66.00 11.52
67.00 11.86
68.00 12.19
69.00 12.52
70.00 12.86
71.00 13.20
72.00 13.54
73.00 13.88
74.00 14.23
75.00 14.58
76.00 14.93
77.00 15.28
78.00 15.63
79.00 15.98
80.00 16.34
81.00 16.70
82.00 17.05
83.00 17.41
84.00 17.77
85.00 18.12
86.00 18.48
87.00 18.84
88.00 19.20
89.00 19.56
90.00 19.91
91.00 20.27
92.00 20.63
93.00 20.98
94.00 21.34
95.00 21.69
96.00 22.04
97.00 22.39
98.00 22.73
99.00 23.07
100.00 23.41
101.00 23.75
102.00 24.08
103.00 24.40
104.00 24.72
105.00 25.04
106.00 25.34
107.00 25.64
108.00 25.92
109.00 26.20
110.00 26.46
111.00 26.72
112.00 26.96
113.00 27.19
114.00 27.40
115.00 27.60
116.00 27.79
117.00 27.97
118.00 28.13
119.00 28.28
120.00 28.42
121.00 28.55
122.00 28.66
123.00 28.78
124.00 28.88
125.00 28.98
126.00 29.07
127.00 29.16
128.00 29.25
129.00 29.33
130.00 29.42
131.00 29.50
132.00 29.59
133.00 29.67
134.00 29.76
135.00 29.85
136.00 29.95
137.00 30.05
138.00 30.14
139.00 30.24
140.00 30.35
141.00 30.45
142.00 30.55
143.00 30.65
144.00 30.76
145.00 30.86
146.00 30.96
147.00 31.05
148.00 31.15
149.00 31.23
150.00 31.32
151.00 31.39
152.00 31.46
153.00 31.52
154.00 31.57
155.00 31.62
156.00 31.66
157.00 31.69
158.00 31.71
159.00 31.73
160.00 31.75
161.00 31.76
162.00 31.77
163.00 31.77
164.00 31.78
165.00 31.79
166.00 31.80
167.00 31.81
168.00 31.83
169.00 31.86
170.00 31.89
171.00 31.93
172.00 31.98
173.00 32.04
174.00 32.11
175.00 32.20
176.00 32.29
177.00 32.41
178.00 32.53
179.00 32.67
180.00 32.83
181.00 33.00
182.00 33.20
183.00 33.41
184.00 33.64
185.00 33.89
186.00 34.16
187.00 34.46
188.00 34.78
189.00 35.12
190.00 35.49
191.00 35.89
192.00 36.31
193.00 36.76
194.00 37.25
195.00 37.77
196.00 38.33
197.00 38.91
198.00 39.54
199.00 40.21
200.00 40.92
201.00 41.67
202.00 42.44
203.00 43.24
204.00 44.03
205.00 44.80
206.00 45.50
207.00 46.06
208.00 46.44
209.00 46.57
210.00 46.46
211.00 46.12
212.00 45.64
213.00 45.04
214.00 44.40
215.00 43.74
216.00 43.08
217.00 42.45
218.00 41.84
219.00 41.26
220.00 40.70
221.00 40.18
222.00 39.66
223.00 39.17
224.00 38.69
225.00 38.23
226.00 37.79
227.00 37.34
228.00 36.91
229.00 36.48
230.00 36.04
231.00 35.62
232.00 35.19
233.00 34.76
234.00 34.33
235.00 33.90
236.00 33.46
237.00 33.02
238.00 32.58
239.00 32.13
240.00 31.69
241.00 31.25
242.00 30.80
243.00 30.35
244.00 29.90
245.00 29.45
246.00 29.00
247.00 28.56
248.00 28.11
249.00 27.67
250.00 27.23
251.00 26.79
252.00 26.36
253.00 25.93
254.00 25.51
255.00 25.09
256.00 24.67
257.00 24.26
258.00 23.86
259.00 23.46
260.00 23.06
261.00 22.67
262.00 22.29
263.00 21.91
264.00 21.53
265.00 21.16
266.00 20.80
267.00 20.44
268.00 20.08
269.00 19.73
270.00 19.38
271.00 19.04
272.00 18.70
273.00 18.37
274.00 18.04
275.00 17.71
276.00 17.39
277.00 17.06
278.00 16.74
279.00 16.43
280.00 16.11
281.00 15.80
282.00 15.48
283.00 15.17
284.00 14.86
285.00 14.56
286.00 14.25
287.00 13.94
288.00 13.64
289.00 13.33
290.00 13.03
291.00 12.72
292.00 12.42
293.00 12.12
294.00 11.82
295.00 11.51
296.00 11.21
297.00 10.91
298.00 10.61
299.00 10.32
300.00 10.02
301.00 9.73
302.00 9.43
303.00 9.14
304.00 8.85
305.00 8.57
306.00 8.28
307.00 8.00
308.00 7.72
309.00 7.45
310.00 7.18
311.00 6.91
312.00 6.64
313.00 6.38
314.00 6.13
315.00 5.87
316.00 5.62
317.00 5.38
318.00 5.14
319.00 4.91
320.00 4.68
321.00 4.45
322.00 4.23
323.00 4.02
324.00 3.81
325.00 3.60
326.00 3.40
327.00 3.21
328.00 3.02
329.00 2.84
330.00 2.66
331.00 2.49
332.00 2.32
333.00 2.16
334.00 2.01
335.00 1.86
336.00 1.71
337.00 1.57
338.00 1.44
339.00 1.32
340.00 1.20
341.00 1.08
342.00 0.97
343.00 0.87
344.00 0.77
345.00 0.68
346.00 0.59
347.00 0.51
348.00 0.44
349.00 0.37
350.00 0.31
351.00 0.25
352.00 0.20
353.00 0.15
354.00 0.12
355.00 0.08
356.00 0.05
357.00 0.03
358.00 0.01
359.00 0.00
VERTICAL 360
0.00 9.74
1.00 6.82
2.00 4.59
3.00 2.87
4.00 1.60
5.00 0.71
6.00 0.18
7.00 0.00
8.00 0.15
9.00 0.62
10.00 1.43
11.00 2.61
12.00 4.18
13.00 6.25
14.00 8.95
15.00 12.53
16.00 17.51
17.00 25.25
18.00 33.09
19.00 27.39
20.00 25.78
21.00 26.88
22.00 30.07
23.00 31.14
24.00 26.44
25.00 22.63
26.00 20.26
27.00 18.96
28.00 18.51
29.00 18.77
30.00 19.68
31.00 21.20
32.00 23.37
33.00 26.28
34.00 29.73
35.00 31.73
36.00 30.74
37.00 29.62
38.00 29.83
39.00 31.70
40.00 34.74
41.00 33.73
42.00 29.65
43.00 26.64
44.00 24.60
45.00 23.07
46.00 21.84
47.00 20.91
48.00 20.39
49.00 20.39
50.00 20.97
51.00 22.17
52.00 23.98
53.00 26.28
54.00 28.81
55.00 31.36
56.00 34.37
57.00 39.58
58.00 62.58
59.00 40.58
60.00 34.77
61.00 31.94
62.00 30.30
63.00 29.25
64.00 28.50
65.00 28.04
66.00 27.99
67.00 28.52
68.00 29.71
69.00 31.37
70.00 32.65
71.00 32.51
72.00 31.37
73.00 30.35
74.00 30.12
75.00 31.03
76.00 33.40
77.00 36.98
78.00 37.38
79.00 34.21
80.00 32.09
81.00 31.50
82.00 32.47
83.00 35.27
84.00 38.29
85.00 35.50
86.00 32.14
87.00 30.49
88.00 30.13
89.00 30.57
90.00 31.33
91.00 31.92
92.00 31.87
93.00 31.11
94.00 30.15
95.00 29.59
96.00 29.73
97.00 30.59
98.00 32.03
99.00 33.69
100.00 35.00
101.00 35.67
102.00 36.00
103.00 36.66
104.00 38.28
105.00 41.33
106.00 45.69
107.00 48.74
108.00 49.55
109.00 51.16
110.00 50.10
111.00 46.02
112.00 42.73
113.00 40.46
114.00 39.08
115.00 38.55
116.00 38.75
117.00 39.41
118.00 40.10
119.00 40.48
120.00 40.61
121.00 40.83
122.00 41.42
123.00 42.43
124.00 43.59
125.00 44.53
126.00 44.92
127.00 44.32
128.00 42.61
129.00 40.33
130.00 38.27
131.00 36.93
132.00 36.52
133.00 37.04
134.00 38.27
135.00 39.78
136.00 41.07
137.00 41.99
138.00 43.05
139.00 45.15
140.00 47.84
141.00 45.12
142.00 40.78
143.00 38.14
144.00 36.74
145.00 35.97
146.00 35.26
147.00 34.37
148.00 33.41
149.00 32.66
150.00 32.25
151.00 32.18
152.00 32.36
153.00 32.80
154.00 33.59
155.00 34.70
156.00 35.92
157.00 37.08
158.00 38.39
159.00 40.21
160.00 42.88
161.00 47.67
162.00 59.49
163.00 46.52
164.00 41.05
165.00 38.98
166.00 39.17
167.00 41.81
168.00 49.22
169.00 50.40
170.00 41.26
171.00 37.06
172.00 34.54
173.00 32.91
174.00 32.11
175.00 32.01
176.00 32.67
177.00 34.07
178.00 35.94
179.00 37.67
180.00 38.44
181.00 38.02
182.00 37.21
183.00 36.66
184.00 36.58
185.00 36.77
186.00 36.83
187.00 36.47
188.00 35.87
189.00 35.41
190.00 35.47
191.00 36.20
192.00 37.48
193.00 38.84
194.00 39.52
195.00 39.33
196.00 38.83
197.00 38.59
198.00 38.82
199.00 39.33
200.00 39.71
201.00 39.45
202.00 38.43
203.00 37.16
204.00 36.33
205.00 36.35
206.00 37.44
207.00 39.81
208.00 43.68
209.00 47.19
210.00 44.65
211.00 41.20
212.00 38.84
213.00 37.15
214.00 35.78
215.00 34.65
216.00 33.78
217.00 33.25
218.00 33.17
219.00 33.66
220.00 34.84
221.00 36.81
222.00 39.53
223.00 42.69
224.00 44.92
225.00 43.95
226.00 41.26
227.00 39.00
228.00 37.54
229.00 36.53
230.00 35.52
231.00 34.20
232.00 32.60
233.00 30.99
234.00 29.71
235.00 29.02
236.00 29.02
237.00 29.65
238.00 30.71
239.00 31.83
240.00 32.60
241.00 32.64
242.00 31.93
243.00 31.04
244.00 30.54
245.00 30.67
246.00 31.27
247.00 31.84
248.00 31.88
249.00 31.48
250.00 31.00
251.00 30.63
252.00 30.52
253.00 30.88
254.00 31.79
255.00 32.75
256.00 32.55
257.00 31.00
258.00 29.29
259.00 28.19
260.00 28.02
261.00 28.94
262.00 30.98
263.00 33.20
264.00 33.30
265.00 31.80
266.00 30.51
267.00 29.74
268.00 29.59
269.00 30.28
270.00 31.75
271.00 32.92
272.00 32.50
273.00 31.61
274.00 31.48
275.00 32.35
276.00 34.05
277.00 35.73
278.00 35.42
279.00 33.56
280.00 32.02
281.00 31.31
282.00 31.23
283.00 31.31
284.00 30.97
285.00 30.08
286.00 29.09
287.00 28.51
288.00 28.51
289.00 29.03
290.00 29.85
291.00 30.67
292.00 31.30
293.00 31.87
294.00 32.73
295.00 34.21
296.00 36.43
297.00 39.13
298.00 41.67
299.00 43.39
300.00 43.83
301.00 42.57
302.00 40.20
303.00 37.96
304.00 36.70
305.00 36.87
306.00 38.81
307.00 41.66
308.00 39.67
309.00 35.42
310.00 32.28
311.00 29.91
312.00 27.80
313.00 25.73
314.00 23.77
315.00 22.11
316.00 20.87
317.00 20.12
318.00 19.85
319.00 20.04
320.00 20.66
321.00 21.70
322.00 23.14
323.00 25.05
324.00 27.69
325.00 31.61
326.00 36.84
327.00 35.17
328.00 30.60
329.00 27.90
330.00 26.57
331.00 26.28
332.00 26.88
333.00 28.29
334.00 30.56
335.00 33.97
336.00 39.41
337.00 47.82
338.00 42.30
339.00 37.17
340.00 33.52
341.00 30.05
342.00 26.80
343.00 24.13
344.00 22.19
345.00 21.01
346.00 20.58
347.00 20.89
348.00 22.01
349.00 24.13
350.00 27.81
351.00 33.57
352.00 32.29
353.00 27.56
354.00 25.62
355.00 26.49
356.00 33.58
357.00 30.32
358.00 19.38
359.00 13.66
