NAME ATR4518R7_0847_X_CO_P45_10T
FREQUENCY 0847
GAIN 14.47 dBd
TILT	ELECTRICAL
COMMENT DATE 05.08.2013 +45 degrees polarized system Lever position 10T deg
HORIZONTAL 360
0.00 0.00
1.00 0.01
2.00 0.02
3.00 0.05
4.00 0.07
5.00 0.10
6.00 0.14
7.00 0.18
8.00 0.23
9.00 0.29
10.00 0.35
11.00 0.42
12.00 0.49
13.00 0.57
14.00 0.65
15.00 0.74
16.00 0.83
17.00 0.94
18.00 1.04
19.00 1.15
20.00 1.27
21.00 1.40
22.00 1.52
23.00 1.66
24.00 1.80
25.00 1.94
26.00 2.09
27.00 2.25
28.00 2.41
29.00 2.58
30.00 2.75
31.00 2.92
32.00 3.10
33.00 3.29
34.00 3.48
35.00 3.68
36.00 3.88
37.00 4.08
38.00 4.29
39.00 4.51
40.00 4.73
41.00 4.95
42.00 5.18
43.00 5.41
44.00 5.65
45.00 5.89
46.00 6.13
47.00 6.38
48.00 6.64
49.00 6.89
50.00 7.16
51.00 7.42
52.00 7.69
53.00 7.96
54.00 8.24
55.00 8.52
56.00 8.80
57.00 9.09
58.00 9.38
59.00 9.68
60.00 9.98
61.00 10.28
62.00 10.59
63.00 10.90
64.00 11.21
65.00 11.52
66.00 11.85
67.00 12.17
68.00 12.49
69.00 12.83
70.00 13.16
71.00 13.50
72.00 13.83
73.00 14.18
74.00 14.53
75.00 14.88
76.00 15.23
77.00 15.58
78.00 15.94
79.00 16.30
80.00 16.67
81.00 17.03
82.00 17.40
83.00 17.77
84.00 18.15
85.00 18.52
86.00 18.90
87.00 19.28
88.00 19.66
89.00 20.04
90.00 20.42
91.00 20.80
92.00 21.18
93.00 21.57
94.00 21.95
95.00 22.33
96.00 22.71
97.00 23.09
98.00 23.47
99.00 23.84
100.00 24.22
101.00 24.58
102.00 24.95
103.00 25.30
104.00 25.65
105.00 26.00
106.00 26.33
107.00 26.65
108.00 26.96
109.00 27.26
110.00 27.55
111.00 27.81
112.00 28.06
113.00 28.29
114.00 28.49
115.00 28.68
116.00 28.84
117.00 28.97
118.00 29.09
119.00 29.18
120.00 29.25
121.00 29.30
122.00 29.33
123.00 29.34
124.00 29.34
125.00 29.33
126.00 29.31
127.00 29.29
128.00 29.26
129.00 29.23
130.00 29.20
131.00 29.17
132.00 29.15
133.00 29.13
134.00 29.13
135.00 29.13
136.00 29.14
137.00 29.17
138.00 29.21
139.00 29.27
140.00 29.34
141.00 29.44
142.00 29.54
143.00 29.67
144.00 29.82
145.00 29.99
146.00 30.19
147.00 30.41
148.00 30.65
149.00 30.93
150.00 31.23
151.00 31.56
152.00 31.92
153.00 32.32
154.00 32.75
155.00 33.22
156.00 33.72
157.00 34.26
158.00 34.84
159.00 35.45
160.00 36.08
161.00 36.72
162.00 37.36
163.00 37.95
164.00 38.47
165.00 38.87
166.00 39.10
167.00 39.14
168.00 38.98
169.00 38.66
170.00 38.21
171.00 37.68
172.00 37.12
173.00 36.56
174.00 36.00
175.00 35.47
176.00 34.98
177.00 34.52
178.00 34.11
179.00 33.73
180.00 33.40
181.00 33.10
182.00 32.85
183.00 32.63
184.00 32.45
185.00 32.30
186.00 32.19
187.00 32.12
188.00 32.08
189.00 32.08
190.00 32.11
191.00 32.18
192.00 32.28
193.00 32.42
194.00 32.59
195.00 32.81
196.00 33.06
197.00 33.36
198.00 33.70
199.00 34.09
200.00 34.52
201.00 35.01
202.00 35.56
203.00 36.17
204.00 36.85
205.00 37.61
206.00 38.44
207.00 39.35
208.00 40.33
209.00 41.35
210.00 42.36
211.00 43.23
212.00 43.80
213.00 43.90
214.00 43.49
215.00 42.68
216.00 41.69
217.00 40.61
218.00 39.57
219.00 38.58
220.00 37.66
221.00 36.82
222.00 36.04
223.00 35.32
224.00 34.66
225.00 34.06
226.00 33.50
227.00 32.97
228.00 32.49
229.00 32.03
230.00 31.61
231.00 31.21
232.00 30.83
233.00 30.47
234.00 30.12
235.00 29.79
236.00 29.47
237.00 29.17
238.00 28.87
239.00 28.58
240.00 28.29
241.00 28.01
242.00 27.74
243.00 27.47
244.00 27.19
245.00 26.92
246.00 26.65
247.00 26.38
248.00 26.10
249.00 25.82
250.00 25.54
251.00 25.26
252.00 24.97
253.00 24.67
254.00 24.38
255.00 24.07
256.00 23.76
257.00 23.45
258.00 23.13
259.00 22.81
260.00 22.48
261.00 22.15
262.00 21.82
263.00 21.48
264.00 21.13
265.00 20.79
266.00 20.44
267.00 20.08
268.00 19.73
269.00 19.38
270.00 19.02
271.00 18.66
272.00 18.31
273.00 17.95
274.00 17.59
275.00 17.24
276.00 16.89
277.00 16.53
278.00 16.18
279.00 15.84
280.00 15.49
281.00 15.15
282.00 14.81
283.00 14.47
284.00 14.13
285.00 13.80
286.00 13.47
287.00 13.14
288.00 12.82
289.00 12.50
290.00 12.18
291.00 11.87
292.00 11.57
293.00 11.26
294.00 10.95
295.00 10.65
296.00 10.36
297.00 10.06
298.00 9.77
299.00 9.49
300.00 9.20
301.00 8.92
302.00 8.65
303.00 8.37
304.00 8.10
305.00 7.83
306.00 7.57
307.00 7.31
308.00 7.05
309.00 6.80
310.00 6.55
311.00 6.31
312.00 6.06
313.00 5.82
314.00 5.59
315.00 5.36
316.00 5.13
317.00 4.91
318.00 4.69
319.00 4.47
320.00 4.26
321.00 4.06
322.00 3.86
323.00 3.66
324.00 3.47
325.00 3.28
326.00 3.09
327.00 2.92
328.00 2.74
329.00 2.57
330.00 2.41
331.00 2.25
332.00 2.09
333.00 1.95
334.00 1.80
335.00 1.66
336.00 1.53
337.00 1.40
338.00 1.28
339.00 1.16
340.00 1.05
341.00 0.94
342.00 0.84
343.00 0.75
344.00 0.66
345.00 0.57
346.00 0.49
347.00 0.42
348.00 0.35
349.00 0.29
350.00 0.24
351.00 0.19
352.00 0.14
353.00 0.11
354.00 0.07
355.00 0.05
356.00 0.03
357.00 0.01
358.00 0.00
359.00 0.00
VERTICAL 360
0.00 24.94
1.00 17.52
2.00 12.63
3.00 9.06
4.00 6.33
5.00 4.23
6.00 2.63
7.00 1.45
8.00 0.64
9.00 0.16
10.00 0.00
11.00 0.15
12.00 0.61
13.00 1.40
14.00 2.54
15.00 4.07
16.00 6.06
17.00 8.60
18.00 11.89
19.00 16.31
20.00 22.58
21.00 29.32
22.00 26.39
23.00 24.12
24.00 24.07
25.00 25.92
26.00 30.49
27.00 46.16
28.00 33.13
29.00 26.76
30.00 23.77
31.00 22.31
32.00 21.84
33.00 22.17
34.00 23.18
35.00 24.82
36.00 26.98
37.00 29.42
38.00 31.76
39.00 33.83
40.00 36.04
41.00 39.16
42.00 43.64
43.00 43.97
44.00 38.75
45.00 34.48
46.00 31.30
47.00 28.96
48.00 27.36
49.00 26.46
50.00 26.23
51.00 26.66
52.00 27.72
53.00 29.32
54.00 31.11
55.00 32.54
56.00 33.57
57.00 35.02
58.00 38.17
59.00 45.78
60.00 43.37
61.00 35.59
62.00 31.60
63.00 29.28
64.00 28.03
65.00 27.60
66.00 27.81
67.00 28.40
68.00 28.96
69.00 29.09
70.00 28.76
71.00 28.30
72.00 28.05
73.00 28.20
74.00 28.83
75.00 29.90
76.00 31.23
77.00 32.48
78.00 33.37
79.00 34.00
80.00 34.82
81.00 36.46
82.00 39.87
83.00 47.94
84.00 47.32
85.00 39.41
86.00 35.86
87.00 33.91
88.00 32.62
89.00 31.55
90.00 30.52
91.00 29.54
92.00 28.70
93.00 28.12
94.00 27.97
95.00 28.34
96.00 29.31
97.00 30.81
98.00 32.69
99.00 34.62
100.00 36.27
101.00 37.65
102.00 39.06
103.00 40.93
104.00 43.74
105.00 48.53
106.00 60.44
107.00 56.18
108.00 49.48
109.00 47.75
110.00 49.02
111.00 54.93
112.00 57.98
113.00 48.36
114.00 44.68
115.00 43.51
116.00 43.98
117.00 45.69
118.00 48.33
119.00 51.86
120.00 56.43
121.00 57.00
122.00 53.08
123.00 50.27
124.00 47.78
125.00 45.14
126.00 42.93
127.00 41.50
128.00 40.79
129.00 40.53
130.00 40.51
131.00 40.80
132.00 41.67
133.00 43.46
134.00 46.55
135.00 50.98
136.00 50.41
137.00 45.34
138.00 41.62
139.00 39.02
140.00 37.07
141.00 35.51
142.00 34.24
143.00 33.29
144.00 32.69
145.00 32.40
146.00 32.29
147.00 32.21
148.00 32.08
149.00 31.94
150.00 31.94
151.00 32.24
152.00 32.89
153.00 33.79
154.00 34.63
155.00 35.08
156.00 35.18
157.00 35.32
158.00 35.86
159.00 37.06
160.00 39.14
161.00 42.20
162.00 44.99
163.00 44.27
164.00 42.40
165.00 41.62
166.00 41.76
167.00 41.19
168.00 38.87
169.00 36.05
170.00 33.73
171.00 32.64
172.00 32.15
173.00 32.13
174.00 32.41
175.00 32.84
176.00 33.35
177.00 33.86
178.00 34.22
179.00 34.30
180.00 34.03
181.00 33.52
182.00 32.96
183.00 32.48
184.00 32.17
185.00 32.08
186.00 32.28
187.00 32.82
188.00 33.74
189.00 35.05
190.00 36.69
191.00 38.57
192.00 40.53
193.00 42.41
194.00 43.99
195.00 44.99
196.00 45.08
197.00 44.26
198.00 42.83
199.00 41.06
200.00 39.22
201.00 37.56
202.00 36.33
203.00 35.68
204.00 35.69
205.00 36.34
206.00 37.46
207.00 38.54
208.00 38.94
209.00 38.60
210.00 37.95
211.00 37.28
212.00 36.66
213.00 36.07
214.00 35.56
215.00 35.24
216.00 35.28
217.00 35.80
218.00 36.91
219.00 38.74
220.00 41.34
221.00 44.13
222.00 44.04
223.00 41.15
224.00 38.59
225.00 36.91
226.00 35.93
227.00 35.42
228.00 35.10
229.00 34.74
230.00 34.23
231.00 33.61
232.00 33.04
233.00 32.72
234.00 32.76
235.00 33.22
236.00 34.04
237.00 35.11
238.00 36.22
239.00 36.86
240.00 36.28
241.00 34.63
242.00 32.87
243.00 31.60
244.00 30.90
245.00 30.66
246.00 30.67
247.00 30.72
248.00 30.70
249.00 30.56
250.00 30.28
251.00 29.92
252.00 29.60
253.00 29.43
254.00 29.35
255.00 29.22
256.00 28.87
257.00 28.31
258.00 27.71
259.00 27.27
260.00 27.17
261.00 27.46
262.00 28.10
263.00 28.88
264.00 29.46
265.00 29.60
266.00 29.38
267.00 29.03
268.00 28.76
269.00 28.71
270.00 29.00
271.00 29.63
272.00 30.49
273.00 31.36
274.00 32.02
275.00 32.52
276.00 32.98
277.00 33.50
278.00 34.06
279.00 34.49
280.00 34.64
281.00 34.52
282.00 34.39
283.00 34.49
284.00 34.87
285.00 35.33
286.00 35.42
287.00 34.79
288.00 33.74
289.00 32.78
290.00 32.25
291.00 32.20
292.00 32.56
293.00 33.14
294.00 33.63
295.00 33.70
296.00 33.29
297.00 32.64
298.00 32.13
299.00 32.02
300.00 32.40
301.00 33.30
302.00 34.73
303.00 36.69
304.00 38.96
305.00 40.74
306.00 41.08
307.00 40.42
308.00 39.53
309.00 38.71
310.00 38.33
311.00 38.63
312.00 38.93
313.00 36.98
314.00 33.33
315.00 30.04
316.00 27.62
317.00 25.99
318.00 25.08
319.00 24.79
320.00 25.07
321.00 25.80
322.00 26.87
323.00 28.16
324.00 29.55
325.00 30.51
326.00 29.69
327.00 27.02
328.00 24.11
329.00 21.72
330.00 19.98
331.00 18.87
332.00 18.37
333.00 18.44
334.00 19.11
335.00 20.41
336.00 22.46
337.00 25.57
338.00 30.58
339.00 41.84
340.00 38.39
341.00 31.32
342.00 28.43
343.00 27.09
344.00 26.43
345.00 25.77
346.00 24.66
347.00 23.24
348.00 21.99
349.00 21.22
350.00 21.12
351.00 21.86
352.00 23.70
353.00 27.29
354.00 34.95
355.00 38.61
356.00 30.27
357.00 27.97
358.00 29.42
359.00 34.77
