NAME ATR4518R7_1880_X_CO_P45_00T_yyR
FREQUENCY 1880
GAIN 14.89 dBd
TILT	ELECTRICAL
COMMENT DATE 05.08.2013 +45 degrees polarized system Lever position 00T deg
HORIZONTAL 360
0.00 0.11
1.00 0.08
2.00 0.06
3.00 0.03
4.00 0.02
5.00 0.01
6.00 0.00
7.00 0.01
8.00 0.01
9.00 0.03
10.00 0.05
11.00 0.07
12.00 0.11
13.00 0.15
14.00 0.20
15.00 0.26
16.00 0.33
17.00 0.40
18.00 0.48
19.00 0.58
20.00 0.68
21.00 0.79
22.00 0.91
23.00 1.04
24.00 1.18
25.00 1.33
26.00 1.49
27.00 1.66
28.00 1.84
29.00 2.03
30.00 2.23
31.00 2.43
32.00 2.65
33.00 2.87
34.00 3.11
35.00 3.35
36.00 3.59
37.00 3.85
38.00 4.11
39.00 4.37
40.00 4.65
41.00 4.92
42.00 5.21
43.00 5.49
44.00 5.78
45.00 6.08
46.00 6.38
47.00 6.68
48.00 6.98
49.00 7.29
50.00 7.61
51.00 7.92
52.00 8.24
53.00 8.56
54.00 8.89
55.00 9.22
56.00 9.55
57.00 9.89
58.00 10.23
59.00 10.57
60.00 10.91
61.00 11.26
62.00 11.61
63.00 11.96
64.00 12.31
65.00 12.67
66.00 13.02
67.00 13.37
68.00 13.73
69.00 14.08
70.00 14.43
71.00 14.78
72.00 15.12
73.00 15.47
74.00 15.82
75.00 16.17
76.00 16.52
77.00 16.87
78.00 17.22
79.00 17.58
80.00 17.94
81.00 18.30
82.00 18.68
83.00 19.06
84.00 19.45
85.00 19.85
86.00 20.26
87.00 20.69
88.00 21.12
89.00 21.56
90.00 22.01
91.00 22.47
92.00 22.95
93.00 23.43
94.00 23.91
95.00 24.40
96.00 24.90
97.00 25.39
98.00 25.88
99.00 26.37
100.00 26.85
101.00 27.33
102.00 27.79
103.00 28.24
104.00 28.67
105.00 29.08
106.00 29.47
107.00 29.84
108.00 30.19
109.00 30.51
110.00 30.80
111.00 31.05
112.00 31.29
113.00 31.49
114.00 31.68
115.00 31.84
116.00 31.99
117.00 32.14
118.00 32.29
119.00 32.45
120.00 32.63
121.00 32.84
122.00 33.09
123.00 33.40
124.00 33.77
125.00 34.22
126.00 34.76
127.00 35.42
128.00 36.22
129.00 37.19
130.00 38.38
131.00 39.86
132.00 41.77
133.00 44.35
134.00 48.16
135.00 55.17
136.00 62.62
137.00 51.09
138.00 46.16
139.00 43.13
140.00 40.99
141.00 39.39
142.00 38.17
143.00 37.22
144.00 36.50
145.00 35.96
146.00 35.60
147.00 35.39
148.00 35.34
149.00 35.43
150.00 35.68
151.00 36.09
152.00 36.68
153.00 37.47
154.00 38.50
155.00 39.84
156.00 41.55
157.00 43.75
158.00 46.46
159.00 48.87
160.00 48.43
161.00 45.70
162.00 42.98
163.00 40.79
164.00 39.07
165.00 37.69
166.00 36.61
167.00 35.74
168.00 35.06
169.00 34.55
170.00 34.18
171.00 33.95
172.00 33.84
173.00 33.85
174.00 33.97
175.00 34.21
176.00 34.55
177.00 35.00
178.00 35.54
179.00 36.17
180.00 36.85
181.00 37.56
182.00 38.21
183.00 38.73
184.00 39.02
185.00 39.02
186.00 38.75
187.00 38.28
188.00 37.72
189.00 37.14
190.00 36.59
191.00 36.11
192.00 35.71
193.00 35.39
194.00 35.17
195.00 35.02
196.00 34.96
197.00 34.97
198.00 35.03
199.00 35.15
200.00 35.29
201.00 35.44
202.00 35.58
203.00 35.67
204.00 35.69
205.00 35.64
206.00 35.49
207.00 35.27
208.00 34.97
209.00 34.63
210.00 34.27
211.00 33.90
212.00 33.54
213.00 33.21
214.00 32.92
215.00 32.66
216.00 32.45
217.00 32.27
218.00 32.15
219.00 32.06
220.00 32.02
221.00 32.01
222.00 32.04
223.00 32.10
224.00 32.18
225.00 32.29
226.00 32.42
227.00 32.56
228.00 32.72
229.00 32.88
230.00 33.04
231.00 33.20
232.00 33.35
233.00 33.51
234.00 33.66
235.00 33.80
236.00 33.94
237.00 34.07
238.00 34.20
239.00 34.32
240.00 34.44
241.00 34.56
242.00 34.66
243.00 34.76
244.00 34.84
245.00 34.92
246.00 34.97
247.00 35.00
248.00 35.01
249.00 34.99
250.00 34.93
251.00 34.83
252.00 34.70
253.00 34.51
254.00 34.28
255.00 34.01
256.00 33.69
257.00 33.33
258.00 32.93
259.00 32.49
260.00 32.03
261.00 31.53
262.00 31.02
263.00 30.49
264.00 29.94
265.00 29.39
266.00 28.83
267.00 28.27
268.00 27.71
269.00 27.15
270.00 26.60
271.00 26.04
272.00 25.50
273.00 24.95
274.00 24.42
275.00 23.88
276.00 23.36
277.00 22.83
278.00 22.31
279.00 21.80
280.00 21.29
281.00 20.79
282.00 20.29
283.00 19.79
284.00 19.30
285.00 18.82
286.00 18.34
287.00 17.87
288.00 17.41
289.00 16.94
290.00 16.50
291.00 16.05
292.00 15.62
293.00 15.19
294.00 14.77
295.00 14.35
296.00 13.95
297.00 13.56
298.00 13.17
299.00 12.79
300.00 12.42
301.00 12.05
302.00 11.70
303.00 11.34
304.00 11.00
305.00 10.66
306.00 10.33
307.00 10.00
308.00 9.68
309.00 9.37
310.00 9.06
311.00 8.75
312.00 8.45
313.00 8.15
314.00 7.85
315.00 7.57
316.00 7.28
317.00 7.00
318.00 6.72
319.00 6.45
320.00 6.18
321.00 5.91
322.00 5.65
323.00 5.40
324.00 5.15
325.00 4.90
326.00 4.66
327.00 4.42
328.00 4.19
329.00 3.97
330.00 3.75
331.00 3.54
332.00 3.33
333.00 3.13
334.00 2.93
335.00 2.75
336.00 2.56
337.00 2.39
338.00 2.22
339.00 2.06
340.00 1.90
341.00 1.76
342.00 1.62
343.00 1.48
344.00 1.35
345.00 1.23
346.00 1.12
347.00 1.01
348.00 0.91
349.00 0.81
350.00 0.72
351.00 0.63
352.00 0.56
353.00 0.48
354.00 0.41
355.00 0.35
356.00 0.29
357.00 0.24
358.00 0.19
359.00 0.15
VERTICAL 360
0.00 0.00
1.00 0.18
2.00 1.04
3.00 2.69
4.00 5.36
5.00 9.54
6.00 16.58
7.00 23.66
8.00 18.89
9.00 17.00
10.00 18.28
11.00 22.47
12.00 25.19
13.00 20.39
14.00 17.13
15.00 16.14
16.00 17.01
17.00 19.70
18.00 23.16
19.00 22.71
20.00 20.15
21.00 18.97
22.00 19.36
23.00 21.29
24.00 25.14
25.00 31.83
26.00 31.87
27.00 25.98
28.00 22.54
29.00 20.57
30.00 19.64
31.00 19.70
32.00 20.80
33.00 22.94
34.00 25.75
35.00 27.98
36.00 28.29
37.00 26.84
38.00 24.59
39.00 22.61
40.00 21.38
41.00 20.98
42.00 21.32
43.00 22.36
44.00 24.18
45.00 27.12
46.00 32.29
47.00 43.65
48.00 36.80
49.00 30.35
50.00 27.32
51.00 25.63
52.00 24.62
53.00 23.96
54.00 23.51
55.00 23.35
56.00 23.60
57.00 24.28
58.00 25.44
59.00 27.23
60.00 30.05
61.00 34.50
62.00 39.29
63.00 37.98
64.00 35.48
65.00 34.74
66.00 35.20
67.00 36.25
68.00 37.63
69.00 40.11
70.00 46.34
71.00 49.75
72.00 41.19
73.00 37.25
74.00 35.36
75.00 34.32
76.00 33.19
77.00 31.52
78.00 29.60
79.00 27.89
80.00 26.61
81.00 25.83
82.00 25.52
83.00 25.57
84.00 25.90
85.00 26.49
86.00 27.35
87.00 28.43
88.00 29.94
89.00 32.53
90.00 35.74
91.00 33.84
92.00 30.05
93.00 28.38
94.00 28.43
95.00 29.95
96.00 33.14
97.00 38.86
98.00 49.58
99.00 64.58
100.00 52.19
101.00 42.89
102.00 39.25
103.00 38.78
104.00 40.27
105.00 41.97
106.00 41.90
107.00 40.35
108.00 38.79
109.00 38.24
110.00 38.90
111.00 40.30
112.00 41.41
113.00 41.54
114.00 41.29
115.00 41.74
116.00 43.18
117.00 44.27
118.00 43.45
119.00 41.66
120.00 40.28
121.00 40.23
122.00 42.50
123.00 49.49
124.00 55.66
125.00 46.55
126.00 43.60
127.00 42.47
128.00 41.81
129.00 41.55
130.00 42.30
131.00 45.10
132.00 52.44
133.00 62.05
134.00 56.21
135.00 62.26
136.00 49.84
137.00 43.38
138.00 41.24
139.00 41.93
140.00 45.28
141.00 46.66
142.00 42.29
143.00 39.54
144.00 39.27
145.00 41.16
146.00 43.24
147.00 41.68
148.00 39.13
149.00 37.06
150.00 35.15
151.00 33.90
152.00 33.79
153.00 34.66
154.00 35.95
155.00 37.95
156.00 42.93
157.00 52.56
158.00 44.23
159.00 42.57
160.00 51.30
161.00 46.42
162.00 37.87
163.00 35.56
164.00 36.20
165.00 39.44
166.00 45.77
167.00 46.13
168.00 40.46
169.00 37.55
170.00 36.77
171.00 37.75
172.00 40.36
173.00 43.75
174.00 43.66
175.00 39.75
176.00 36.64
177.00 35.37
178.00 35.12
179.00 36.57
180.00 38.53
181.00 42.12
182.00 50.53
183.00 55.40
184.00 44.09
185.00 42.16
186.00 43.52
187.00 48.01
188.00 50.01
189.00 40.55
190.00 35.27
191.00 33.10
192.00 33.34
193.00 35.98
194.00 41.80
195.00 52.65
196.00 49.66
197.00 46.06
198.00 46.01
199.00 43.60
200.00 38.00
201.00 34.28
202.00 32.81
203.00 33.26
204.00 35.28
205.00 37.93
206.00 39.80
207.00 41.71
208.00 44.78
209.00 44.05
210.00 40.44
211.00 38.78
212.00 39.29
213.00 42.10
214.00 48.63
215.00 52.24
216.00 43.89
217.00 39.16
218.00 36.39
219.00 34.99
220.00 34.85
221.00 35.98
222.00 38.40
223.00 41.64
224.00 43.25
225.00 41.79
226.00 40.22
227.00 40.10
228.00 41.72
229.00 43.81
230.00 43.17
231.00 42.05
232.00 43.38
233.00 47.40
234.00 46.03
235.00 41.48
236.00 39.18
237.00 38.38
238.00 38.61
239.00 40.07
240.00 43.79
241.00 51.22
242.00 47.15
243.00 41.73
244.00 39.71
245.00 39.64
246.00 41.08
247.00 44.07
248.00 49.28
249.00 60.21
250.00 59.46
251.00 50.05
252.00 45.49
253.00 43.26
254.00 42.88
255.00 43.71
256.00 44.42
257.00 44.28
258.00 43.93
259.00 43.39
260.00 42.01
261.00 39.76
262.00 37.46
263.00 35.76
264.00 34.83
265.00 34.49
266.00 34.42
267.00 34.36
268.00 34.23
269.00 34.00
270.00 33.66
271.00 33.16
272.00 32.37
273.00 31.28
274.00 29.99
275.00 28.69
276.00 27.62
277.00 26.91
278.00 26.50
279.00 26.27
280.00 26.19
281.00 26.34
282.00 26.74
283.00 27.26
284.00 27.64
285.00 27.61
286.00 27.19
287.00 26.73
288.00 26.52
289.00 26.61
290.00 26.83
291.00 26.91
292.00 26.74
293.00 26.34
294.00 25.76
295.00 24.97
296.00 24.09
297.00 23.39
298.00 23.09
299.00 23.35
300.00 24.28
301.00 26.02
302.00 28.79
303.00 32.81
304.00 35.84
305.00 32.98
306.00 29.10
307.00 26.38
308.00 24.54
309.00 23.29
310.00 22.46
311.00 21.96
312.00 21.73
313.00 21.70
314.00 21.76
315.00 21.71
316.00 21.32
317.00 20.44
318.00 19.19
319.00 17.87
320.00 16.78
321.00 16.09
322.00 15.81
323.00 15.91
324.00 16.31
325.00 17.04
326.00 18.31
327.00 20.57
328.00 24.97
329.00 39.95
330.00 31.06
331.00 23.53
332.00 20.96
333.00 20.66
334.00 22.55
335.00 28.55
336.00 37.06
337.00 24.59
338.00 19.90
339.00 18.07
340.00 18.07
341.00 19.92
342.00 23.95
343.00 25.43
344.00 20.77
345.00 17.61
346.00 16.61
347.00 17.63
348.00 21.34
349.00 28.18
350.00 23.54
351.00 18.75
352.00 17.70
353.00 19.90
354.00 20.27
355.00 12.99
356.00 7.50
357.00 4.01
358.00 1.79
359.00 0.52
