NAME ATR4518R7_1950_X_CO_M45_02T_yyR
FREQUENCY 1950
GAIN 15.37 dBd
TILT	ELECTRICAL
COMMENT DATE 05.08.2013 -45 degrees polarized system Lever position 02T deg
HORIZONTAL 360
0.00 0.11
1.00 0.08
2.00 0.05
3.00 0.03
4.00 0.02
5.00 0.01
6.00 0.00
7.00 0.01
8.00 0.01
9.00 0.03
10.00 0.05
11.00 0.08
12.00 0.11
13.00 0.16
14.00 0.21
15.00 0.27
16.00 0.35
17.00 0.43
18.00 0.52
19.00 0.62
20.00 0.73
21.00 0.86
22.00 1.00
23.00 1.14
24.00 1.30
25.00 1.48
26.00 1.66
27.00 1.86
28.00 2.07
29.00 2.29
30.00 2.53
31.00 2.77
32.00 3.03
33.00 3.31
34.00 3.59
35.00 3.89
36.00 4.20
37.00 4.52
38.00 4.86
39.00 5.20
40.00 5.56
41.00 5.93
42.00 6.31
43.00 6.70
44.00 7.10
45.00 7.51
46.00 7.93
47.00 8.36
48.00 8.80
49.00 9.25
50.00 9.71
51.00 10.18
52.00 10.66
53.00 11.14
54.00 11.63
55.00 12.13
56.00 12.64
57.00 13.14
58.00 13.65
59.00 14.17
60.00 14.68
61.00 15.19
62.00 15.69
63.00 16.19
64.00 16.67
65.00 17.15
66.00 17.60
67.00 18.05
68.00 18.47
69.00 18.87
70.00 19.25
71.00 19.61
72.00 19.96
73.00 20.29
74.00 20.61
75.00 20.92
76.00 21.23
77.00 21.54
78.00 21.86
79.00 22.18
80.00 22.52
81.00 22.87
82.00 23.25
83.00 23.64
84.00 24.06
85.00 24.52
86.00 25.00
87.00 25.52
88.00 26.09
89.00 26.69
90.00 27.35
91.00 28.06
92.00 28.83
93.00 29.68
94.00 30.61
95.00 31.63
96.00 32.77
97.00 34.06
98.00 35.55
99.00 37.29
100.00 39.39
101.00 42.03
102.00 45.45
103.00 49.27
104.00 49.46
105.00 45.85
106.00 42.58
107.00 40.10
108.00 38.16
109.00 36.59
110.00 35.29
111.00 34.19
112.00 33.24
113.00 32.42
114.00 31.71
115.00 31.09
116.00 30.55
117.00 30.09
118.00 29.69
119.00 29.36
120.00 29.09
121.00 28.88
122.00 28.73
123.00 28.63
124.00 28.58
125.00 28.59
126.00 28.66
127.00 28.77
128.00 28.94
129.00 29.16
130.00 29.43
131.00 29.75
132.00 30.13
133.00 30.54
134.00 31.01
135.00 31.51
136.00 32.04
137.00 32.60
138.00 33.18
139.00 33.76
140.00 34.33
141.00 34.89
142.00 35.42
143.00 35.92
144.00 36.39
145.00 36.84
146.00 37.29
147.00 37.77
148.00 38.29
149.00 38.91
150.00 39.64
151.00 40.54
152.00 41.67
153.00 43.12
154.00 45.02
155.00 47.60
156.00 51.07
157.00 54.11
158.00 51.84
159.00 47.82
160.00 44.68
161.00 42.29
162.00 40.41
163.00 38.91
164.00 37.68
165.00 36.67
166.00 35.84
167.00 35.17
168.00 34.64
169.00 34.23
170.00 33.93
171.00 33.75
172.00 33.68
173.00 33.72
174.00 33.86
175.00 34.12
176.00 34.49
177.00 35.00
178.00 35.64
179.00 36.45
180.00 37.44
181.00 38.67
182.00 40.17
183.00 42.04
184.00 44.35
185.00 47.05
186.00 49.21
187.00 48.71
188.00 46.28
189.00 43.86
190.00 41.90
191.00 40.35
192.00 39.14
193.00 38.19
194.00 37.47
195.00 36.93
196.00 36.55
197.00 36.33
198.00 36.25
199.00 36.31
200.00 36.51
201.00 36.85
202.00 37.33
203.00 37.97
204.00 38.77
205.00 39.73
206.00 40.84
207.00 42.00
208.00 43.02
209.00 43.53
210.00 43.23
211.00 42.22
212.00 40.88
213.00 39.50
214.00 38.22
215.00 37.08
216.00 36.09
217.00 35.25
218.00 34.54
219.00 33.94
220.00 33.45
221.00 33.06
222.00 32.77
223.00 32.56
224.00 32.44
225.00 32.40
226.00 32.44
227.00 32.57
228.00 32.77
229.00 33.05
230.00 33.43
231.00 33.88
232.00 34.42
233.00 35.05
234.00 35.77
235.00 36.55
236.00 37.38
237.00 38.20
238.00 38.92
239.00 39.40
240.00 39.51
241.00 39.21
242.00 38.57
243.00 37.71
244.00 36.77
245.00 35.82
246.00 34.92
247.00 34.07
248.00 33.28
249.00 32.56
250.00 31.90
251.00 31.28
252.00 30.72
253.00 30.19
254.00 29.70
255.00 29.24
256.00 28.79
257.00 28.37
258.00 27.95
259.00 27.55
260.00 27.15
261.00 26.75
262.00 26.35
263.00 25.94
264.00 25.53
265.00 25.11
266.00 24.69
267.00 24.26
268.00 23.82
269.00 23.38
270.00 22.93
271.00 22.49
272.00 22.04
273.00 21.59
274.00 21.15
275.00 20.70
276.00 20.27
277.00 19.84
278.00 19.42
279.00 19.00
280.00 18.60
281.00 18.20
282.00 17.82
283.00 17.44
284.00 17.07
285.00 16.71
286.00 16.36
287.00 16.02
288.00 15.69
289.00 15.36
290.00 15.04
291.00 14.73
292.00 14.42
293.00 14.12
294.00 13.82
295.00 13.52
296.00 13.23
297.00 12.95
298.00 12.66
299.00 12.37
300.00 12.09
301.00 11.81
302.00 11.52
303.00 11.24
304.00 10.95
305.00 10.67
306.00 10.38
307.00 10.09
308.00 9.80
309.00 9.51
310.00 9.22
311.00 8.93
312.00 8.64
313.00 8.34
314.00 8.05
315.00 7.76
316.00 7.47
317.00 7.18
318.00 6.89
319.00 6.60
320.00 6.32
321.00 6.04
322.00 5.77
323.00 5.49
324.00 5.23
325.00 4.96
326.00 4.71
327.00 4.46
328.00 4.21
329.00 3.97
330.00 3.74
331.00 3.52
332.00 3.30
333.00 3.09
334.00 2.89
335.00 2.69
336.00 2.51
337.00 2.33
338.00 2.16
339.00 1.99
340.00 1.84
341.00 1.69
342.00 1.55
343.00 1.42
344.00 1.29
345.00 1.17
346.00 1.06
347.00 0.95
348.00 0.86
349.00 0.76
350.00 0.68
351.00 0.60
352.00 0.52
353.00 0.45
354.00 0.39
355.00 0.33
356.00 0.28
357.00 0.23
358.00 0.18
359.00 0.14
VERTICAL 360
0.00 1.63
1.00 0.45
2.00 0.00
3.00 0.28
4.00 1.38
5.00 3.46
6.00 6.94
7.00 13.08
8.00 27.80
9.00 19.28
10.00 14.44
11.00 13.85
12.00 15.89
13.00 21.31
14.00 24.45
15.00 18.06
16.00 14.95
17.00 14.30
18.00 15.55
19.00 18.83
20.00 25.05
21.00 29.80
22.00 24.60
23.00 21.64
24.00 20.83
25.00 21.87
26.00 25.75
27.00 37.24
28.00 28.86
29.00 22.50
30.00 20.36
31.00 20.27
32.00 21.67
33.00 24.25
34.00 27.65
35.00 30.72
36.00 30.91
37.00 28.85
38.00 26.98
39.00 25.86
40.00 25.24
41.00 24.69
42.00 24.00
43.00 23.33
44.00 22.97
45.00 23.13
46.00 23.91
47.00 25.48
48.00 28.27
49.00 33.63
50.00 43.40
51.00 35.67
52.00 30.61
53.00 29.09
54.00 29.70
55.00 32.36
56.00 38.00
57.00 53.08
58.00 44.17
59.00 38.20
60.00 35.68
61.00 34.32
62.00 33.72
63.00 33.92
64.00 35.08
65.00 37.18
66.00 39.62
67.00 40.96
68.00 40.49
69.00 38.93
70.00 36.79
71.00 34.48
72.00 32.42
73.00 30.86
74.00 29.78
75.00 29.03
76.00 28.38
77.00 27.67
78.00 26.87
79.00 26.10
80.00 25.55
81.00 25.32
82.00 25.41
83.00 25.77
84.00 26.30
85.00 27.00
86.00 27.82
87.00 28.70
88.00 29.60
89.00 30.36
90.00 30.66
91.00 30.22
92.00 29.34
93.00 28.66
94.00 28.50
95.00 28.97
96.00 29.98
97.00 31.37
98.00 32.95
99.00 34.62
100.00 36.54
101.00 39.01
102.00 42.43
103.00 47.04
104.00 51.82
105.00 53.51
106.00 52.25
107.00 49.12
108.00 45.48
109.00 42.60
110.00 40.72
111.00 39.69
112.00 39.30
113.00 39.29
114.00 39.36
115.00 39.30
116.00 39.16
117.00 39.10
118.00 39.33
119.00 40.05
120.00 41.48
121.00 43.88
122.00 48.19
123.00 57.86
124.00 50.15
125.00 42.69
126.00 39.14
127.00 37.58
128.00 37.54
129.00 38.89
130.00 41.47
131.00 44.40
132.00 46.21
133.00 48.01
134.00 51.62
135.00 50.23
136.00 44.98
137.00 42.27
138.00 41.53
139.00 41.69
140.00 40.93
141.00 39.03
142.00 37.75
143.00 38.13
144.00 40.95
145.00 48.59
146.00 50.91
147.00 43.12
148.00 40.32
149.00 39.26
150.00 38.99
151.00 39.25
152.00 39.81
153.00 40.27
154.00 40.95
155.00 42.84
156.00 46.88
157.00 53.27
158.00 56.29
159.00 52.25
160.00 46.96
161.00 43.63
162.00 42.33
163.00 42.48
164.00 43.77
165.00 46.60
166.00 48.33
167.00 43.26
168.00 39.06
169.00 37.12
170.00 36.79
171.00 37.91
172.00 39.68
173.00 41.83
174.00 44.48
175.00 48.52
176.00 54.19
177.00 52.46
178.00 49.21
179.00 49.44
180.00 51.57
181.00 46.55
182.00 41.39
183.00 38.85
184.00 38.28
185.00 39.09
186.00 40.31
187.00 40.96
188.00 40.44
189.00 39.52
190.00 39.29
191.00 40.07
192.00 41.32
193.00 42.23
194.00 42.54
195.00 41.26
196.00 38.81
197.00 37.22
198.00 37.13
199.00 38.06
200.00 38.87
201.00 39.04
202.00 38.70
203.00 37.35
204.00 35.78
205.00 35.32
206.00 36.49
207.00 39.18
208.00 42.75
209.00 46.64
210.00 46.55
211.00 41.20
212.00 38.04
213.00 37.48
214.00 39.26
215.00 42.76
216.00 44.19
217.00 42.90
218.00 43.11
219.00 45.83
220.00 50.90
221.00 51.05
222.00 46.93
223.00 45.30
224.00 46.27
225.00 50.67
226.00 58.03
227.00 51.39
228.00 46.32
229.00 43.53
230.00 41.86
231.00 41.31
232.00 42.07
233.00 44.37
234.00 47.90
235.00 48.32
236.00 44.61
237.00 41.58
238.00 39.66
239.00 38.55
240.00 38.18
241.00 38.61
242.00 40.01
243.00 42.64
244.00 46.91
245.00 51.58
246.00 50.30
247.00 47.92
248.00 47.71
249.00 48.37
250.00 47.57
251.00 45.89
252.00 45.14
253.00 45.57
254.00 46.72
255.00 47.76
256.00 47.98
257.00 47.97
258.00 49.29
259.00 54.19
260.00 57.50
261.00 48.84
262.00 44.60
263.00 42.72
264.00 42.10
265.00 42.04
266.00 41.95
267.00 41.75
268.00 41.63
269.00 41.16
270.00 39.75
271.00 38.09
272.00 37.01
273.00 36.67
274.00 36.96
275.00 38.05
276.00 40.49
277.00 44.98
278.00 48.93
279.00 46.47
280.00 43.40
281.00 40.55
282.00 37.41
283.00 34.23
284.00 31.39
285.00 29.11
286.00 27.49
287.00 26.42
288.00 25.69
289.00 25.08
290.00 24.49
291.00 23.95
292.00 23.58
293.00 23.49
294.00 23.69
295.00 24.17
296.00 24.93
297.00 26.07
298.00 27.79
299.00 30.45
300.00 34.61
301.00 40.69
302.00 42.88
303.00 39.42
304.00 37.23
305.00 35.58
306.00 33.30
307.00 30.44
308.00 27.69
309.00 25.45
310.00 23.69
311.00 22.27
312.00 21.05
313.00 20.02
314.00 19.28
315.00 18.93
316.00 19.02
317.00 19.48
318.00 20.10
319.00 20.54
320.00 20.53
321.00 20.09
322.00 19.48
323.00 18.96
324.00 18.67
325.00 18.56
326.00 18.46
327.00 18.21
328.00 17.86
329.00 17.69
330.00 18.08
331.00 19.48
332.00 22.71
333.00 30.42
334.00 34.64
335.00 25.42
336.00 22.82
337.00 23.40
338.00 27.37
339.00 31.65
340.00 25.52
341.00 21.58
342.00 20.39
343.00 21.40
344.00 25.12
345.00 30.73
346.00 25.94
347.00 21.14
348.00 19.16
349.00 19.15
350.00 21.17
351.00 26.28
352.00 32.69
353.00 27.72
354.00 26.10
355.00 24.86
356.00 17.29
357.00 10.94
358.00 6.61
359.00 3.63
