NAME ATR4518R7_0847_X_CO_P45_06T
FREQUENCY 0847
GAIN 14.49 dBd
TILT	ELECTRICAL
COMMENT DATE 05.08.2013 +45 degrees polarized system Lever position 06T deg
HORIZONTAL 360
0.00 0.00
1.00 0.00
2.00 0.00
3.00 0.01
4.00 0.03
5.00 0.06
6.00 0.08
7.00 0.12
8.00 0.16
9.00 0.21
10.00 0.26
11.00 0.32
12.00 0.38
13.00 0.45
14.00 0.52
15.00 0.60
16.00 0.69
17.00 0.78
18.00 0.87
19.00 0.98
20.00 1.08
21.00 1.20
22.00 1.32
23.00 1.44
24.00 1.57
25.00 1.71
26.00 1.85
27.00 2.00
28.00 2.15
29.00 2.30
30.00 2.47
31.00 2.64
32.00 2.81
33.00 2.99
34.00 3.17
35.00 3.36
36.00 3.56
37.00 3.76
38.00 3.97
39.00 4.18
40.00 4.39
41.00 4.62
42.00 4.84
43.00 5.07
44.00 5.31
45.00 5.55
46.00 5.80
47.00 6.05
48.00 6.31
49.00 6.57
50.00 6.84
51.00 7.11
52.00 7.39
53.00 7.67
54.00 7.96
55.00 8.25
56.00 8.54
57.00 8.84
58.00 9.14
59.00 9.45
60.00 9.77
61.00 10.08
62.00 10.40
63.00 10.73
64.00 11.06
65.00 11.39
66.00 11.72
67.00 12.06
68.00 12.40
69.00 12.75
70.00 13.09
71.00 13.45
72.00 13.80
73.00 14.15
74.00 14.51
75.00 14.88
76.00 15.23
77.00 15.60
78.00 15.97
79.00 16.33
80.00 16.70
81.00 17.07
82.00 17.44
83.00 17.81
84.00 18.17
85.00 18.54
86.00 18.91
87.00 19.28
88.00 19.64
89.00 20.01
90.00 20.37
91.00 20.73
92.00 21.09
93.00 21.44
94.00 21.79
95.00 22.13
96.00 22.47
97.00 22.81
98.00 23.14
99.00 23.46
100.00 23.77
101.00 24.08
102.00 24.38
103.00 24.67
104.00 24.95
105.00 25.22
106.00 25.48
107.00 25.72
108.00 25.96
109.00 26.18
110.00 26.39
111.00 26.59
112.00 26.78
113.00 26.96
114.00 27.13
115.00 27.29
116.00 27.43
117.00 27.57
118.00 27.70
119.00 27.82
120.00 27.93
121.00 28.04
122.00 28.15
123.00 28.25
124.00 28.35
125.00 28.45
126.00 28.54
127.00 28.64
128.00 28.73
129.00 28.83
130.00 28.92
131.00 29.02
132.00 29.12
133.00 29.23
134.00 29.34
135.00 29.45
136.00 29.56
137.00 29.67
138.00 29.79
139.00 29.91
140.00 30.04
141.00 30.16
142.00 30.29
143.00 30.41
144.00 30.54
145.00 30.66
146.00 30.78
147.00 30.91
148.00 31.03
149.00 31.14
150.00 31.25
151.00 31.36
152.00 31.46
153.00 31.55
154.00 31.64
155.00 31.73
156.00 31.80
157.00 31.87
158.00 31.94
159.00 32.00
160.00 32.06
161.00 32.11
162.00 32.16
163.00 32.21
164.00 32.26
165.00 32.32
166.00 32.37
167.00 32.43
168.00 32.49
169.00 32.56
170.00 32.63
171.00 32.72
172.00 32.81
173.00 32.92
174.00 33.03
175.00 33.16
176.00 33.30
177.00 33.46
178.00 33.63
179.00 33.82
180.00 34.03
181.00 34.26
182.00 34.50
183.00 34.77
184.00 35.06
185.00 35.37
186.00 35.71
187.00 36.08
188.00 36.47
189.00 36.90
190.00 37.35
191.00 37.85
192.00 38.37
193.00 38.95
194.00 39.57
195.00 40.23
196.00 40.94
197.00 41.71
198.00 42.55
199.00 43.42
200.00 44.37
201.00 45.34
202.00 46.34
203.00 47.29
204.00 48.10
205.00 48.63
206.00 48.82
207.00 48.61
208.00 48.08
209.00 47.35
210.00 46.53
211.00 45.69
212.00 44.88
213.00 44.11
214.00 43.38
215.00 42.71
216.00 42.09
217.00 41.51
218.00 40.97
219.00 40.47
220.00 40.00
221.00 39.56
222.00 39.14
223.00 38.73
224.00 38.34
225.00 37.96
226.00 37.59
227.00 37.24
228.00 36.87
229.00 36.52
230.00 36.15
231.00 35.79
232.00 35.42
233.00 35.05
234.00 34.67
235.00 34.28
236.00 33.89
237.00 33.48
238.00 33.07
239.00 32.65
240.00 32.23
241.00 31.80
242.00 31.36
243.00 30.91
244.00 30.46
245.00 30.01
246.00 29.56
247.00 29.11
248.00 28.65
249.00 28.20
250.00 27.75
251.00 27.30
252.00 26.85
253.00 26.41
254.00 25.97
255.00 25.53
256.00 25.10
257.00 24.67
258.00 24.25
259.00 23.83
260.00 23.42
261.00 23.01
262.00 22.61
263.00 22.22
264.00 21.83
265.00 21.45
266.00 21.07
267.00 20.70
268.00 20.33
269.00 19.97
270.00 19.61
271.00 19.26
272.00 18.91
273.00 18.57
274.00 18.23
275.00 17.89
276.00 17.56
277.00 17.23
278.00 16.90
279.00 16.58
280.00 16.26
281.00 15.94
282.00 15.62
283.00 15.30
284.00 14.99
285.00 14.67
286.00 14.36
287.00 14.05
288.00 13.74
289.00 13.43
290.00 13.13
291.00 12.82
292.00 12.51
293.00 12.20
294.00 11.90
295.00 11.60
296.00 11.29
297.00 10.99
298.00 10.69
299.00 10.39
300.00 10.09
301.00 9.79
302.00 9.50
303.00 9.20
304.00 8.92
305.00 8.63
306.00 8.34
307.00 8.06
308.00 7.78
309.00 7.50
310.00 7.23
311.00 6.96
312.00 6.69
313.00 6.43
314.00 6.17
315.00 5.91
316.00 5.66
317.00 5.42
318.00 5.18
319.00 4.94
320.00 4.71
321.00 4.48
322.00 4.26
323.00 4.05
324.00 3.83
325.00 3.63
326.00 3.43
327.00 3.23
328.00 3.04
329.00 2.86
330.00 2.68
331.00 2.51
332.00 2.34
333.00 2.18
334.00 2.02
335.00 1.87
336.00 1.73
337.00 1.59
338.00 1.45
339.00 1.33
340.00 1.21
341.00 1.09
342.00 0.98
343.00 0.88
344.00 0.78
345.00 0.68
346.00 0.60
347.00 0.52
348.00 0.44
349.00 0.37
350.00 0.31
351.00 0.25
352.00 0.20
353.00 0.16
354.00 0.11
355.00 0.08
356.00 0.05
357.00 0.03
358.00 0.01
359.00 0.00
VERTICAL 360
0.00 7.27
1.00 4.91
2.00 3.11
3.00 1.77
4.00 0.82
5.00 0.24
6.00 0.00
7.00 0.09
8.00 0.52
9.00 1.30
10.00 2.44
11.00 4.01
12.00 6.06
13.00 8.75
14.00 12.33
15.00 17.36
16.00 25.67
17.00 38.62
18.00 27.62
19.00 25.77
20.00 27.27
21.00 32.05
22.00 32.14
23.00 25.51
24.00 21.55
25.00 19.25
26.00 18.00
27.00 17.56
28.00 17.80
29.00 18.68
30.00 20.20
31.00 22.45
32.00 25.64
33.00 29.90
34.00 33.07
35.00 31.54
36.00 29.76
37.00 29.51
38.00 30.84
39.00 33.22
40.00 32.80
41.00 28.93
42.00 25.64
43.00 23.37
44.00 21.82
45.00 20.70
46.00 19.90
47.00 19.41
48.00 19.29
49.00 19.60
50.00 20.37
51.00 21.65
52.00 23.46
53.00 25.75
54.00 28.45
55.00 31.62
56.00 35.97
57.00 44.46
58.00 47.99
59.00 37.95
60.00 33.94
61.00 31.73
62.00 30.40
63.00 29.55
64.00 28.97
65.00 28.65
66.00 28.71
67.00 29.32
68.00 30.63
69.00 32.55
70.00 34.21
71.00 34.06
72.00 32.74
73.00 31.70
74.00 31.44
75.00 32.21
76.00 34.31
77.00 37.14
78.00 35.92
79.00 32.51
80.00 30.51
81.00 30.05
82.00 30.93
83.00 33.17
84.00 36.02
85.00 35.00
86.00 31.59
87.00 29.47
88.00 28.82
89.00 29.30
90.00 30.36
91.00 31.32
92.00 31.74
93.00 31.51
94.00 30.70
95.00 29.91
96.00 29.76
97.00 30.43
98.00 31.63
99.00 32.70
100.00 33.27
101.00 33.73
102.00 34.54
103.00 35.98
104.00 38.33
105.00 41.65
106.00 44.76
107.00 46.10
108.00 47.52
109.00 50.28
110.00 51.90
111.00 48.75
112.00 44.11
113.00 40.55
114.00 38.48
115.00 37.73
116.00 37.93
117.00 38.64
118.00 39.42
119.00 39.82
120.00 39.47
121.00 38.77
122.00 38.50
123.00 39.05
124.00 40.31
125.00 41.68
126.00 42.06
127.00 40.98
128.00 39.23
129.00 37.71
130.00 36.77
131.00 36.44
132.00 36.61
133.00 37.10
134.00 37.73
135.00 38.29
136.00 38.69
137.00 39.01
138.00 39.57
139.00 40.77
140.00 43.03
141.00 46.27
142.00 46.75
143.00 43.31
144.00 40.27
145.00 38.05
146.00 36.35
147.00 35.05
148.00 34.16
149.00 33.65
150.00 33.37
151.00 33.16
152.00 32.99
153.00 33.01
154.00 33.40
155.00 34.21
156.00 35.33
157.00 36.51
158.00 37.63
159.00 38.78
160.00 40.42
161.00 43.56
162.00 50.89
163.00 50.01
164.00 42.61
165.00 39.71
166.00 39.24
167.00 40.99
168.00 46.20
169.00 56.86
170.00 43.88
171.00 38.88
172.00 36.21
173.00 34.73
174.00 34.14
175.00 33.78
176.00 34.16
177.00 35.23
178.00 36.79
179.00 38.43
180.00 39.60
181.00 39.89
182.00 39.70
183.00 39.11
184.00 38.48
185.00 37.93
186.00 37.38
187.00 36.77
188.00 36.12
189.00 35.52
190.00 35.12
191.00 35.05
192.00 35.33
193.00 35.85
194.00 36.38
195.00 36.74
196.00 36.88
197.00 36.91
198.00 36.96
199.00 37.19
200.00 37.65
201.00 38.22
202.00 38.56
203.00 38.29
204.00 37.59
205.00 37.02
206.00 37.13
207.00 38.37
208.00 41.31
209.00 46.66
210.00 47.68
211.00 42.78
212.00 39.97
213.00 38.33
214.00 36.96
215.00 35.53
216.00 34.11
217.00 33.04
218.00 32.59
219.00 32.90
220.00 34.00
221.00 35.74
222.00 37.74
223.00 39.52
224.00 40.47
225.00 40.10
226.00 39.03
227.00 38.12
228.00 37.50
229.00 36.79
230.00 35.61
231.00 33.98
232.00 32.22
233.00 30.64
234.00 29.47
235.00 28.83
236.00 28.72
237.00 29.06
238.00 29.68
239.00 30.42
240.00 31.18
241.00 31.75
242.00 31.76
243.00 31.24
244.00 30.84
245.00 30.97
246.00 31.57
247.00 32.17
248.00 32.34
249.00 32.02
250.00 31.43
251.00 30.90
252.00 30.84
253.00 31.47
254.00 32.70
255.00 33.84
256.00 33.65
257.00 31.96
258.00 30.06
259.00 28.88
260.00 28.74
261.00 29.77
262.00 31.93
263.00 34.49
264.00 35.05
265.00 33.31
266.00 31.57
267.00 30.65
268.00 30.66
269.00 31.60
270.00 33.32
271.00 34.98
272.00 34.77
273.00 33.10
274.00 31.87
275.00 31.70
276.00 32.54
277.00 33.81
278.00 34.27
279.00 33.43
280.00 32.14
281.00 31.00
282.00 30.19
283.00 29.73
284.00 29.45
285.00 29.18
286.00 28.89
287.00 28.70
288.00 28.73
289.00 29.02
290.00 29.60
291.00 30.49
292.00 31.72
293.00 33.35
294.00 35.44
295.00 37.99
296.00 40.79
297.00 43.32
298.00 44.58
299.00 43.62
300.00 41.79
301.00 40.28
302.00 39.05
303.00 38.06
304.00 37.72
305.00 38.54
306.00 40.56
307.00 40.81
308.00 36.50
309.00 32.19
310.00 28.90
311.00 26.40
312.00 24.44
313.00 22.85
314.00 21.51
315.00 20.41
316.00 19.55
317.00 18.99
318.00 18.79
319.00 19.00
320.00 19.67
321.00 20.82
322.00 22.47
323.00 24.66
324.00 27.57
325.00 31.72
326.00 38.73
327.00 41.15
328.00 34.18
329.00 30.86
330.00 29.50
331.00 29.51
332.00 30.68
333.00 32.97
334.00 36.44
335.00 41.35
336.00 45.62
337.00 41.26
338.00 36.17
339.00 32.16
340.00 28.83
341.00 26.00
342.00 23.66
343.00 21.88
344.00 20.73
345.00 20.25
346.00 20.50
347.00 21.59
348.00 23.75
349.00 27.64
350.00 35.05
351.00 34.50
352.00 28.30
353.00 25.88
354.00 26.21
355.00 31.24
356.00 33.87
357.00 20.82
358.00 14.57
359.00 10.37
