NAME ATR4518R7_2140_X_CO_M45_10T_yyR
FREQUENCY 2140
GAIN 14.88 dBd
TILT	ELECTRICAL
COMMENT DATE 05.08.2013 -45 degrees polarized system Lever position 10T deg
HORIZONTAL 360
0.00 0.00
1.00 0.00
2.00 0.00
3.00 0.01
4.00 0.03
5.00 0.06
6.00 0.10
7.00 0.14
8.00 0.19
9.00 0.25
10.00 0.31
11.00 0.38
12.00 0.46
13.00 0.55
14.00 0.64
15.00 0.75
16.00 0.86
17.00 0.98
18.00 1.10
19.00 1.24
20.00 1.38
21.00 1.54
22.00 1.70
23.00 1.88
24.00 2.06
25.00 2.26
26.00 2.47
27.00 2.69
28.00 2.92
29.00 3.17
30.00 3.42
31.00 3.70
32.00 3.98
33.00 4.29
34.00 4.61
35.00 4.94
36.00 5.29
37.00 5.66
38.00 6.04
39.00 6.44
40.00 6.86
41.00 7.29
42.00 7.74
43.00 8.21
44.00 8.70
45.00 9.20
46.00 9.71
47.00 10.24
48.00 10.78
49.00 11.34
50.00 11.90
51.00 12.47
52.00 13.05
53.00 13.63
54.00 14.21
55.00 14.79
56.00 15.37
57.00 15.94
58.00 16.51
59.00 17.07
60.00 17.63
61.00 18.17
62.00 18.72
63.00 19.25
64.00 19.79
65.00 20.32
66.00 20.86
67.00 21.40
68.00 21.94
69.00 22.49
70.00 23.05
71.00 23.63
72.00 24.21
73.00 24.81
74.00 25.41
75.00 26.02
76.00 26.63
77.00 27.24
78.00 27.84
79.00 28.41
80.00 28.95
81.00 29.44
82.00 29.89
83.00 30.27
84.00 30.60
85.00 30.86
86.00 31.07
87.00 31.23
88.00 31.37
89.00 31.48
90.00 31.59
91.00 31.69
92.00 31.81
93.00 31.95
94.00 32.11
95.00 32.30
96.00 32.52
97.00 32.77
98.00 33.03
99.00 33.33
100.00 33.62
101.00 33.92
102.00 34.19
103.00 34.43
104.00 34.62
105.00 34.74
106.00 34.78
107.00 34.75
108.00 34.66
109.00 34.52
110.00 34.34
111.00 34.16
112.00 33.99
113.00 33.85
114.00 33.75
115.00 33.70
116.00 33.73
117.00 33.83
118.00 34.02
119.00 34.31
120.00 34.70
121.00 35.23
122.00 35.91
123.00 36.76
124.00 37.82
125.00 39.15
126.00 40.85
127.00 43.07
128.00 46.13
129.00 50.61
130.00 55.63
131.00 51.94
132.00 47.24
133.00 44.11
134.00 41.92
135.00 40.32
136.00 39.14
137.00 38.26
138.00 37.64
139.00 37.24
140.00 37.05
141.00 37.05
142.00 37.26
143.00 37.67
144.00 38.33
145.00 39.27
146.00 40.58
147.00 42.41
148.00 45.05
149.00 49.34
150.00 59.24
151.00 57.37
152.00 48.29
153.00 43.92
154.00 41.05
155.00 38.94
156.00 37.32
157.00 36.04
158.00 35.01
159.00 34.19
160.00 33.55
161.00 33.05
162.00 32.70
163.00 32.47
164.00 32.36
165.00 32.36
166.00 32.47
167.00 32.70
168.00 33.04
169.00 33.49
170.00 34.05
171.00 34.72
172.00 35.48
173.00 36.31
174.00 37.11
175.00 37.78
176.00 38.15
177.00 38.11
178.00 37.65
179.00 36.89
180.00 35.97
181.00 35.03
182.00 34.14
183.00 33.32
184.00 32.59
185.00 31.95
186.00 31.40
187.00 30.92
188.00 30.53
189.00 30.20
190.00 29.93
191.00 29.73
192.00 29.58
193.00 29.47
194.00 29.41
195.00 29.39
196.00 29.40
197.00 29.43
198.00 29.49
199.00 29.57
200.00 29.66
201.00 29.77
202.00 29.87
203.00 29.99
204.00 30.10
205.00 30.21
206.00 30.32
207.00 30.43
208.00 30.54
209.00 30.66
210.00 30.80
211.00 30.95
212.00 31.12
213.00 31.32
214.00 31.55
215.00 31.83
216.00 32.16
217.00 32.54
218.00 33.00
219.00 33.55
220.00 34.19
221.00 34.96
222.00 35.88
223.00 37.01
224.00 38.41
225.00 40.20
226.00 42.60
227.00 46.16
228.00 52.68
229.00 67.25
230.00 49.93
231.00 44.36
232.00 40.94
233.00 38.45
234.00 36.52
235.00 34.93
236.00 33.59
237.00 32.44
238.00 31.45
239.00 30.58
240.00 29.81
241.00 29.13
242.00 28.53
243.00 28.00
244.00 27.53
245.00 27.11
246.00 26.74
247.00 26.42
248.00 26.14
249.00 25.89
250.00 25.67
251.00 25.47
252.00 25.30
253.00 25.13
254.00 24.97
255.00 24.81
256.00 24.64
257.00 24.46
258.00 24.26
259.00 24.04
260.00 23.79
261.00 23.52
262.00 23.22
263.00 22.89
264.00 22.54
265.00 22.17
266.00 21.78
267.00 21.38
268.00 20.98
269.00 20.56
270.00 20.15
271.00 19.73
272.00 19.32
273.00 18.91
274.00 18.50
275.00 18.11
276.00 17.71
277.00 17.33
278.00 16.95
279.00 16.57
280.00 16.20
281.00 15.84
282.00 15.48
283.00 15.13
284.00 14.78
285.00 14.44
286.00 14.10
287.00 13.77
288.00 13.44
289.00 13.11
290.00 12.79
291.00 12.47
292.00 12.16
293.00 11.85
294.00 11.55
295.00 11.25
296.00 10.96
297.00 10.66
298.00 10.38
299.00 10.10
300.00 9.83
301.00 9.56
302.00 9.29
303.00 9.03
304.00 8.78
305.00 8.53
306.00 8.29
307.00 8.06
308.00 7.82
309.00 7.59
310.00 7.37
311.00 7.15
312.00 6.93
313.00 6.71
314.00 6.50
315.00 6.29
316.00 6.09
317.00 5.88
318.00 5.68
319.00 5.48
320.00 5.28
321.00 5.08
322.00 4.88
323.00 4.68
324.00 4.48
325.00 4.29
326.00 4.09
327.00 3.90
328.00 3.71
329.00 3.52
330.00 3.33
331.00 3.14
332.00 2.96
333.00 2.78
334.00 2.60
335.00 2.42
336.00 2.25
337.00 2.08
338.00 1.92
339.00 1.77
340.00 1.61
341.00 1.47
342.00 1.33
343.00 1.19
344.00 1.06
345.00 0.94
346.00 0.83
347.00 0.72
348.00 0.62
349.00 0.53
350.00 0.44
351.00 0.36
352.00 0.29
353.00 0.23
354.00 0.17
355.00 0.12
356.00 0.08
357.00 0.05
358.00 0.03
359.00 0.01
VERTICAL 360
0.00 20.00
1.00 20.58
2.00 19.53
3.00 16.60
4.00 13.06
5.00 9.53
6.00 6.33
7.00 3.69
8.00 1.74
9.00 0.50
10.00 0.00
11.00 0.28
12.00 1.47
13.00 3.81
14.00 7.89
15.00 15.72
16.00 25.11
17.00 15.39
18.00 12.90
19.00 13.13
20.00 15.30
21.00 19.03
22.00 20.07
23.00 16.99
24.00 15.31
25.00 15.88
26.00 19.09
27.00 28.33
28.00 31.57
29.00 21.90
30.00 19.14
31.00 18.74
32.00 20.33
33.00 24.98
34.00 33.03
35.00 25.10
36.00 20.57
37.00 19.01
38.00 19.05
39.00 19.98
40.00 21.15
41.00 22.00
42.00 22.28
43.00 21.92
44.00 21.08
45.00 20.20
46.00 19.65
47.00 19.66
48.00 20.35
49.00 21.78
50.00 23.91
51.00 26.56
52.00 29.62
53.00 33.41
54.00 37.27
55.00 37.02
56.00 35.24
57.00 35.08
58.00 36.66
59.00 39.95
60.00 44.32
61.00 45.84
62.00 44.84
63.00 44.21
64.00 43.47
65.00 42.38
66.00 41.06
67.00 40.07
68.00 39.68
69.00 38.97
70.00 37.15
71.00 35.14
72.00 33.69
73.00 32.74
74.00 31.86
75.00 30.77
76.00 29.56
77.00 28.50
78.00 27.72
79.00 27.26
80.00 26.96
81.00 26.62
82.00 26.18
83.00 25.79
84.00 25.53
85.00 25.50
86.00 25.93
87.00 27.09
88.00 28.91
89.00 30.49
90.00 30.46
91.00 29.05
92.00 27.33
93.00 26.00
94.00 25.35
95.00 25.36
96.00 25.81
97.00 26.37
98.00 26.83
99.00 27.19
100.00 27.70
101.00 28.62
102.00 30.03
103.00 31.76
104.00 33.45
105.00 34.68
106.00 35.21
107.00 35.22
108.00 35.16
109.00 35.44
110.00 36.21
111.00 37.45
112.00 39.29
113.00 42.11
114.00 45.54
115.00 46.63
116.00 45.16
117.00 43.33
118.00 41.29
119.00 39.48
120.00 38.21
121.00 37.34
122.00 36.68
123.00 36.28
124.00 36.21
125.00 36.35
126.00 36.46
127.00 36.88
128.00 38.56
129.00 42.95
130.00 53.10
131.00 46.04
132.00 39.73
133.00 36.63
134.00 35.19
135.00 35.13
136.00 36.38
137.00 38.74
138.00 41.64
139.00 43.80
140.00 44.91
141.00 46.62
142.00 51.59
143.00 58.06
144.00 46.93
145.00 43.16
146.00 43.59
147.00 49.38
148.00 53.08
149.00 45.36
150.00 44.56
151.00 46.65
152.00 43.84
153.00 39.63
154.00 37.20
155.00 35.61
156.00 34.67
157.00 34.97
158.00 36.60
159.00 36.79
160.00 34.32
161.00 32.86
162.00 33.37
163.00 35.75
164.00 39.40
165.00 41.65
166.00 39.86
167.00 37.43
168.00 35.94
169.00 35.25
170.00 35.03
171.00 35.23
172.00 35.67
173.00 36.08
174.00 36.22
175.00 35.88
176.00 34.91
177.00 33.70
178.00 32.96
179.00 33.22
180.00 34.42
181.00 35.70
182.00 36.32
183.00 36.95
184.00 38.23
185.00 40.15
186.00 41.39
187.00 40.24
188.00 39.50
189.00 41.58
190.00 49.43
191.00 56.50
192.00 43.46
193.00 37.70
194.00 34.06
195.00 32.25
196.00 32.02
197.00 33.05
198.00 34.71
199.00 35.97
200.00 36.93
201.00 37.69
202.00 36.44
203.00 34.88
204.00 35.41
205.00 37.86
206.00 37.98
207.00 35.93
208.00 35.51
209.00 36.51
210.00 38.17
211.00 39.77
212.00 39.23
213.00 37.66
214.00 36.95
215.00 35.58
216.00 33.51
217.00 32.77
218.00 34.24
219.00 38.26
220.00 41.80
221.00 39.28
222.00 37.69
223.00 38.40
224.00 41.34
225.00 47.57
226.00 58.02
227.00 55.10
228.00 52.65
229.00 44.82
230.00 39.29
231.00 36.23
232.00 34.53
233.00 33.53
234.00 33.16
235.00 33.72
236.00 35.44
237.00 37.92
238.00 39.26
239.00 37.90
240.00 35.48
241.00 33.54
242.00 32.70
243.00 33.14
244.00 34.71
245.00 36.61
246.00 37.61
247.00 37.99
248.00 39.19
249.00 42.42
250.00 50.49
251.00 49.85
252.00 40.96
253.00 36.55
254.00 33.91
255.00 32.37
256.00 31.53
257.00 30.97
258.00 30.41
259.00 29.79
260.00 29.27
261.00 28.92
262.00 28.68
263.00 28.36
264.00 27.84
265.00 27.13
266.00 26.41
267.00 25.83
268.00 25.50
269.00 25.36
270.00 25.29
271.00 25.03
272.00 24.33
273.00 23.26
274.00 22.21
275.00 21.53
276.00 21.29
277.00 21.31
278.00 21.32
279.00 21.14
280.00 20.70
281.00 20.09
282.00 19.43
283.00 18.84
284.00 18.38
285.00 18.01
286.00 17.70
287.00 17.41
288.00 17.11
289.00 16.85
290.00 16.66
291.00 16.59
292.00 16.68
293.00 16.88
294.00 17.17
295.00 17.50
296.00 17.91
297.00 18.49
298.00 19.39
299.00 20.72
300.00 22.54
301.00 24.82
302.00 27.32
303.00 29.38
304.00 29.84
305.00 28.77
306.00 27.60
307.00 27.20
308.00 27.45
309.00 26.97
310.00 24.82
311.00 22.40
312.00 20.64
313.00 19.60
314.00 19.19
315.00 19.41
316.00 20.62
317.00 23.63
318.00 31.66
319.00 37.66
320.00 25.80
321.00 22.46
322.00 21.72
323.00 22.95
324.00 26.68
325.00 31.02
326.00 24.55
327.00 19.42
328.00 16.66
329.00 15.53
330.00 15.91
331.00 17.89
332.00 20.18
333.00 18.94
334.00 16.43
335.00 14.30
336.00 12.98
337.00 12.65
338.00 13.31
339.00 14.99
340.00 17.88
341.00 22.68
342.00 30.92
343.00 25.58
344.00 20.68
345.00 19.10
346.00 18.52
347.00 18.28
348.00 18.47
349.00 19.21
350.00 20.15
351.00 21.00
352.00 22.01
353.00 23.74
354.00 26.47
355.00 28.42
356.00 25.77
357.00 22.26
358.00 20.20
359.00 19.56
