NAME ATR4518R7_2350_X_CO_M45_04T_yL
FREQUENCY 2350
GAIN 15.62 dBd
TILT	ELECTRICAL
COMMENT DATE 05.08.2013 -45 degrees polarized system Lever position 04T deg
HORIZONTAL 360
0.00 0.00
1.00 0.02
2.00 0.04
3.00 0.07
4.00 0.12
5.00 0.18
6.00 0.25
7.00 0.34
8.00 0.44
9.00 0.54
10.00 0.66
11.00 0.79
12.00 0.92
13.00 1.07
14.00 1.21
15.00 1.36
16.00 1.51
17.00 1.67
18.00 1.82
19.00 1.97
20.00 2.12
21.00 2.26
22.00 2.41
23.00 2.55
24.00 2.70
25.00 2.84
26.00 2.99
27.00 3.14
28.00 3.30
29.00 3.46
30.00 3.63
31.00 3.81
32.00 4.00
33.00 4.21
34.00 4.42
35.00 4.64
36.00 4.88
37.00 5.13
38.00 5.39
39.00 5.66
40.00 5.94
41.00 6.23
42.00 6.52
43.00 6.82
44.00 7.13
45.00 7.43
46.00 7.74
47.00 8.04
48.00 8.33
49.00 8.62
50.00 8.90
51.00 9.17
52.00 9.43
53.00 9.68
54.00 9.92
55.00 10.14
56.00 10.35
57.00 10.55
58.00 10.74
59.00 10.93
60.00 11.11
61.00 11.29
62.00 11.47
63.00 11.65
64.00 11.83
65.00 12.02
66.00 12.22
67.00 12.43
68.00 12.65
69.00 12.87
70.00 13.11
71.00 13.36
72.00 13.63
73.00 13.90
74.00 14.18
75.00 14.47
76.00 14.78
77.00 15.09
78.00 15.40
79.00 15.72
80.00 16.05
81.00 16.38
82.00 16.71
83.00 17.05
84.00 17.40
85.00 17.74
86.00 18.10
87.00 18.46
88.00 18.84
89.00 19.22
90.00 19.63
91.00 20.04
92.00 20.48
93.00 20.94
94.00 21.42
95.00 21.92
96.00 22.44
97.00 22.98
98.00 23.54
99.00 24.12
100.00 24.70
101.00 25.29
102.00 25.87
103.00 26.44
104.00 26.98
105.00 27.49
106.00 27.95
107.00 28.36
108.00 28.71
109.00 29.02
110.00 29.26
111.00 29.46
112.00 29.63
113.00 29.76
114.00 29.87
115.00 29.96
116.00 30.04
117.00 30.12
118.00 30.21
119.00 30.30
120.00 30.42
121.00 30.55
122.00 30.72
123.00 30.92
124.00 31.17
125.00 31.46
126.00 31.81
127.00 32.20
128.00 32.66
129.00 33.15
130.00 33.69
131.00 34.26
132.00 34.82
133.00 35.36
134.00 35.84
135.00 36.22
136.00 36.47
137.00 36.58
138.00 36.53
139.00 36.36
140.00 36.08
141.00 35.70
142.00 35.26
143.00 34.76
144.00 34.23
145.00 33.66
146.00 33.08
147.00 32.51
148.00 31.95
149.00 31.42
150.00 30.94
151.00 30.52
152.00 30.17
153.00 29.90
154.00 29.72
155.00 29.62
156.00 29.63
157.00 29.73
158.00 29.94
159.00 30.24
160.00 30.64
161.00 31.12
162.00 31.66
163.00 32.19
164.00 32.67
165.00 32.99
166.00 33.09
167.00 32.96
168.00 32.62
169.00 32.17
170.00 31.68
171.00 31.23
172.00 30.87
173.00 30.63
174.00 30.52
175.00 30.57
176.00 30.77
177.00 31.16
178.00 31.72
179.00 32.47
180.00 33.38
181.00 34.40
182.00 35.35
183.00 35.92
184.00 35.81
185.00 35.02
186.00 33.87
187.00 32.65
188.00 31.54
189.00 30.60
190.00 29.85
191.00 29.28
192.00 28.91
193.00 28.71
194.00 28.70
195.00 28.87
196.00 29.25
197.00 29.83
198.00 30.66
199.00 31.76
200.00 33.21
201.00 35.07
202.00 37.38
203.00 39.84
204.00 40.93
205.00 39.41
206.00 36.98
207.00 34.83
208.00 33.14
209.00 31.84
210.00 30.87
211.00 30.18
212.00 29.71
213.00 29.47
214.00 29.43
215.00 29.58
216.00 29.94
217.00 30.52
218.00 31.33
219.00 32.43
220.00 33.88
221.00 35.81
222.00 38.47
223.00 42.43
224.00 49.09
225.00 50.40
226.00 43.44
227.00 39.37
228.00 36.73
229.00 34.86
230.00 33.47
231.00 32.43
232.00 31.65
233.00 31.06
234.00 30.64
235.00 30.34
236.00 30.16
237.00 30.05
238.00 30.00
239.00 29.99
240.00 29.98
241.00 29.96
242.00 29.91
243.00 29.80
244.00 29.63
245.00 29.39
246.00 29.09
247.00 28.75
248.00 28.38
249.00 28.00
250.00 27.62
251.00 27.25
252.00 26.91
253.00 26.59
254.00 26.30
255.00 26.04
256.00 25.81
257.00 25.59
258.00 25.39
259.00 25.20
260.00 25.00
261.00 24.78
262.00 24.54
263.00 24.27
264.00 23.96
265.00 23.61
266.00 23.22
267.00 22.81
268.00 22.37
269.00 21.92
270.00 21.47
271.00 21.01
272.00 20.57
273.00 20.15
274.00 19.74
275.00 19.35
276.00 18.99
277.00 18.64
278.00 18.31
279.00 18.00
280.00 17.70
281.00 17.40
282.00 17.12
283.00 16.83
284.00 16.54
285.00 16.25
286.00 15.95
287.00 15.64
288.00 15.32
289.00 14.99
290.00 14.65
291.00 14.30
292.00 13.95
293.00 13.59
294.00 13.22
295.00 12.86
296.00 12.49
297.00 12.12
298.00 11.76
299.00 11.39
300.00 11.03
301.00 10.68
302.00 10.33
303.00 9.98
304.00 9.64
305.00 9.30
306.00 8.96
307.00 8.63
308.00 8.30
309.00 7.97
310.00 7.65
311.00 7.32
312.00 7.00
313.00 6.69
314.00 6.38
315.00 6.07
316.00 5.78
317.00 5.48
318.00 5.20
319.00 4.92
320.00 4.64
321.00 4.38
322.00 4.12
323.00 3.87
324.00 3.62
325.00 3.39
326.00 3.16
327.00 2.94
328.00 2.72
329.00 2.51
330.00 2.31
331.00 2.12
332.00 1.94
333.00 1.77
334.00 1.60
335.00 1.45
336.00 1.31
337.00 1.17
338.00 1.05
339.00 0.94
340.00 0.84
341.00 0.74
342.00 0.66
343.00 0.59
344.00 0.52
345.00 0.46
346.00 0.41
347.00 0.36
348.00 0.31
349.00 0.27
350.00 0.23
351.00 0.19
352.00 0.16
353.00 0.12
354.00 0.09
355.00 0.06
356.00 0.04
357.00 0.02
358.00 0.01
359.00 0.00
VERTICAL 360
0.00 10.68
1.00 5.82
2.00 2.69
3.00 0.81
4.00 0.01
5.00 0.26
6.00 1.68
7.00 4.72
8.00 10.81
9.00 35.77
10.00 13.57
11.00 9.97
12.00 10.05
13.00 12.71
14.00 17.99
15.00 20.07
16.00 16.40
17.00 14.85
18.00 15.47
19.00 18.24
20.00 21.29
21.00 18.56
22.00 16.14
23.00 16.40
24.00 19.92
25.00 32.20
26.00 25.83
27.00 19.41
28.00 17.27
29.00 17.06
30.00 18.49
31.00 21.44
32.00 23.33
33.00 21.87
34.00 21.00
35.00 21.38
36.00 21.50
37.00 20.78
38.00 20.48
39.00 21.21
40.00 22.79
41.00 24.75
42.00 27.03
43.00 30.02
44.00 31.67
45.00 28.95
46.00 26.36
47.00 25.39
48.00 26.02
49.00 28.28
50.00 32.52
51.00 40.31
52.00 52.77
53.00 40.82
54.00 36.24
55.00 32.74
56.00 29.94
57.00 28.11
58.00 27.25
59.00 27.13
60.00 27.43
61.00 27.94
62.00 28.61
63.00 29.53
64.00 30.72
65.00 32.02
66.00 33.37
67.00 34.96
68.00 37.01
69.00 39.55
70.00 42.20
71.00 44.59
72.00 47.94
73.00 52.77
74.00 51.22
75.00 51.65
76.00 61.89
77.00 52.93
78.00 48.83
79.00 48.29
80.00 46.41
81.00 44.71
82.00 45.59
83.00 49.34
84.00 49.92
85.00 46.40
86.00 46.14
87.00 49.85
88.00 48.59
89.00 43.59
90.00 42.19
91.00 43.55
92.00 46.81
93.00 50.05
94.00 51.06
95.00 50.95
96.00 51.27
97.00 49.79
98.00 46.37
99.00 43.81
100.00 42.42
101.00 42.04
102.00 42.49
103.00 42.79
104.00 42.01
105.00 41.06
106.00 40.90
107.00 41.78
108.00 43.88
109.00 47.51
110.00 51.31
111.00 49.49
112.00 47.23
113.00 47.54
114.00 50.97
115.00 57.16
116.00 52.84
117.00 48.36
118.00 45.67
119.00 43.96
120.00 43.57
121.00 45.27
122.00 50.35
123.00 57.49
124.00 49.40
125.00 42.94
126.00 38.71
127.00 36.64
128.00 36.53
129.00 37.84
130.00 39.52
131.00 41.49
132.00 46.57
133.00 52.84
134.00 42.40
135.00 38.78
136.00 37.74
137.00 37.73
138.00 38.02
139.00 38.84
140.00 40.58
141.00 41.30
142.00 39.36
143.00 38.16
144.00 38.75
145.00 39.36
146.00 38.33
147.00 38.03
148.00 39.68
149.00 42.17
150.00 43.59
151.00 45.67
152.00 48.10
153.00 46.91
154.00 44.72
155.00 41.41
156.00 38.48
157.00 37.04
158.00 36.96
159.00 37.94
160.00 39.95
161.00 43.17
162.00 46.73
163.00 47.58
164.00 49.68
165.00 76.94
166.00 47.29
167.00 41.52
168.00 38.52
169.00 36.41
170.00 35.28
171.00 34.82
172.00 33.76
173.00 32.45
174.00 32.10
175.00 32.61
176.00 33.11
177.00 33.81
178.00 35.80
179.00 39.48
180.00 43.57
181.00 44.68
182.00 43.03
183.00 42.11
184.00 41.24
185.00 38.82
186.00 37.46
187.00 38.58
188.00 41.84
189.00 42.35
190.00 39.85
191.00 38.65
192.00 38.41
193.00 38.00
194.00 37.36
195.00 37.66
196.00 39.50
197.00 42.16
198.00 43.21
199.00 42.39
200.00 41.73
201.00 41.56
202.00 40.60
203.00 39.46
204.00 39.96
205.00 41.33
206.00 39.62
207.00 36.73
208.00 34.47
209.00 32.82
210.00 32.13
211.00 32.30
212.00 32.46
213.00 32.57
214.00 33.94
215.00 38.01
216.00 46.99
217.00 47.79
218.00 43.63
219.00 40.36
220.00 37.62
221.00 36.98
222.00 38.92
223.00 43.81
224.00 44.97
225.00 41.30
226.00 40.86
227.00 44.36
228.00 52.42
229.00 45.02
230.00 42.01
231.00 42.85
232.00 44.82
233.00 44.64
234.00 47.06
235.00 64.21
236.00 42.04
237.00 36.72
238.00 34.77
239.00 34.84
240.00 36.49
241.00 38.09
242.00 35.87
243.00 32.88
244.00 31.34
245.00 31.11
246.00 31.65
247.00 32.27
248.00 32.85
249.00 33.96
250.00 36.43
251.00 41.27
252.00 51.21
253.00 44.51
254.00 37.24
255.00 32.94
256.00 30.32
257.00 28.88
258.00 28.17
259.00 27.74
260.00 27.25
261.00 26.70
262.00 26.35
263.00 26.37
264.00 26.58
265.00 26.56
266.00 25.97
267.00 24.85
268.00 23.58
269.00 22.49
270.00 21.78
271.00 21.47
272.00 21.43
273.00 21.45
274.00 21.29
275.00 20.90
276.00 20.43
277.00 20.06
278.00 19.87
279.00 19.81
280.00 19.78
281.00 19.70
282.00 19.53
283.00 19.23
284.00 18.81
285.00 18.37
286.00 18.07
287.00 18.05
288.00 18.35
289.00 18.84
290.00 19.25
291.00 19.29
292.00 19.00
293.00 18.68
294.00 18.64
295.00 19.12
296.00 20.32
297.00 22.48
298.00 25.97
299.00 31.63
300.00 39.58
301.00 32.09
302.00 26.57
303.00 23.51
304.00 22.02
305.00 21.70
306.00 22.19
307.00 23.29
308.00 25.33
309.00 29.81
310.00 37.84
311.00 28.71
312.00 24.33
313.00 23.13
314.00 24.11
315.00 26.64
316.00 28.01
317.00 26.01
318.00 23.87
319.00 22.58
320.00 22.02
321.00 22.34
322.00 24.25
323.00 30.45
324.00 34.53
325.00 23.11
326.00 19.05
327.00 17.76
328.00 18.47
329.00 20.86
330.00 24.23
331.00 26.28
332.00 26.36
333.00 26.21
334.00 25.57
335.00 23.49
336.00 21.14
337.00 19.87
338.00 20.23
339.00 22.59
340.00 27.36
341.00 27.80
342.00 22.96
343.00 20.59
344.00 20.77
345.00 24.32
346.00 41.12
347.00 26.12
348.00 20.53
349.00 18.92
350.00 19.54
351.00 21.69
352.00 23.11
353.00 22.13
354.00 21.69
355.00 22.98
356.00 25.13
357.00 28.27
358.00 40.03
359.00 18.53
