NAME ATR4518R7_1950_X_CO_P45_00T_yyR
FREQUENCY 1950
GAIN 15.46 dBd
TILT	ELECTRICAL
COMMENT DATE 05.08.2013 +45 degrees polarized system Lever position 00T deg
HORIZONTAL 360
0.00 0.14
1.00 0.10
2.00 0.07
3.00 0.04
4.00 0.02
5.00 0.01
6.00 0.00
7.00 0.00
8.00 0.01
9.00 0.03
10.00 0.06
11.00 0.09
12.00 0.14
13.00 0.20
14.00 0.26
15.00 0.34
16.00 0.42
17.00 0.52
18.00 0.63
19.00 0.75
20.00 0.88
21.00 1.02
22.00 1.18
23.00 1.34
24.00 1.52
25.00 1.71
26.00 1.91
27.00 2.12
28.00 2.34
29.00 2.57
30.00 2.81
31.00 3.06
32.00 3.32
33.00 3.59
34.00 3.87
35.00 4.15
36.00 4.44
37.00 4.74
38.00 5.04
39.00 5.35
40.00 5.66
41.00 5.98
42.00 6.30
43.00 6.63
44.00 6.96
45.00 7.29
46.00 7.62
47.00 7.96
48.00 8.30
49.00 8.64
50.00 8.98
51.00 9.33
52.00 9.68
53.00 10.03
54.00 10.39
55.00 10.74
56.00 11.10
57.00 11.47
58.00 11.83
59.00 12.20
60.00 12.57
61.00 12.94
62.00 13.31
63.00 13.69
64.00 14.07
65.00 14.44
66.00 14.81
67.00 15.19
68.00 15.56
69.00 15.93
70.00 16.31
71.00 16.67
72.00 17.04
73.00 17.41
74.00 17.78
75.00 18.15
76.00 18.52
77.00 18.90
78.00 19.28
79.00 19.66
80.00 20.05
81.00 20.44
82.00 20.85
83.00 21.26
84.00 21.67
85.00 22.10
86.00 22.53
87.00 22.97
88.00 23.42
89.00 23.87
90.00 24.33
91.00 24.79
92.00 25.26
93.00 25.73
94.00 26.21
95.00 26.69
96.00 27.17
97.00 27.67
98.00 28.18
99.00 28.70
100.00 29.25
101.00 29.82
102.00 30.43
103.00 31.08
104.00 31.78
105.00 32.55
106.00 33.40
107.00 34.36
108.00 35.43
109.00 36.66
110.00 38.08
111.00 39.78
112.00 41.81
113.00 44.33
114.00 47.39
115.00 50.31
116.00 50.28
117.00 47.59
118.00 44.91
119.00 42.82
120.00 41.19
121.00 39.92
122.00 38.92
123.00 38.13
124.00 37.52
125.00 37.05
126.00 36.72
127.00 36.48
128.00 36.35
129.00 36.29
130.00 36.29
131.00 36.34
132.00 36.42
133.00 36.50
134.00 36.56
135.00 36.58
136.00 36.54
137.00 36.42
138.00 36.23
139.00 35.97
140.00 35.66
141.00 35.30
142.00 34.95
143.00 34.60
144.00 34.27
145.00 33.98
146.00 33.73
147.00 33.53
148.00 33.38
149.00 33.28
150.00 33.24
151.00 33.25
152.00 33.32
153.00 33.42
154.00 33.58
155.00 33.77
156.00 33.99
157.00 34.24
158.00 34.50
159.00 34.76
160.00 35.02
161.00 35.27
162.00 35.50
163.00 35.71
164.00 35.88
165.00 36.03
166.00 36.15
167.00 36.25
168.00 36.32
169.00 36.37
170.00 36.39
171.00 36.38
172.00 36.35
173.00 36.26
174.00 36.14
175.00 35.97
176.00 35.75
177.00 35.49
178.00 35.21
179.00 34.91
180.00 34.60
181.00 34.31
182.00 34.04
183.00 33.81
184.00 33.62
185.00 33.49
186.00 33.42
187.00 33.42
188.00 33.50
189.00 33.66
190.00 33.91
191.00 34.25
192.00 34.70
193.00 35.27
194.00 35.95
195.00 36.75
196.00 37.69
197.00 38.72
198.00 39.80
199.00 40.79
200.00 41.48
201.00 41.63
202.00 41.20
203.00 40.36
204.00 39.37
205.00 38.38
206.00 37.50
207.00 36.74
208.00 36.12
209.00 35.64
210.00 35.29
211.00 35.08
212.00 34.99
213.00 35.04
214.00 35.22
215.00 35.54
216.00 36.01
217.00 36.65
218.00 37.47
219.00 38.50
220.00 39.78
221.00 41.31
222.00 43.01
223.00 44.53
224.00 45.02
225.00 43.99
226.00 42.15
227.00 40.23
228.00 38.51
229.00 37.03
230.00 35.77
231.00 34.69
232.00 33.76
233.00 32.96
234.00 32.28
235.00 31.68
236.00 31.17
237.00 30.73
238.00 30.34
239.00 30.00
240.00 29.71
241.00 29.45
242.00 29.22
243.00 29.02
244.00 28.83
245.00 28.65
246.00 28.48
247.00 28.32
248.00 28.15
249.00 27.99
250.00 27.83
251.00 27.66
252.00 27.49
253.00 27.32
254.00 27.14
255.00 26.97
256.00 26.79
257.00 26.62
258.00 26.44
259.00 26.27
260.00 26.09
261.00 25.92
262.00 25.74
263.00 25.57
264.00 25.39
265.00 25.21
266.00 25.02
267.00 24.83
268.00 24.63
269.00 24.43
270.00 24.21
271.00 23.99
272.00 23.75
273.00 23.50
274.00 23.24
275.00 22.97
276.00 22.68
277.00 22.38
278.00 22.07
279.00 21.75
280.00 21.41
281.00 21.07
282.00 20.71
283.00 20.35
284.00 19.98
285.00 19.60
286.00 19.22
287.00 18.84
288.00 18.46
289.00 18.07
290.00 17.69
291.00 17.31
292.00 16.93
293.00 16.55
294.00 16.18
295.00 15.81
296.00 15.45
297.00 15.09
298.00 14.73
299.00 14.38
300.00 14.03
301.00 13.68
302.00 13.33
303.00 12.99
304.00 12.65
305.00 12.32
306.00 11.98
307.00 11.64
308.00 11.31
309.00 10.97
310.00 10.64
311.00 10.31
312.00 9.98
313.00 9.65
314.00 9.32
315.00 8.99
316.00 8.67
317.00 8.34
318.00 8.02
319.00 7.70
320.00 7.39
321.00 7.08
322.00 6.77
323.00 6.46
324.00 6.16
325.00 5.87
326.00 5.58
327.00 5.30
328.00 5.02
329.00 4.76
330.00 4.49
331.00 4.24
332.00 3.99
333.00 3.75
334.00 3.52
335.00 3.30
336.00 3.08
337.00 2.88
338.00 2.68
339.00 2.49
340.00 2.30
341.00 2.13
342.00 1.96
343.00 1.80
344.00 1.65
345.00 1.51
346.00 1.37
347.00 1.24
348.00 1.12
349.00 1.00
350.00 0.89
351.00 0.79
352.00 0.69
353.00 0.60
354.00 0.52
355.00 0.44
356.00 0.37
357.00 0.30
358.00 0.24
359.00 0.19
VERTICAL 360
0.00 0.01
1.00 0.18
2.00 1.14
3.00 2.96
4.00 5.86
5.00 10.36
6.00 18.28
7.00 26.39
8.00 19.36
9.00 17.38
10.00 18.86
11.00 24.11
12.00 26.17
13.00 19.66
14.00 16.41
15.00 15.56
16.00 16.54
17.00 19.34
18.00 23.99
19.00 27.29
20.00 25.61
21.00 24.23
22.00 24.56
23.00 26.85
24.00 32.41
25.00 31.60
26.00 24.17
27.00 20.14
28.00 18.18
29.00 17.68
30.00 18.33
31.00 19.84
32.00 21.72
33.00 23.19
34.00 23.46
35.00 22.39
36.00 20.78
37.00 19.40
38.00 18.52
39.00 18.11
40.00 18.12
41.00 18.62
42.00 19.77
43.00 21.78
44.00 24.89
45.00 29.23
46.00 32.37
47.00 30.32
48.00 27.55
49.00 26.02
50.00 25.71
51.00 26.70
52.00 29.30
53.00 33.82
54.00 37.12
55.00 34.76
56.00 32.78
57.00 32.40
58.00 32.82
59.00 33.01
60.00 32.42
61.00 31.48
62.00 30.70
63.00 30.24
64.00 30.10
65.00 30.18
66.00 30.29
67.00 30.28
68.00 30.14
69.00 29.91
70.00 29.64
71.00 29.37
72.00 29.10
73.00 28.84
74.00 28.54
75.00 28.20
76.00 27.82
77.00 27.36
78.00 26.81
79.00 26.19
80.00 25.60
81.00 25.21
82.00 25.21
83.00 25.62
84.00 26.29
85.00 26.95
86.00 27.45
87.00 27.76
88.00 27.94
89.00 28.01
90.00 27.57
91.00 26.69
92.00 26.16
93.00 26.44
94.00 27.57
95.00 29.37
96.00 31.57
97.00 33.67
98.00 35.09
99.00 36.02
100.00 37.05
101.00 37.64
102.00 37.47
103.00 37.72
104.00 38.96
105.00 40.38
106.00 41.09
107.00 41.01
108.00 40.28
109.00 39.91
110.00 40.98
111.00 43.75
112.00 46.97
113.00 47.51
114.00 45.73
115.00 44.58
116.00 45.26
117.00 46.33
118.00 44.31
119.00 41.61
120.00 40.02
121.00 39.12
122.00 38.45
123.00 37.79
124.00 36.86
125.00 35.56
126.00 34.22
127.00 33.33
128.00 33.15
129.00 33.75
130.00 34.95
131.00 36.34
132.00 37.56
133.00 38.70
134.00 40.37
135.00 43.12
136.00 46.39
137.00 47.62
138.00 46.81
139.00 44.31
140.00 41.15
141.00 39.21
142.00 38.90
143.00 39.80
144.00 40.93
145.00 41.65
146.00 41.58
147.00 39.77
148.00 37.48
149.00 36.38
150.00 36.87
151.00 38.79
152.00 41.60
153.00 44.16
154.00 45.16
155.00 44.73
156.00 42.75
157.00 39.61
158.00 37.40
159.00 37.35
160.00 40.66
161.00 48.07
162.00 41.24
163.00 36.55
164.00 35.79
165.00 38.32
166.00 47.89
167.00 48.86
168.00 39.02
169.00 36.31
170.00 35.89
171.00 36.97
172.00 38.89
173.00 39.17
174.00 36.68
175.00 34.11
176.00 32.50
177.00 31.84
178.00 32.00
179.00 32.81
180.00 34.19
181.00 36.05
182.00 38.31
183.00 40.67
184.00 42.05
185.00 41.24
186.00 40.04
187.00 39.92
188.00 40.53
189.00 40.48
190.00 40.00
191.00 40.10
192.00 40.55
193.00 40.16
194.00 38.40
195.00 36.16
196.00 34.54
197.00 34.06
198.00 34.91
199.00 37.22
200.00 40.43
201.00 41.73
202.00 41.61
203.00 43.17
204.00 42.92
205.00 39.30
206.00 37.68
207.00 38.58
208.00 39.78
209.00 38.49
210.00 37.43
211.00 38.37
212.00 41.07
213.00 43.51
214.00 42.28
215.00 38.96
216.00 36.46
217.00 35.55
218.00 36.24
219.00 38.25
220.00 40.67
221.00 41.86
222.00 41.07
223.00 38.88
224.00 36.53
225.00 34.94
226.00 34.46
227.00 35.23
228.00 37.44
229.00 41.36
230.00 47.19
231.00 51.82
232.00 48.27
233.00 43.34
234.00 40.17
235.00 38.74
236.00 38.82
237.00 40.36
238.00 43.55
239.00 48.43
240.00 49.44
241.00 46.25
242.00 44.78
243.00 44.93
244.00 45.64
245.00 46.06
246.00 46.11
247.00 46.22
248.00 47.02
249.00 48.48
250.00 48.46
251.00 46.92
252.00 46.11
253.00 45.27
254.00 43.28
255.00 41.55
256.00 41.01
257.00 41.32
258.00 41.65
259.00 41.12
260.00 39.66
261.00 38.36
262.00 38.28
263.00 39.98
264.00 43.52
265.00 47.33
266.00 48.24
267.00 45.86
268.00 42.17
269.00 39.69
270.00 38.79
271.00 38.91
272.00 39.05
273.00 38.21
274.00 36.43
275.00 34.51
276.00 33.11
277.00 32.43
278.00 32.33
279.00 32.55
280.00 32.83
281.00 32.92
282.00 32.55
283.00 31.71
284.00 30.80
285.00 30.06
286.00 29.35
287.00 28.52
288.00 27.63
289.00 26.94
290.00 26.69
291.00 27.04
292.00 28.08
293.00 29.88
294.00 32.63
295.00 37.16
296.00 44.68
297.00 39.23
298.00 32.64
299.00 28.87
300.00 26.53
301.00 25.08
302.00 24.26
303.00 23.90
304.00 23.92
305.00 24.29
306.00 25.03
307.00 26.02
308.00 26.74
309.00 26.50
310.00 25.39
311.00 24.08
312.00 23.05
313.00 22.44
314.00 22.18
315.00 22.11
316.00 22.02
317.00 21.75
318.00 21.28
319.00 20.66
320.00 19.98
321.00 19.34
322.00 18.76
323.00 18.24
324.00 17.78
325.00 17.48
326.00 17.56
327.00 18.24
328.00 19.79
329.00 22.62
330.00 27.47
331.00 31.31
332.00 26.87
333.00 23.15
334.00 21.51
335.00 21.59
336.00 23.77
337.00 30.41
338.00 34.30
339.00 24.58
340.00 21.16
341.00 20.68
342.00 22.31
343.00 24.28
344.00 22.84
345.00 20.31
346.00 19.21
347.00 19.82
348.00 22.45
349.00 27.05
350.00 25.71
351.00 21.26
352.00 19.47
353.00 19.59
354.00 17.64
355.00 12.32
356.00 7.62
357.00 4.26
358.00 1.98
359.00 0.60
