NAME ATR4518R7_0947_X_CO_M45_07T
FREQUENCY 0947
GAIN 15.23 dBd
TILT	ELECTRICAL
COMMENT DATE 05.08.2013 -45 degrees polarized system Lever position 07T deg
HORIZONTAL 360
0.00 0.02
1.00 0.00
2.00 0.00
3.00 0.00
4.00 0.01
5.00 0.03
6.00 0.05
7.00 0.08
8.00 0.12
9.00 0.16
10.00 0.21
11.00 0.27
12.00 0.34
13.00 0.41
14.00 0.49
15.00 0.58
16.00 0.67
17.00 0.77
18.00 0.88
19.00 1.00
20.00 1.12
21.00 1.25
22.00 1.39
23.00 1.54
24.00 1.69
25.00 1.85
26.00 2.02
27.00 2.20
28.00 2.38
29.00 2.57
30.00 2.77
31.00 2.98
32.00 3.19
33.00 3.41
34.00 3.64
35.00 3.88
36.00 4.12
37.00 4.37
38.00 4.63
39.00 4.90
40.00 5.17
41.00 5.46
42.00 5.75
43.00 6.05
44.00 6.35
45.00 6.67
46.00 6.99
47.00 7.32
48.00 7.66
49.00 8.01
50.00 8.37
51.00 8.74
52.00 9.11
53.00 9.50
54.00 9.90
55.00 10.30
56.00 10.72
57.00 11.15
58.00 11.58
59.00 12.03
60.00 12.50
61.00 12.96
62.00 13.45
63.00 13.95
64.00 14.47
65.00 14.99
66.00 15.54
67.00 16.10
68.00 16.67
69.00 17.27
70.00 17.88
71.00 18.51
72.00 19.16
73.00 19.82
74.00 20.51
75.00 21.21
76.00 21.94
77.00 22.68
78.00 23.43
79.00 24.19
80.00 24.95
81.00 25.71
82.00 26.45
83.00 27.16
84.00 27.82
85.00 28.42
86.00 28.95
87.00 29.37
88.00 29.71
89.00 29.95
90.00 30.10
91.00 30.18
92.00 30.21
93.00 30.20
94.00 30.17
95.00 30.13
96.00 30.10
97.00 30.08
98.00 30.08
99.00 30.10
100.00 30.15
101.00 30.22
102.00 30.32
103.00 30.46
104.00 30.62
105.00 30.82
106.00 31.05
107.00 31.31
108.00 31.60
109.00 31.93
110.00 32.29
111.00 32.69
112.00 33.11
113.00 33.57
114.00 34.07
115.00 34.60
116.00 35.17
117.00 35.76
118.00 36.39
119.00 37.05
120.00 37.74
121.00 38.45
122.00 39.20
123.00 39.95
124.00 40.72
125.00 41.47
126.00 42.21
127.00 42.94
128.00 43.59
129.00 44.18
130.00 44.64
131.00 44.99
132.00 45.18
133.00 45.21
134.00 45.09
135.00 44.82
136.00 44.43
137.00 43.95
138.00 43.37
139.00 42.75
140.00 42.08
141.00 41.40
142.00 40.70
143.00 40.01
144.00 39.32
145.00 38.65
146.00 38.00
147.00 37.36
148.00 36.76
149.00 36.18
150.00 35.62
151.00 35.09
152.00 34.59
153.00 34.11
154.00 33.66
155.00 33.24
156.00 32.84
157.00 32.47
158.00 32.12
159.00 31.80
160.00 31.50
161.00 31.22
162.00 30.96
163.00 30.73
164.00 30.51
165.00 30.32
166.00 30.15
167.00 30.00
168.00 29.86
169.00 29.75
170.00 29.65
171.00 29.57
172.00 29.51
173.00 29.47
174.00 29.44
175.00 29.44
176.00 29.44
177.00 29.47
178.00 29.51
179.00 29.56
180.00 29.63
181.00 29.72
182.00 29.82
183.00 29.94
184.00 30.08
185.00 30.23
186.00 30.39
187.00 30.58
188.00 30.77
189.00 30.99
190.00 31.22
191.00 31.47
192.00 31.73
193.00 32.02
194.00 32.32
195.00 32.64
196.00 32.98
197.00 33.33
198.00 33.72
199.00 34.12
200.00 34.54
201.00 34.99
202.00 35.47
203.00 35.96
204.00 36.48
205.00 37.02
206.00 37.59
207.00 38.16
208.00 38.76
209.00 39.33
210.00 39.89
211.00 40.39
212.00 40.81
213.00 41.11
214.00 41.26
215.00 41.23
216.00 41.04
217.00 40.69
218.00 40.22
219.00 39.66
220.00 39.07
221.00 38.44
222.00 37.81
223.00 37.19
224.00 36.58
225.00 35.99
226.00 35.43
227.00 34.89
228.00 34.38
229.00 33.90
230.00 33.44
231.00 32.99
232.00 32.58
233.00 32.18
234.00 31.80
235.00 31.44
236.00 31.10
237.00 30.77
238.00 30.46
239.00 30.15
240.00 29.86
241.00 29.58
242.00 29.31
243.00 29.04
244.00 28.78
245.00 28.51
246.00 28.25
247.00 27.99
248.00 27.73
249.00 27.47
250.00 27.19
251.00 26.92
252.00 26.63
253.00 26.34
254.00 26.04
255.00 25.72
256.00 25.40
257.00 25.07
258.00 24.73
259.00 24.39
260.00 24.03
261.00 23.67
262.00 23.30
263.00 22.92
264.00 22.54
265.00 22.16
266.00 21.77
267.00 21.39
268.00 21.00
269.00 20.62
270.00 20.23
271.00 19.85
272.00 19.47
273.00 19.09
274.00 18.72
275.00 18.35
276.00 17.99
277.00 17.63
278.00 17.27
279.00 16.92
280.00 16.58
281.00 16.24
282.00 15.90
283.00 15.57
284.00 15.24
285.00 14.92
286.00 14.60
287.00 14.29
288.00 13.97
289.00 13.67
290.00 13.37
291.00 13.07
292.00 12.77
293.00 12.48
294.00 12.18
295.00 11.90
296.00 11.61
297.00 11.33
298.00 11.05
299.00 10.77
300.00 10.50
301.00 10.22
302.00 9.95
303.00 9.68
304.00 9.41
305.00 9.15
306.00 8.88
307.00 8.62
308.00 8.36
309.00 8.10
310.00 7.84
311.00 7.59
312.00 7.34
313.00 7.09
314.00 6.84
315.00 6.59
316.00 6.35
317.00 6.11
318.00 5.87
319.00 5.64
320.00 5.41
321.00 5.18
322.00 4.95
323.00 4.73
324.00 4.51
325.00 4.30
326.00 4.09
327.00 3.88
328.00 3.68
329.00 3.48
330.00 3.28
331.00 3.10
332.00 2.91
333.00 2.73
334.00 2.56
335.00 2.39
336.00 2.22
337.00 2.06
338.00 1.91
339.00 1.76
340.00 1.62
341.00 1.48
342.00 1.34
343.00 1.22
344.00 1.10
345.00 0.98
346.00 0.87
347.00 0.77
348.00 0.67
349.00 0.58
350.00 0.50
351.00 0.42
352.00 0.35
353.00 0.29
354.00 0.23
355.00 0.17
356.00 0.13
357.00 0.09
358.00 0.06
359.00 0.03
VERTICAL 360
0.00 10.25
1.00 7.24
2.00 4.86
3.00 3.00
4.00 1.62
5.00 0.67
6.00 0.13
7.00 0.00
8.00 0.25
9.00 0.88
10.00 1.91
11.00 3.38
12.00 5.38
13.00 8.05
14.00 11.56
15.00 16.10
16.00 21.21
17.00 23.52
18.00 23.00
19.00 23.19
20.00 24.92
21.00 28.89
22.00 39.16
23.00 36.31
24.00 28.83
25.00 26.10
26.00 25.41
27.00 26.24
28.00 28.63
29.00 32.70
30.00 34.55
31.00 31.18
32.00 28.81
33.00 28.12
34.00 28.86
35.00 30.55
36.00 30.80
37.00 28.06
38.00 25.10
39.00 22.92
40.00 21.43
41.00 20.51
42.00 20.08
43.00 20.13
44.00 20.66
45.00 21.68
46.00 23.36
47.00 26.07
48.00 30.90
49.00 44.35
50.00 36.19
51.00 29.49
52.00 26.80
53.00 25.81
54.00 25.66
55.00 25.70
56.00 25.61
57.00 25.50
58.00 25.73
59.00 26.79
60.00 29.10
61.00 32.45
62.00 34.68
63.00 34.40
64.00 33.70
65.00 33.89
66.00 36.37
67.00 44.70
68.00 47.38
69.00 39.45
70.00 38.12
71.00 36.65
72.00 32.46
73.00 28.60
74.00 26.29
75.00 25.65
76.00 26.65
77.00 29.25
78.00 32.04
79.00 30.82
80.00 28.30
81.00 26.24
82.00 25.50
83.00 26.24
84.00 27.33
85.00 27.89
86.00 27.65
87.00 26.80
88.00 25.71
89.00 25.53
90.00 26.42
91.00 27.27
92.00 27.73
93.00 27.79
94.00 27.23
95.00 26.29
96.00 26.10
97.00 26.98
98.00 28.02
99.00 28.73
100.00 28.91
101.00 27.88
102.00 27.00
103.00 27.09
104.00 28.04
105.00 29.62
106.00 31.11
107.00 31.06
108.00 30.23
109.00 30.23
110.00 31.35
111.00 33.51
112.00 36.44
113.00 37.45
114.00 35.87
115.00 35.77
116.00 38.46
117.00 45.67
118.00 57.01
119.00 43.83
120.00 40.54
121.00 40.48
122.00 40.78
123.00 37.32
124.00 33.90
125.00 31.98
126.00 31.19
127.00 31.19
128.00 31.65
129.00 32.03
130.00 32.18
131.00 32.65
132.00 33.92
133.00 36.30
134.00 40.74
135.00 53.09
136.00 46.74
137.00 40.17
138.00 37.67
139.00 36.52
140.00 35.93
141.00 35.76
142.00 36.23
143.00 37.76
144.00 40.63
145.00 44.12
146.00 46.11
147.00 47.07
148.00 48.58
149.00 52.77
150.00 65.11
151.00 48.02
152.00 43.36
153.00 41.96
154.00 42.44
155.00 44.50
156.00 45.61
157.00 40.68
158.00 36.25
159.00 33.71
160.00 32.58
161.00 32.46
162.00 32.97
163.00 33.55
164.00 33.45
165.00 32.05
166.00 30.06
167.00 28.48
168.00 27.62
169.00 27.40
170.00 27.64
171.00 28.15
172.00 28.88
173.00 29.88
174.00 30.84
175.00 31.74
176.00 31.83
177.00 31.07
178.00 30.21
179.00 29.69
180.00 29.59
181.00 29.93
182.00 30.76
183.00 32.22
184.00 34.58
185.00 38.19
186.00 42.83
187.00 43.40
188.00 39.96
189.00 37.49
190.00 36.21
191.00 35.74
192.00 35.75
193.00 36.01
194.00 36.37
195.00 36.83
196.00 37.64
197.00 39.06
198.00 41.40
199.00 45.35
200.00 51.60
201.00 49.78
202.00 46.06
203.00 44.93
204.00 44.48
205.00 43.14
206.00 41.34
207.00 40.07
208.00 39.79
209.00 40.40
210.00 40.79
211.00 39.36
212.00 36.70
213.00 34.15
214.00 32.32
215.00 31.26
216.00 30.82
217.00 30.69
218.00 30.58
219.00 30.37
220.00 30.22
221.00 30.35
222.00 30.79
223.00 31.47
224.00 32.26
225.00 33.16
226.00 34.12
227.00 34.89
228.00 34.93
229.00 34.09
230.00 33.13
231.00 32.64
232.00 32.59
233.00 32.65
234.00 32.49
235.00 32.04
236.00 31.62
237.00 31.51
238.00 31.68
239.00 31.87
240.00 31.82
241.00 31.54
242.00 31.28
243.00 31.27
244.00 31.52
245.00 31.80
246.00 31.88
247.00 31.80
248.00 31.86
249.00 32.35
250.00 33.32
251.00 34.40
252.00 35.06
253.00 35.14
254.00 34.91
255.00 34.85
256.00 35.22
257.00 36.01
258.00 36.90
259.00 37.32
260.00 37.64
261.00 39.40
262.00 44.57
263.00 58.67
264.00 58.78
265.00 48.63
266.00 39.91
267.00 36.20
268.00 35.53
269.00 36.46
270.00 37.01
271.00 37.69
272.00 40.38
273.00 41.87
274.00 39.28
275.00 38.09
276.00 37.30
277.00 36.06
278.00 36.10
279.00 38.14
280.00 40.79
281.00 41.49
282.00 41.96
283.00 43.11
284.00 45.00
285.00 42.90
286.00 37.37
287.00 34.36
288.00 33.75
289.00 35.17
290.00 38.76
291.00 45.57
292.00 42.22
293.00 36.96
294.00 35.32
295.00 36.40
296.00 40.63
297.00 49.29
298.00 41.73
299.00 37.34
300.00 36.49
301.00 37.99
302.00 38.84
303.00 36.23
304.00 33.94
305.00 33.02
306.00 33.39
307.00 35.19
308.00 38.19
309.00 39.93
310.00 39.49
311.00 40.16
312.00 42.78
313.00 45.14
314.00 44.30
315.00 44.80
316.00 52.05
317.00 46.26
318.00 37.48
319.00 32.78
320.00 29.40
321.00 26.58
322.00 24.20
323.00 22.38
324.00 21.28
325.00 21.04
326.00 21.75
327.00 23.43
328.00 26.02
329.00 29.32
330.00 32.68
331.00 33.19
332.00 30.08
333.00 27.05
334.00 25.24
335.00 24.79
336.00 25.74
337.00 28.03
338.00 30.63
339.00 30.66
340.00 29.12
341.00 28.39
342.00 28.79
343.00 29.73
344.00 29.25
345.00 26.62
346.00 23.81
347.00 21.71
348.00 20.43
349.00 19.99
350.00 20.47
351.00 22.10
352.00 25.39
353.00 30.63
354.00 29.83
355.00 25.70
356.00 23.66
357.00 21.87
358.00 18.29
359.00 13.99
