NAME ATR4518R7_2350_X_CO_M45_01T_yL
FREQUENCY 2350
GAIN 15.43 dBd
TILT	ELECTRICAL
COMMENT DATE 05.08.2013 -45 degrees polarized system Lever position 01T deg
HORIZONTAL 360
0.00 0.07
1.00 0.11
2.00 0.14
3.00 0.19
4.00 0.23
5.00 0.29
6.00 0.34
7.00 0.41
8.00 0.47
9.00 0.54
10.00 0.61
11.00 0.68
12.00 0.75
13.00 0.83
14.00 0.91
15.00 0.99
16.00 1.08
17.00 1.17
18.00 1.26
19.00 1.36
20.00 1.46
21.00 1.57
22.00 1.69
23.00 1.81
24.00 1.94
25.00 2.09
26.00 2.24
27.00 2.40
28.00 2.57
29.00 2.76
30.00 2.95
31.00 3.16
32.00 3.37
33.00 3.60
34.00 3.84
35.00 4.09
36.00 4.36
37.00 4.62
38.00 4.91
39.00 5.19
40.00 5.49
41.00 5.79
42.00 6.09
43.00 6.40
44.00 6.71
45.00 7.02
46.00 7.32
47.00 7.63
48.00 7.92
49.00 8.21
50.00 8.49
51.00 8.77
52.00 9.03
53.00 9.28
54.00 9.52
55.00 9.75
56.00 9.97
57.00 10.18
58.00 10.39
59.00 10.59
60.00 10.79
61.00 10.98
62.00 11.18
63.00 11.38
64.00 11.58
65.00 11.79
66.00 12.01
67.00 12.24
68.00 12.47
69.00 12.72
70.00 12.98
71.00 13.25
72.00 13.53
73.00 13.83
74.00 14.13
75.00 14.44
76.00 14.77
77.00 15.10
78.00 15.44
79.00 15.78
80.00 16.13
81.00 16.49
82.00 16.85
83.00 17.21
84.00 17.57
85.00 17.94
86.00 18.32
87.00 18.69
88.00 19.07
89.00 19.46
90.00 19.86
91.00 20.26
92.00 20.67
93.00 21.09
94.00 21.51
95.00 21.95
96.00 22.39
97.00 22.83
98.00 23.28
99.00 23.72
100.00 24.15
101.00 24.55
102.00 24.94
103.00 25.29
104.00 25.59
105.00 25.85
106.00 26.05
107.00 26.20
108.00 26.30
109.00 26.35
110.00 26.36
111.00 26.33
112.00 26.29
113.00 26.23
114.00 26.16
115.00 26.10
116.00 26.06
117.00 26.03
118.00 26.03
119.00 26.05
120.00 26.11
121.00 26.21
122.00 26.35
123.00 26.53
124.00 26.74
125.00 27.00
126.00 27.28
127.00 27.60
128.00 27.93
129.00 28.27
130.00 28.61
131.00 28.94
132.00 29.24
133.00 29.50
134.00 29.73
135.00 29.94
136.00 30.11
137.00 30.27
138.00 30.43
139.00 30.58
140.00 30.74
141.00 30.89
142.00 31.01
143.00 31.08
144.00 31.07
145.00 30.95
146.00 30.71
147.00 30.37
148.00 29.93
149.00 29.43
150.00 28.93
151.00 28.44
152.00 28.00
153.00 27.63
154.00 27.34
155.00 27.14
156.00 27.05
157.00 27.07
158.00 27.20
159.00 27.45
160.00 27.84
161.00 28.35
162.00 29.01
163.00 29.79
164.00 30.69
165.00 31.67
166.00 32.62
167.00 33.40
168.00 33.81
169.00 33.77
170.00 33.32
171.00 32.67
172.00 31.98
173.00 31.36
174.00 30.87
175.00 30.51
176.00 30.32
177.00 30.28
178.00 30.40
179.00 30.66
180.00 31.05
181.00 31.55
182.00 32.11
183.00 32.67
184.00 33.13
185.00 33.39
186.00 33.39
187.00 33.13
188.00 32.70
189.00 32.20
190.00 31.71
191.00 31.30
192.00 30.99
193.00 30.81
194.00 30.77
195.00 30.87
196.00 31.10
197.00 31.47
198.00 31.95
199.00 32.50
200.00 33.06
201.00 33.55
202.00 33.85
203.00 33.89
204.00 33.66
205.00 33.21
206.00 32.66
207.00 32.11
208.00 31.61
209.00 31.22
210.00 30.96
211.00 30.83
212.00 30.86
213.00 31.04
214.00 31.38
215.00 31.89
216.00 32.59
217.00 33.48
218.00 34.59
219.00 35.90
220.00 37.40
221.00 38.94
222.00 40.17
223.00 40.63
224.00 40.13
225.00 39.10
226.00 37.97
227.00 36.97
228.00 36.17
229.00 35.59
230.00 35.21
231.00 35.01
232.00 35.00
233.00 35.17
234.00 35.51
235.00 36.03
236.00 36.73
237.00 37.65
238.00 38.80
239.00 40.21
240.00 41.87
241.00 43.64
242.00 44.89
243.00 44.68
244.00 43.09
245.00 41.07
246.00 39.17
247.00 37.51
248.00 36.13
249.00 34.96
250.00 33.99
251.00 33.20
252.00 32.57
253.00 32.07
254.00 31.71
255.00 31.47
256.00 31.33
257.00 31.29
258.00 31.32
259.00 31.38
260.00 31.42
261.00 31.39
262.00 31.22
263.00 30.86
264.00 30.31
265.00 29.59
266.00 28.76
267.00 27.88
268.00 27.00
269.00 26.15
270.00 25.35
271.00 24.61
272.00 23.94
273.00 23.33
274.00 22.79
275.00 22.30
276.00 21.86
277.00 21.47
278.00 21.11
279.00 20.77
280.00 20.45
281.00 20.14
282.00 19.83
283.00 19.51
284.00 19.18
285.00 18.83
286.00 18.45
287.00 18.06
288.00 17.64
289.00 17.21
290.00 16.77
291.00 16.32
292.00 15.86
293.00 15.40
294.00 14.95
295.00 14.50
296.00 14.06
297.00 13.62
298.00 13.19
299.00 12.76
300.00 12.34
301.00 11.93
302.00 11.52
303.00 11.11
304.00 10.70
305.00 10.29
306.00 9.87
307.00 9.46
308.00 9.05
309.00 8.64
310.00 8.24
311.00 7.84
312.00 7.44
313.00 7.05
314.00 6.68
315.00 6.31
316.00 5.96
317.00 5.62
318.00 5.29
319.00 4.98
320.00 4.68
321.00 4.39
322.00 4.12
323.00 3.86
324.00 3.61
325.00 3.38
326.00 3.15
327.00 2.93
328.00 2.72
329.00 2.52
330.00 2.32
331.00 2.13
332.00 1.95
333.00 1.77
334.00 1.60
335.00 1.44
336.00 1.29
337.00 1.14
338.00 1.01
339.00 0.88
340.00 0.76
341.00 0.65
342.00 0.55
343.00 0.46
344.00 0.38
345.00 0.31
346.00 0.25
347.00 0.19
348.00 0.14
349.00 0.10
350.00 0.07
351.00 0.05
352.00 0.03
353.00 0.01
354.00 0.00
355.00 0.00
356.00 0.00
357.00 0.01
358.00 0.03
359.00 0.05
VERTICAL 360
0.00 0.94
1.00 0.02
2.00 0.28
3.00 1.79
4.00 4.93
5.00 11.03
6.00 30.70
7.00 13.75
8.00 9.94
9.00 9.85
10.00 12.80
11.00 21.72
12.00 22.79
13.00 15.20
14.00 13.65
15.00 14.91
16.00 18.38
17.00 21.81
18.00 20.32
19.00 18.56
20.00 18.64
21.00 20.98
22.00 26.65
23.00 24.41
24.00 18.64
25.00 16.27
26.00 16.11
27.00 17.44
28.00 19.23
29.00 19.96
30.00 19.04
31.00 17.67
32.00 17.02
33.00 17.26
34.00 17.67
35.00 17.54
36.00 17.65
37.00 19.20
38.00 23.34
39.00 33.61
40.00 32.87
41.00 27.13
42.00 25.86
43.00 26.05
44.00 27.08
45.00 29.35
46.00 34.05
47.00 48.73
48.00 37.34
49.00 31.08
50.00 28.74
51.00 28.50
52.00 29.30
53.00 29.57
54.00 29.40
55.00 30.22
56.00 32.26
57.00 34.49
58.00 35.01
59.00 32.79
60.00 30.38
61.00 29.29
62.00 29.24
63.00 29.45
64.00 29.36
65.00 29.22
66.00 29.72
67.00 31.42
68.00 34.21
69.00 36.95
70.00 39.48
71.00 44.93
72.00 56.11
73.00 41.87
74.00 38.09
75.00 37.88
76.00 39.45
77.00 39.17
78.00 38.21
79.00 39.53
80.00 43.25
81.00 47.87
82.00 53.47
83.00 60.98
84.00 52.03
85.00 42.20
86.00 37.04
87.00 35.21
88.00 36.24
89.00 39.59
90.00 40.75
91.00 39.39
92.00 40.52
93.00 42.54
94.00 39.75
95.00 37.40
96.00 37.19
97.00 38.30
98.00 39.49
99.00 39.74
100.00 39.52
101.00 40.13
102.00 41.73
103.00 42.90
104.00 43.54
105.00 44.83
106.00 45.85
107.00 46.28
108.00 46.65
109.00 46.07
110.00 45.63
111.00 45.52
112.00 43.84
113.00 41.79
114.00 41.14
115.00 42.59
116.00 46.93
117.00 48.67
118.00 42.82
119.00 40.02
120.00 40.02
121.00 42.12
122.00 43.32
123.00 42.67
124.00 43.39
125.00 43.21
126.00 40.00
127.00 36.65
128.00 33.82
129.00 32.10
130.00 31.93
131.00 33.39
132.00 36.24
133.00 39.54
134.00 41.44
135.00 41.44
136.00 40.65
137.00 39.92
138.00 39.51
139.00 39.39
140.00 39.70
141.00 40.99
142.00 42.92
143.00 42.29
144.00 40.31
145.00 38.63
146.00 36.13
147.00 34.04
148.00 33.70
149.00 35.36
150.00 38.92
151.00 44.02
152.00 45.22
153.00 40.56
154.00 39.01
155.00 40.95
156.00 41.84
157.00 38.13
158.00 36.52
159.00 36.74
160.00 36.67
161.00 36.05
162.00 36.39
163.00 38.01
164.00 40.37
165.00 43.08
166.00 45.06
167.00 42.24
168.00 37.03
169.00 33.42
170.00 31.96
171.00 32.52
172.00 34.82
173.00 38.28
174.00 38.60
175.00 33.62
176.00 30.24
177.00 29.10
178.00 29.74
179.00 31.44
180.00 33.16
181.00 34.24
182.00 35.43
183.00 38.17
184.00 40.67
185.00 37.72
186.00 36.50
187.00 39.00
188.00 45.76
189.00 49.59
190.00 53.39
191.00 50.06
192.00 42.80
193.00 38.42
194.00 34.92
195.00 33.52
196.00 34.82
197.00 38.82
198.00 43.38
199.00 42.75
200.00 37.99
201.00 34.95
202.00 33.80
203.00 32.94
204.00 32.62
205.00 34.68
206.00 40.86
207.00 45.60
208.00 41.40
209.00 36.81
210.00 33.61
211.00 32.99
212.00 33.24
213.00 32.25
214.00 31.95
215.00 33.96
216.00 38.59
217.00 45.11
218.00 46.11
219.00 40.93
220.00 38.34
221.00 38.03
222.00 38.96
223.00 41.04
224.00 44.49
225.00 42.15
226.00 38.72
227.00 39.57
228.00 49.75
229.00 43.78
230.00 38.69
231.00 41.26
232.00 42.57
233.00 35.62
234.00 34.03
235.00 37.24
236.00 55.82
237.00 38.42
238.00 33.40
239.00 31.99
240.00 32.68
241.00 35.10
242.00 36.51
243.00 33.63
244.00 31.12
245.00 30.18
246.00 30.34
247.00 31.09
248.00 32.42
249.00 34.71
250.00 38.01
251.00 41.57
252.00 46.97
253.00 44.57
254.00 34.61
255.00 29.57
256.00 26.94
257.00 25.68
258.00 24.95
259.00 24.17
260.00 23.28
261.00 22.57
262.00 22.21
263.00 22.06
264.00 21.78
265.00 21.22
266.00 20.48
267.00 19.66
268.00 18.80
269.00 17.96
270.00 17.30
271.00 17.02
272.00 17.21
273.00 17.72
274.00 18.25
275.00 18.48
276.00 18.36
277.00 18.14
278.00 18.08
279.00 18.27
280.00 18.65
281.00 19.08
282.00 19.44
283.00 19.57
284.00 19.42
285.00 19.17
286.00 19.19
287.00 19.86
288.00 21.47
289.00 24.18
290.00 28.03
291.00 32.42
292.00 33.82
293.00 32.75
294.00 34.12
295.00 42.96
296.00 34.30
297.00 27.23
298.00 24.22
299.00 23.29
300.00 23.70
301.00 24.96
302.00 26.75
303.00 29.64
304.00 37.42
305.00 36.84
306.00 27.63
307.00 24.61
308.00 24.30
309.00 25.15
310.00 24.99
311.00 24.14
312.00 24.82
313.00 29.18
314.00 36.79
315.00 25.73
316.00 21.83
317.00 21.41
318.00 24.09
319.00 31.74
320.00 31.21
321.00 24.89
322.00 22.15
323.00 20.23
324.00 18.32
325.00 16.79
326.00 16.09
327.00 16.33
328.00 17.02
329.00 17.03
330.00 16.04
331.00 14.99
332.00 14.39
333.00 14.35
334.00 14.97
335.00 16.55
336.00 19.92
337.00 28.89
338.00 29.10
339.00 20.90
340.00 19.15
341.00 20.81
342.00 26.73
343.00 39.08
344.00 25.92
345.00 22.01
346.00 21.06
347.00 22.51
348.00 25.27
349.00 23.31
350.00 20.31
351.00 19.47
352.00 20.36
353.00 21.95
354.00 23.62
355.00 28.34
356.00 22.19
357.00 12.53
358.00 6.77
359.00 3.11
