NAME ATR4518R7_0894_X_CO_M45_04T
FREQUENCY 0894
GAIN 14.93 dBd
TILT	ELECTRICAL
COMMENT DATE 05.08.2013 -45 degrees polarized system Lever position 04T deg
HORIZONTAL 360
0.00 0.01
1.00 0.00
2.00 0.00
3.00 0.00
4.00 0.01
5.00 0.03
6.00 0.05
7.00 0.08
8.00 0.12
9.00 0.16
10.00 0.21
11.00 0.27
12.00 0.34
13.00 0.41
14.00 0.48
15.00 0.57
16.00 0.66
17.00 0.76
18.00 0.86
19.00 0.98
20.00 1.10
21.00 1.22
22.00 1.36
23.00 1.50
24.00 1.64
25.00 1.80
26.00 1.96
27.00 2.12
28.00 2.30
29.00 2.48
30.00 2.67
31.00 2.87
32.00 3.07
33.00 3.28
34.00 3.50
35.00 3.72
36.00 3.95
37.00 4.19
38.00 4.43
39.00 4.69
40.00 4.95
41.00 5.21
42.00 5.48
43.00 5.77
44.00 6.05
45.00 6.35
46.00 6.65
47.00 6.96
48.00 7.27
49.00 7.59
50.00 7.92
51.00 8.26
52.00 8.60
53.00 8.95
54.00 9.31
55.00 9.67
56.00 10.04
57.00 10.42
58.00 10.80
59.00 11.19
60.00 11.59
61.00 11.99
62.00 12.40
63.00 12.81
64.00 13.24
65.00 13.66
66.00 14.09
67.00 14.53
68.00 14.97
69.00 15.42
70.00 15.87
71.00 16.33
72.00 16.78
73.00 17.24
74.00 17.71
75.00 18.17
76.00 18.63
77.00 19.09
78.00 19.56
79.00 20.01
80.00 20.47
81.00 20.92
82.00 21.37
83.00 21.80
84.00 22.24
85.00 22.66
86.00 23.07
87.00 23.47
88.00 23.86
89.00 24.24
90.00 24.60
91.00 24.95
92.00 25.30
93.00 25.63
94.00 25.95
95.00 26.26
96.00 26.56
97.00 26.85
98.00 27.14
99.00 27.42
100.00 27.70
101.00 27.97
102.00 28.24
103.00 28.51
104.00 28.78
105.00 29.05
106.00 29.32
107.00 29.59
108.00 29.87
109.00 30.15
110.00 30.43
111.00 30.71
112.00 30.99
113.00 31.28
114.00 31.57
115.00 31.85
116.00 32.14
117.00 32.43
118.00 32.71
119.00 32.99
120.00 33.27
121.00 33.53
122.00 33.80
123.00 34.05
124.00 34.28
125.00 34.50
126.00 34.71
127.00 34.90
128.00 35.06
129.00 35.21
130.00 35.33
131.00 35.43
132.00 35.51
133.00 35.56
134.00 35.59
135.00 35.59
136.00 35.58
137.00 35.54
138.00 35.48
139.00 35.40
140.00 35.31
141.00 35.20
142.00 35.08
143.00 34.96
144.00 34.82
145.00 34.67
146.00 34.52
147.00 34.37
148.00 34.21
149.00 34.06
150.00 33.91
151.00 33.75
152.00 33.61
153.00 33.46
154.00 33.32
155.00 33.19
156.00 33.06
157.00 32.94
158.00 32.83
159.00 32.72
160.00 32.62
161.00 32.53
162.00 32.46
163.00 32.39
164.00 32.33
165.00 32.28
166.00 32.24
167.00 32.21
168.00 32.20
169.00 32.19
170.00 32.20
171.00 32.21
172.00 32.25
173.00 32.29
174.00 32.35
175.00 32.42
176.00 32.51
177.00 32.61
178.00 32.73
179.00 32.86
180.00 33.00
181.00 33.17
182.00 33.35
183.00 33.55
184.00 33.76
185.00 34.00
186.00 34.25
187.00 34.53
188.00 34.83
189.00 35.14
190.00 35.48
191.00 35.84
192.00 36.23
193.00 36.64
194.00 37.07
195.00 37.53
196.00 38.02
197.00 38.53
198.00 39.06
199.00 39.62
200.00 40.20
201.00 40.79
202.00 41.40
203.00 42.01
204.00 42.60
205.00 43.19
206.00 43.75
207.00 44.22
208.00 44.66
209.00 44.99
210.00 45.24
211.00 45.36
212.00 45.42
213.00 45.38
214.00 45.27
215.00 45.11
216.00 44.94
217.00 44.72
218.00 44.48
219.00 44.23
220.00 43.97
221.00 43.71
222.00 43.44
223.00 43.14
224.00 42.84
225.00 42.52
226.00 42.18
227.00 41.80
228.00 41.41
229.00 40.99
230.00 40.55
231.00 40.08
232.00 39.60
233.00 39.10
234.00 38.58
235.00 38.06
236.00 37.54
237.00 37.00
238.00 36.48
239.00 35.95
240.00 35.42
241.00 34.90
242.00 34.38
243.00 33.87
244.00 33.36
245.00 32.85
246.00 32.36
247.00 31.86
248.00 31.37
249.00 30.89
250.00 30.40
251.00 29.92
252.00 29.45
253.00 28.97
254.00 28.50
255.00 28.03
256.00 27.56
257.00 27.10
258.00 26.63
259.00 26.17
260.00 25.71
261.00 25.25
262.00 24.80
263.00 24.35
264.00 23.90
265.00 23.45
266.00 23.01
267.00 22.57
268.00 22.13
269.00 21.70
270.00 21.28
271.00 20.85
272.00 20.44
273.00 20.03
274.00 19.62
275.00 19.21
276.00 18.82
277.00 18.42
278.00 18.04
279.00 17.65
280.00 17.28
281.00 16.90
282.00 16.54
283.00 16.17
284.00 15.81
285.00 15.46
286.00 15.11
287.00 14.76
288.00 14.42
289.00 14.08
290.00 13.75
291.00 13.42
292.00 13.10
293.00 12.77
294.00 12.45
295.00 12.14
296.00 11.82
297.00 11.51
298.00 11.21
299.00 10.91
300.00 10.60
301.00 10.31
302.00 10.01
303.00 9.72
304.00 9.43
305.00 9.15
306.00 8.87
307.00 8.59
308.00 8.31
309.00 8.04
310.00 7.77
311.00 7.50
312.00 7.23
313.00 6.97
314.00 6.72
315.00 6.46
316.00 6.21
317.00 5.97
318.00 5.72
319.00 5.48
320.00 5.25
321.00 5.02
322.00 4.79
323.00 4.57
324.00 4.35
325.00 4.13
326.00 3.93
327.00 3.72
328.00 3.52
329.00 3.33
330.00 3.13
331.00 2.95
332.00 2.77
333.00 2.59
334.00 2.42
335.00 2.26
336.00 2.09
337.00 1.94
338.00 1.79
339.00 1.65
340.00 1.51
341.00 1.38
342.00 1.25
343.00 1.13
344.00 1.01
345.00 0.91
346.00 0.80
347.00 0.71
348.00 0.62
349.00 0.53
350.00 0.45
351.00 0.38
352.00 0.31
353.00 0.25
354.00 0.20
355.00 0.15
356.00 0.11
357.00 0.07
358.00 0.04
359.00 0.02
VERTICAL 360
0.00 3.34
1.00 1.87
2.00 0.85
3.00 0.23
4.00 0.00
5.00 0.12
6.00 0.62
7.00 1.49
8.00 2.79
9.00 4.56
10.00 6.89
11.00 9.95
12.00 14.00
13.00 19.56
14.00 26.75
15.00 28.26
16.00 26.62
17.00 27.80
18.00 33.50
19.00 42.64
20.00 28.26
21.00 23.43
22.00 21.03
23.00 20.05
24.00 20.19
25.00 21.43
26.00 23.99
27.00 28.65
28.00 37.85
29.00 34.31
30.00 28.55
31.00 26.05
32.00 25.22
33.00 25.73
34.00 27.89
35.00 32.85
36.00 35.30
37.00 27.46
38.00 22.76
39.00 19.89
40.00 18.08
41.00 17.00
42.00 16.45
43.00 16.33
44.00 16.57
45.00 17.19
46.00 18.23
47.00 19.76
48.00 21.88
49.00 24.74
50.00 28.55
51.00 33.85
52.00 42.92
53.00 50.29
54.00 39.05
55.00 34.87
56.00 32.56
57.00 31.28
58.00 30.75
59.00 30.80
60.00 31.34
61.00 32.22
62.00 33.29
63.00 34.57
64.00 36.32
65.00 38.91
66.00 41.80
67.00 39.93
68.00 35.40
69.00 32.16
70.00 30.36
71.00 29.82
72.00 30.40
73.00 31.80
74.00 33.02
75.00 32.34
76.00 30.14
77.00 27.98
78.00 26.50
79.00 25.82
80.00 26.29
81.00 27.71
82.00 28.19
83.00 28.06
84.00 27.61
85.00 26.79
86.00 25.82
87.00 25.53
88.00 26.71
89.00 28.16
90.00 29.07
91.00 29.46
92.00 29.48
93.00 28.69
94.00 26.42
95.00 25.61
96.00 26.22
97.00 27.52
98.00 29.44
99.00 31.66
100.00 33.59
101.00 34.32
102.00 33.76
103.00 32.93
104.00 32.57
105.00 32.86
106.00 33.70
107.00 34.82
108.00 35.85
109.00 36.35
110.00 36.14
111.00 35.63
112.00 35.38
113.00 35.62
114.00 36.35
115.00 37.42
116.00 38.41
117.00 38.81
118.00 38.44
119.00 37.79
120.00 37.33
121.00 37.31
122.00 37.76
123.00 38.35
124.00 38.51
125.00 37.94
126.00 37.11
127.00 36.50
128.00 36.35
129.00 36.72
130.00 37.45
131.00 38.03
132.00 37.91
133.00 37.35
134.00 37.10
135.00 37.49
136.00 38.54
137.00 40.02
138.00 41.56
139.00 42.87
140.00 44.19
141.00 46.42
142.00 51.36
143.00 63.84
144.00 50.81
145.00 45.79
146.00 43.73
147.00 43.32
148.00 44.03
149.00 44.91
150.00 44.23
151.00 42.26
152.00 40.52
153.00 39.31
154.00 38.32
155.00 37.19
156.00 35.80
157.00 34.36
158.00 33.24
159.00 32.72
160.00 32.99
161.00 34.17
162.00 36.35
163.00 39.54
164.00 43.42
165.00 46.20
166.00 45.61
167.00 43.33
168.00 40.69
169.00 38.09
170.00 35.91
171.00 34.45
172.00 33.75
173.00 33.67
174.00 33.88
175.00 33.89
176.00 33.35
177.00 32.59
178.00 31.77
179.00 31.24
180.00 31.21
181.00 31.71
182.00 32.61
183.00 33.73
184.00 34.91
185.00 36.08
186.00 37.27
187.00 38.52
188.00 39.45
189.00 39.05
190.00 37.53
191.00 35.70
192.00 34.07
193.00 32.79
194.00 31.98
195.00 31.73
196.00 32.08
197.00 33.04
198.00 34.59
199.00 36.75
200.00 39.76
201.00 44.46
202.00 54.35
203.00 49.00
204.00 42.08
205.00 38.60
206.00 36.72
207.00 35.89
208.00 35.83
209.00 36.17
210.00 36.34
211.00 35.88
212.00 34.89
213.00 33.82
214.00 32.94
215.00 32.30
216.00 31.84
217.00 31.52
218.00 31.39
219.00 31.55
220.00 32.17
221.00 33.40
222.00 35.33
223.00 37.88
224.00 40.67
225.00 42.57
226.00 42.57
227.00 41.52
228.00 40.57
229.00 40.02
230.00 39.73
231.00 39.53
232.00 39.49
233.00 39.69
234.00 40.12
235.00 40.80
236.00 42.12
237.00 44.91
238.00 51.41
239.00 58.00
240.00 46.53
241.00 41.92
242.00 39.44
243.00 38.15
244.00 37.68
245.00 37.57
246.00 37.29
247.00 36.59
248.00 35.69
249.00 34.88
250.00 34.28
251.00 34.02
252.00 34.18
253.00 34.77
254.00 35.60
255.00 36.32
256.00 36.59
257.00 36.38
258.00 36.00
259.00 35.84
260.00 36.10
261.00 36.72
262.00 37.43
263.00 37.84
264.00 37.80
265.00 37.57
266.00 37.67
267.00 38.55
268.00 40.44
269.00 43.02
270.00 44.31
271.00 42.78
272.00 39.98
273.00 37.08
274.00 34.70
275.00 33.13
276.00 32.40
277.00 32.39
278.00 32.89
279.00 33.61
280.00 34.14
281.00 34.13
282.00 33.48
283.00 32.40
284.00 31.24
285.00 30.28
286.00 29.63
287.00 29.28
288.00 29.18
289.00 29.29
290.00 29.62
291.00 30.11
292.00 30.66
293.00 31.13
294.00 31.53
295.00 31.90
296.00 32.32
297.00 32.91
298.00 33.82
299.00 34.95
300.00 35.58
301.00 35.05
302.00 33.96
303.00 33.04
304.00 32.40
305.00 32.00
306.00 31.81
307.00 31.95
308.00 32.80
309.00 35.17
310.00 41.62
311.00 42.69
312.00 32.59
313.00 27.58
314.00 24.42
315.00 22.19
316.00 20.52
317.00 19.20
318.00 18.14
319.00 17.36
320.00 16.90
321.00 16.84
322.00 17.25
323.00 18.21
324.00 19.76
325.00 21.98
326.00 24.96
327.00 28.81
328.00 33.81
329.00 40.98
330.00 46.74
331.00 38.56
332.00 33.99
333.00 31.63
334.00 30.80
335.00 31.24
336.00 32.48
337.00 33.08
338.00 31.45
339.00 28.73
340.00 26.09
341.00 23.79
342.00 21.92
343.00 20.58
344.00 19.88
345.00 19.99
346.00 21.13
347.00 23.83
348.00 29.75
349.00 40.98
350.00 28.29
351.00 24.12
352.00 22.96
353.00 24.18
354.00 27.21
355.00 22.74
356.00 16.11
357.00 11.40
358.00 7.95
359.00 5.33
