NAME ATR4518R7_0894_X_CO_M45_10T
FREQUENCY 0894
GAIN 14.97 dBd
TILT	ELECTRICAL
COMMENT DATE 05.08.2013 -45 degrees polarized system Lever position 10T deg
HORIZONTAL 360
0.00 0.03
1.00 0.01
2.00 0.01
3.00 0.00
4.00 0.01
5.00 0.02
6.00 0.04
7.00 0.06
8.00 0.09
9.00 0.13
10.00 0.18
11.00 0.23
12.00 0.29
13.00 0.35
14.00 0.43
15.00 0.51
16.00 0.60
17.00 0.69
18.00 0.79
19.00 0.90
20.00 1.01
21.00 1.14
22.00 1.27
23.00 1.41
24.00 1.55
25.00 1.70
26.00 1.86
27.00 2.03
28.00 2.20
29.00 2.38
30.00 2.57
31.00 2.77
32.00 2.97
33.00 3.18
34.00 3.40
35.00 3.62
36.00 3.85
37.00 4.09
38.00 4.34
39.00 4.59
40.00 4.86
41.00 5.13
42.00 5.40
43.00 5.69
44.00 5.98
45.00 6.28
46.00 6.58
47.00 6.90
48.00 7.22
49.00 7.55
50.00 7.89
51.00 8.23
52.00 8.58
53.00 8.94
54.00 9.31
55.00 9.68
56.00 10.07
57.00 10.46
58.00 10.85
59.00 11.26
60.00 11.67
61.00 12.09
62.00 12.52
63.00 12.95
64.00 13.39
65.00 13.84
66.00 14.30
67.00 14.76
68.00 15.23
69.00 15.71
70.00 16.19
71.00 16.68
72.00 17.18
73.00 17.68
74.00 18.18
75.00 18.69
76.00 19.20
77.00 19.72
78.00 20.24
79.00 20.76
80.00 21.28
81.00 21.80
82.00 22.31
83.00 22.83
84.00 23.33
85.00 23.83
86.00 24.32
87.00 24.81
88.00 25.28
89.00 25.73
90.00 26.17
91.00 26.60
92.00 27.01
93.00 27.41
94.00 27.79
95.00 28.15
96.00 28.50
97.00 28.83
98.00 29.15
99.00 29.46
100.00 29.76
101.00 30.04
102.00 30.32
103.00 30.59
104.00 30.86
105.00 31.12
106.00 31.38
107.00 31.64
108.00 31.89
109.00 32.14
110.00 32.39
111.00 32.63
112.00 32.87
113.00 33.10
114.00 33.33
115.00 33.54
116.00 33.75
117.00 33.94
118.00 34.12
119.00 34.27
120.00 34.41
121.00 34.52
122.00 34.61
123.00 34.66
124.00 34.69
125.00 34.69
126.00 34.66
127.00 34.60
128.00 34.52
129.00 34.41
130.00 34.28
131.00 34.13
132.00 33.97
133.00 33.79
134.00 33.60
135.00 33.40
136.00 33.20
137.00 32.99
138.00 32.79
139.00 32.58
140.00 32.38
141.00 32.17
142.00 31.98
143.00 31.79
144.00 31.61
145.00 31.43
146.00 31.26
147.00 31.10
148.00 30.95
149.00 30.80
150.00 30.67
151.00 30.55
152.00 30.44
153.00 30.33
154.00 30.24
155.00 30.16
156.00 30.09
157.00 30.03
158.00 29.97
159.00 29.93
160.00 29.90
161.00 29.89
162.00 29.88
163.00 29.89
164.00 29.90
165.00 29.93
166.00 29.97
167.00 30.02
168.00 30.08
169.00 30.15
170.00 30.24
171.00 30.34
172.00 30.45
173.00 30.57
174.00 30.71
175.00 30.86
176.00 31.02
177.00 31.20
178.00 31.39
179.00 31.60
180.00 31.82
181.00 32.06
182.00 32.32
183.00 32.59
184.00 32.88
185.00 33.18
186.00 33.51
187.00 33.86
188.00 34.23
189.00 34.61
190.00 35.02
191.00 35.46
192.00 35.92
193.00 36.40
194.00 36.91
195.00 37.45
196.00 38.01
197.00 38.62
198.00 39.25
199.00 39.92
200.00 40.64
201.00 41.39
202.00 42.18
203.00 43.03
204.00 43.93
205.00 44.88
206.00 45.92
207.00 47.01
208.00 48.19
209.00 49.44
210.00 50.75
211.00 52.10
212.00 53.42
213.00 54.36
214.00 54.79
215.00 54.39
216.00 53.46
217.00 52.21
218.00 50.82
219.00 49.50
220.00 48.21
221.00 46.99
222.00 45.86
223.00 44.78
224.00 43.77
225.00 42.80
226.00 41.90
227.00 41.03
228.00 40.21
229.00 39.42
230.00 38.67
231.00 37.94
232.00 37.26
233.00 36.59
234.00 35.96
235.00 35.36
236.00 34.77
237.00 34.21
238.00 33.67
239.00 33.14
240.00 32.64
241.00 32.15
242.00 31.68
243.00 31.22
244.00 30.78
245.00 30.34
246.00 29.92
247.00 29.50
248.00 29.09
249.00 28.69
250.00 28.29
251.00 27.90
252.00 27.51
253.00 27.13
254.00 26.74
255.00 26.36
256.00 25.98
257.00 25.59
258.00 25.21
259.00 24.83
260.00 24.45
261.00 24.07
262.00 23.68
263.00 23.30
264.00 22.92
265.00 22.54
266.00 22.15
267.00 21.77
268.00 21.39
269.00 21.01
270.00 20.63
271.00 20.25
272.00 19.88
273.00 19.51
274.00 19.13
275.00 18.77
276.00 18.40
277.00 18.04
278.00 17.68
279.00 17.33
280.00 16.98
281.00 16.63
282.00 16.29
283.00 15.95
284.00 15.61
285.00 15.28
286.00 14.95
287.00 14.62
288.00 14.30
289.00 13.98
290.00 13.66
291.00 13.35
292.00 13.04
293.00 12.73
294.00 12.43
295.00 12.13
296.00 11.83
297.00 11.54
298.00 11.25
299.00 10.96
300.00 10.67
301.00 10.38
302.00 10.10
303.00 9.82
304.00 9.55
305.00 9.27
306.00 9.00
307.00 8.73
308.00 8.46
309.00 8.20
310.00 7.93
311.00 7.68
312.00 7.42
313.00 7.16
314.00 6.91
315.00 6.66
316.00 6.42
317.00 6.18
318.00 5.94
319.00 5.70
320.00 5.47
321.00 5.24
322.00 5.01
323.00 4.79
324.00 4.57
325.00 4.36
326.00 4.15
327.00 3.94
328.00 3.74
329.00 3.54
330.00 3.34
331.00 3.15
332.00 2.97
333.00 2.79
334.00 2.62
335.00 2.45
336.00 2.28
337.00 2.12
338.00 1.97
339.00 1.82
340.00 1.67
341.00 1.53
342.00 1.40
343.00 1.27
344.00 1.15
345.00 1.04
346.00 0.93
347.00 0.82
348.00 0.72
349.00 0.63
350.00 0.54
351.00 0.46
352.00 0.39
353.00 0.32
354.00 0.26
355.00 0.21
356.00 0.16
357.00 0.12
358.00 0.08
359.00 0.05
VERTICAL 360
0.00 31.52
1.00 21.12
2.00 14.89
3.00 10.58
4.00 7.37
5.00 4.92
6.00 3.06
7.00 1.69
8.00 0.75
9.00 0.19
10.00 0.00
11.00 0.17
12.00 0.69
13.00 1.58
14.00 2.87
15.00 4.62
16.00 6.93
17.00 9.96
18.00 14.12
19.00 20.47
20.00 35.32
21.00 27.47
22.00 22.55
23.00 21.26
24.00 21.76
25.00 23.83
26.00 28.00
27.00 37.22
28.00 36.41
29.00 29.42
30.00 26.83
31.00 26.17
32.00 26.81
33.00 28.60
34.00 31.60
35.00 35.45
36.00 36.74
37.00 34.34
38.00 32.43
39.00 31.88
40.00 32.85
41.00 36.03
42.00 44.05
43.00 39.90
44.00 32.81
45.00 29.23
46.00 27.22
47.00 26.12
48.00 25.58
49.00 25.41
50.00 25.54
51.00 26.07
52.00 27.17
53.00 29.16
54.00 32.62
55.00 39.31
56.00 44.84
57.00 35.81
58.00 31.74
59.00 29.60
60.00 28.40
61.00 27.70
62.00 27.25
63.00 26.91
64.00 26.64
65.00 26.40
66.00 26.14
67.00 25.84
68.00 25.57
69.00 25.44
70.00 25.62
71.00 26.26
72.00 27.48
73.00 29.26
74.00 31.24
75.00 32.33
76.00 31.72
77.00 30.46
78.00 29.62
79.00 29.60
80.00 30.47
81.00 31.96
82.00 32.77
83.00 31.63
84.00 29.82
85.00 28.56
86.00 28.13
87.00 28.51
88.00 29.51
89.00 30.46
90.00 30.33
91.00 29.28
92.00 28.31
93.00 27.93
94.00 28.23
95.00 29.09
96.00 30.25
97.00 31.25
98.00 31.64
99.00 31.53
100.00 31.47
101.00 31.89
102.00 32.99
103.00 34.81
104.00 37.19
105.00 40.01
106.00 43.43
107.00 47.84
108.00 49.29
109.00 44.85
110.00 40.97
111.00 38.17
112.00 36.31
113.00 35.36
114.00 35.30
115.00 35.98
116.00 37.05
117.00 37.91
118.00 38.06
119.00 37.70
120.00 37.40
121.00 37.70
122.00 38.98
123.00 41.63
124.00 46.49
125.00 56.91
126.00 54.76
127.00 47.77
128.00 44.01
129.00 41.16
130.00 38.90
131.00 37.26
132.00 36.31
133.00 36.04
134.00 36.39
135.00 37.16
136.00 38.06
137.00 38.84
138.00 39.57
139.00 40.53
140.00 42.09
141.00 44.59
142.00 48.38
143.00 53.24
144.00 54.38
145.00 51.91
146.00 50.27
147.00 49.39
148.00 48.66
149.00 47.80
150.00 47.11
151.00 46.98
152.00 47.12
153.00 46.24
154.00 44.10
155.00 42.13
156.00 41.07
157.00 40.92
158.00 41.07
159.00 40.13
160.00 37.71
161.00 35.08
162.00 33.02
163.00 31.73
164.00 31.25
165.00 30.07
166.00 30.15
167.00 31.71
168.00 35.63
169.00 39.57
170.00 32.59
171.00 29.39
172.00 27.89
173.00 27.20
174.00 26.90
175.00 26.79
176.00 26.86
177.00 27.19
178.00 27.89
179.00 28.53
180.00 28.94
181.00 29.74
182.00 30.89
183.00 32.30
184.00 33.77
185.00 34.85
186.00 35.10
187.00 34.49
188.00 33.49
189.00 32.48
190.00 31.65
191.00 31.05
192.00 30.75
193.00 30.79
194.00 31.17
195.00 31.80
196.00 32.59
197.00 33.39
198.00 34.17
199.00 35.00
200.00 36.05
201.00 37.50
202.00 39.41
203.00 41.61
204.00 43.52
205.00 44.20
206.00 43.25
207.00 41.53
208.00 40.01
209.00 39.03
210.00 38.60
211.00 38.62
212.00 39.10
213.00 40.11
214.00 41.66
215.00 43.59
216.00 45.40
217.00 46.45
218.00 46.63
219.00 46.53
220.00 46.40
221.00 45.55
222.00 43.64
223.00 41.64
224.00 40.25
225.00 39.54
226.00 39.30
227.00 39.29
228.00 39.24
229.00 38.90
230.00 38.23
231.00 37.49
232.00 37.04
233.00 37.16
234.00 38.02
235.00 39.73
236.00 42.14
237.00 44.32
238.00 44.93
239.00 44.50
240.00 43.93
241.00 43.39
242.00 43.05
243.00 43.17
244.00 43.64
245.00 43.86
246.00 43.11
247.00 41.41
248.00 39.54
249.00 38.19
250.00 37.66
251.00 38.00
252.00 38.92
253.00 39.73
254.00 39.69
255.00 38.84
256.00 37.77
257.00 36.95
258.00 36.62
259.00 36.69
260.00 36.75
261.00 36.39
262.00 35.60
263.00 34.70
264.00 33.93
265.00 33.50
266.00 33.52
267.00 33.92
268.00 34.45
269.00 34.83
270.00 34.91
271.00 34.72
272.00 34.28
273.00 33.77
274.00 33.40
275.00 33.27
276.00 33.33
277.00 33.50
278.00 33.56
279.00 33.24
280.00 32.53
281.00 31.77
282.00 31.24
283.00 31.04
284.00 31.19
285.00 31.69
286.00 32.46
287.00 33.14
288.00 33.30
289.00 33.07
290.00 32.94
291.00 33.22
292.00 34.06
293.00 35.69
294.00 38.63
295.00 44.08
296.00 52.27
297.00 45.91
298.00 41.68
299.00 38.96
300.00 36.42
301.00 34.04
302.00 32.08
303.00 30.69
304.00 29.95
305.00 29.92
306.00 30.62
307.00 32.04
308.00 34.08
309.00 36.51
310.00 38.76
311.00 39.81
312.00 39.05
313.00 37.41
314.00 35.99
315.00 35.38
316.00 36.04
317.00 38.74
318.00 46.66
319.00 47.72
320.00 37.73
321.00 33.57
322.00 31.29
323.00 30.00
324.00 29.37
325.00 29.39
326.00 30.28
327.00 32.73
328.00 39.00
329.00 40.57
330.00 30.85
331.00 26.02
332.00 23.11
333.00 21.30
334.00 20.29
335.00 19.93
336.00 20.21
337.00 21.21
338.00 23.18
339.00 26.72
340.00 33.93
341.00 41.95
342.00 31.11
343.00 27.87
344.00 27.46
345.00 29.53
346.00 36.35
347.00 39.84
348.00 28.95
349.00 24.65
350.00 22.58
351.00 21.95
352.00 22.60
353.00 24.77
354.00 29.49
355.00 43.67
356.00 33.79
357.00 28.38
358.00 27.52
359.00 30.89
