NAME ATR4518R7_2655_X_CO_M45_07T_yL
FREQUENCY 2655
GAIN 16.13 dBd
TILT	ELECTRICAL
COMMENT DATE 05.08.2013 -45 degrees polarized system Lever position 07T deg
HORIZONTAL 360
0.00 0.17
1.00 0.26
2.00 0.36
3.00 0.46
4.00 0.57
5.00 0.69
6.00 0.79
7.00 0.89
8.00 0.99
9.00 1.07
10.00 1.14
11.00 1.20
12.00 1.25
13.00 1.29
14.00 1.34
15.00 1.39
16.00 1.45
17.00 1.52
18.00 1.60
19.00 1.70
20.00 1.81
21.00 1.95
22.00 2.10
23.00 2.27
24.00 2.46
25.00 2.67
26.00 2.88
27.00 3.11
28.00 3.34
29.00 3.58
30.00 3.81
31.00 4.04
32.00 4.26
33.00 4.48
34.00 4.68
35.00 4.86
36.00 5.03
37.00 5.19
38.00 5.34
39.00 5.47
40.00 5.60
41.00 5.73
42.00 5.85
43.00 5.98
44.00 6.11
45.00 6.24
46.00 6.39
47.00 6.54
48.00 6.70
49.00 6.87
50.00 7.06
51.00 7.26
52.00 7.47
53.00 7.69
54.00 7.93
55.00 8.18
56.00 8.45
57.00 8.72
58.00 9.01
59.00 9.32
60.00 9.63
61.00 9.95
62.00 10.29
63.00 10.64
64.00 11.00
65.00 11.37
66.00 11.76
67.00 12.15
68.00 12.56
69.00 12.99
70.00 13.43
71.00 13.88
72.00 14.35
73.00 14.83
74.00 15.33
75.00 15.85
76.00 16.39
77.00 16.93
78.00 17.49
79.00 18.07
80.00 18.65
81.00 19.24
82.00 19.83
83.00 20.41
84.00 20.99
85.00 21.56
86.00 22.11
87.00 22.64
88.00 23.15
89.00 23.63
90.00 24.09
91.00 24.53
92.00 24.96
93.00 25.38
94.00 25.79
95.00 26.21
96.00 26.64
97.00 27.08
98.00 27.54
99.00 28.01
100.00 28.49
101.00 28.98
102.00 29.45
103.00 29.91
104.00 30.34
105.00 30.72
106.00 31.05
107.00 31.34
108.00 31.58
109.00 31.81
110.00 32.05
111.00 32.31
112.00 32.64
113.00 33.05
114.00 33.60
115.00 34.29
116.00 35.19
117.00 36.34
118.00 37.84
119.00 39.82
120.00 42.58
121.00 46.82
122.00 55.46
123.00 58.42
124.00 48.25
125.00 43.99
126.00 41.43
127.00 39.76
128.00 38.66
129.00 38.00
130.00 37.68
131.00 37.65
132.00 37.84
133.00 38.16
134.00 38.42
135.00 38.37
136.00 37.76
137.00 36.63
138.00 35.20
139.00 33.72
140.00 32.32
141.00 31.07
142.00 29.98
143.00 29.06
144.00 28.29
145.00 27.68
146.00 27.21
147.00 26.87
148.00 26.66
149.00 26.57
150.00 26.61
151.00 26.76
152.00 27.03
153.00 27.41
154.00 27.89
155.00 28.46
156.00 29.11
157.00 29.79
158.00 30.46
159.00 31.07
160.00 31.53
161.00 31.80
162.00 31.87
163.00 31.77
164.00 31.56
165.00 31.31
166.00 31.09
167.00 30.91
168.00 30.82
169.00 30.82
170.00 30.92
171.00 31.12
172.00 31.40
173.00 31.76
174.00 32.18
175.00 32.62
176.00 33.04
177.00 33.38
178.00 33.59
179.00 33.63
180.00 33.50
181.00 33.23
182.00 32.86
183.00 32.45
184.00 32.06
185.00 31.70
186.00 31.41
187.00 31.19
188.00 31.07
189.00 31.04
190.00 31.13
191.00 31.32
192.00 31.63
193.00 32.08
194.00 32.66
195.00 33.41
196.00 34.34
197.00 35.47
198.00 36.82
199.00 38.38
200.00 40.03
201.00 41.41
202.00 41.88
203.00 41.18
204.00 39.85
205.00 38.45
206.00 37.23
207.00 36.27
208.00 35.55
209.00 35.08
210.00 34.83
211.00 34.82
212.00 35.04
213.00 35.51
214.00 36.25
215.00 37.33
216.00 38.82
217.00 40.88
218.00 43.76
219.00 47.83
220.00 51.26
221.00 48.13
222.00 44.14
223.00 41.36
224.00 39.42
225.00 38.07
226.00 37.15
227.00 36.59
228.00 36.33
229.00 36.37
230.00 36.69
231.00 37.30
232.00 38.24
233.00 39.58
234.00 41.39
235.00 43.85
236.00 47.00
237.00 49.75
238.00 48.69
239.00 45.63
240.00 43.05
241.00 41.16
242.00 39.81
243.00 38.84
244.00 38.19
245.00 37.76
246.00 37.51
247.00 37.38
248.00 37.30
249.00 37.21
250.00 37.03
251.00 36.72
252.00 36.28
253.00 35.73
254.00 35.12
255.00 34.50
256.00 33.91
257.00 33.40
258.00 32.96
259.00 32.63
260.00 32.41
261.00 32.31
262.00 32.33
263.00 32.49
264.00 32.77
265.00 33.20
266.00 33.76
267.00 34.42
268.00 35.10
269.00 35.63
270.00 35.79
271.00 35.37
272.00 34.41
273.00 33.13
274.00 31.75
275.00 30.42
276.00 29.20
277.00 28.11
278.00 27.14
279.00 26.30
280.00 25.58
281.00 24.95
282.00 24.42
283.00 23.95
284.00 23.55
285.00 23.18
286.00 22.83
287.00 22.48
288.00 22.10
289.00 21.68
290.00 21.19
291.00 20.65
292.00 20.04
293.00 19.38
294.00 18.69
295.00 17.97
296.00 17.25
297.00 16.54
298.00 15.84
299.00 15.16
300.00 14.51
301.00 13.89
302.00 13.29
303.00 12.72
304.00 12.17
305.00 11.64
306.00 11.13
307.00 10.63
308.00 10.15
309.00 9.67
310.00 9.21
311.00 8.74
312.00 8.29
313.00 7.84
314.00 7.40
315.00 6.96
316.00 6.54
317.00 6.13
318.00 5.73
319.00 5.35
320.00 4.99
321.00 4.64
322.00 4.32
323.00 4.02
324.00 3.74
325.00 3.48
326.00 3.24
327.00 3.02
328.00 2.82
329.00 2.63
330.00 2.47
331.00 2.32
332.00 2.18
333.00 2.06
334.00 1.95
335.00 1.84
336.00 1.74
337.00 1.65
338.00 1.56
339.00 1.47
340.00 1.38
341.00 1.28
342.00 1.19
343.00 1.08
344.00 0.97
345.00 0.86
346.00 0.75
347.00 0.64
348.00 0.52
349.00 0.41
350.00 0.31
351.00 0.22
352.00 0.14
353.00 0.08
354.00 0.03
355.00 0.00
356.00 0.00
357.00 0.01
358.00 0.05
359.00 0.10
VERTICAL 360
0.00 21.90
1.00 27.23
2.00 20.39
3.00 11.39
4.00 6.05
5.00 2.66
6.00 0.69
7.00 0.00
8.00 0.62
9.00 2.82
10.00 7.44
11.00 19.10
12.00 16.74
13.00 10.86
14.00 10.61
15.00 14.28
16.00 26.33
17.00 18.87
18.00 14.42
19.00 14.53
20.00 18.46
21.00 31.77
22.00 21.50
23.00 17.41
24.00 18.04
25.00 23.57
26.00 30.09
27.00 20.36
28.00 17.52
29.00 18.11
30.00 23.21
31.00 28.92
32.00 17.85
33.00 13.82
34.00 12.46
35.00 12.81
36.00 14.70
37.00 18.56
38.00 25.31
39.00 25.31
40.00 21.52
41.00 20.94
42.00 22.73
43.00 26.62
44.00 33.21
45.00 46.01
46.00 37.46
47.00 32.11
48.00 29.50
49.00 28.54
50.00 29.11
51.00 31.31
52.00 35.29
53.00 41.24
54.00 47.56
55.00 44.97
56.00 40.59
57.00 37.46
58.00 35.40
59.00 34.31
60.00 34.33
61.00 35.83
62.00 38.89
63.00 41.57
64.00 40.76
65.00 38.75
66.00 37.86
67.00 38.13
68.00 37.82
69.00 37.03
70.00 36.38
71.00 35.09
72.00 34.47
73.00 35.57
74.00 37.50
75.00 38.11
76.00 35.96
77.00 33.36
78.00 32.85
79.00 34.97
80.00 39.20
81.00 42.65
82.00 41.99
83.00 38.43
84.00 36.81
85.00 38.08
86.00 43.36
87.00 48.70
88.00 39.79
89.00 37.34
90.00 37.76
91.00 36.83
92.00 35.64
93.00 38.34
94.00 54.03
95.00 38.93
96.00 34.96
97.00 35.07
98.00 36.44
99.00 36.84
100.00 37.40
101.00 39.40
102.00 41.66
103.00 41.35
104.00 38.95
105.00 37.09
106.00 36.71
107.00 37.40
108.00 38.03
109.00 37.59
110.00 36.06
111.00 34.50
112.00 33.66
113.00 33.47
114.00 33.43
115.00 33.04
116.00 32.26
117.00 31.54
118.00 31.27
119.00 31.79
120.00 33.55
121.00 36.62
122.00 38.17
123.00 37.66
124.00 40.11
125.00 47.14
126.00 41.21
127.00 39.07
128.00 42.00
129.00 50.53
130.00 55.46
131.00 44.79
132.00 39.77
133.00 38.30
134.00 37.39
135.00 35.01
136.00 33.41
137.00 33.43
138.00 34.65
139.00 36.62
140.00 39.67
141.00 45.50
142.00 50.41
143.00 42.29
144.00 37.58
145.00 35.10
146.00 34.85
147.00 36.60
148.00 38.67
149.00 39.31
150.00 37.68
151.00 35.70
152.00 36.65
153.00 39.64
154.00 37.64
155.00 37.98
156.00 44.24
157.00 39.17
158.00 37.63
159.00 40.67
160.00 35.20
161.00 32.05
162.00 32.34
163.00 33.67
164.00 34.15
165.00 35.23
166.00 37.11
167.00 37.90
168.00 35.48
169.00 32.59
170.00 31.52
171.00 31.94
172.00 32.74
173.00 33.04
174.00 31.94
175.00 30.59
176.00 31.00
177.00 33.99
178.00 40.10
179.00 59.58
180.00 41.27
181.00 35.72
182.00 35.03
183.00 36.08
184.00 34.54
185.00 33.37
186.00 33.64
187.00 33.62
188.00 34.58
189.00 39.04
190.00 48.15
191.00 49.50
192.00 39.09
193.00 33.83
194.00 31.98
195.00 30.51
196.00 28.51
197.00 27.57
198.00 27.34
199.00 26.75
200.00 26.70
201.00 28.33
202.00 31.88
203.00 36.63
204.00 38.41
205.00 36.96
206.00 36.09
207.00 34.72
208.00 34.11
209.00 36.84
210.00 47.40
211.00 48.30
212.00 49.28
213.00 42.89
214.00 35.40
215.00 32.85
216.00 32.55
217.00 33.29
218.00 34.80
219.00 37.45
220.00 41.62
221.00 46.88
222.00 47.84
223.00 41.45
224.00 36.27
225.00 33.78
226.00 33.47
227.00 34.29
228.00 34.02
229.00 32.16
230.00 30.24
231.00 29.03
232.00 28.60
233.00 28.56
234.00 28.33
235.00 27.99
236.00 28.20
237.00 29.63
238.00 32.85
239.00 38.87
240.00 51.89
241.00 54.70
242.00 52.05
243.00 46.72
244.00 40.96
245.00 38.14
246.00 37.79
247.00 40.20
248.00 47.48
249.00 46.29
250.00 39.58
251.00 36.66
252.00 35.05
253.00 33.81
254.00 32.76
255.00 32.19
256.00 32.57
257.00 34.32
258.00 37.02
259.00 37.61
260.00 36.25
261.00 35.88
262.00 37.19
263.00 41.16
264.00 51.84
265.00 42.85
266.00 37.52
267.00 35.29
268.00 34.59
269.00 35.19
270.00 37.66
271.00 44.20
272.00 45.17
273.00 37.03
274.00 33.87
275.00 33.08
276.00 33.91
277.00 36.33
278.00 40.10
279.00 41.41
280.00 40.39
281.00 41.14
282.00 43.85
283.00 48.97
284.00 56.36
285.00 50.34
286.00 46.08
287.00 42.38
288.00 40.34
289.00 40.67
290.00 43.67
291.00 52.48
292.00 49.64
293.00 42.46
294.00 40.89
295.00 42.29
296.00 45.28
297.00 43.83
298.00 37.66
299.00 32.53
300.00 27.95
301.00 23.75
302.00 20.28
303.00 17.61
304.00 15.59
305.00 14.03
306.00 12.85
307.00 11.98
308.00 11.44
309.00 11.25
310.00 11.47
311.00 12.29
312.00 14.03
313.00 17.38
314.00 24.24
315.00 28.34
316.00 19.46
317.00 16.13
318.00 15.23
319.00 16.29
320.00 19.98
321.00 30.45
322.00 26.24
323.00 20.14
324.00 18.78
325.00 20.27
326.00 25.72
327.00 41.72
328.00 24.20
329.00 20.44
330.00 20.45
331.00 24.42
332.00 36.79
333.00 23.63
334.00 19.16
335.00 18.23
336.00 19.99
337.00 25.33
338.00 26.83
339.00 20.71
340.00 18.62
341.00 19.62
342.00 23.50
343.00 25.02
344.00 21.49
345.00 20.37
346.00 22.36
347.00 30.09
348.00 32.78
349.00 23.94
350.00 22.53
351.00 24.90
352.00 28.77
353.00 26.66
354.00 25.51
355.00 28.68
356.00 37.97
357.00 27.33
358.00 22.70
359.00 21.13
