NAME ATR4518R7_1950_X_CO_P45_10T_yL
FREQUENCY 1950
GAIN 14.71 dBd
TILT	ELECTRICAL
COMMENT DATE 05.08.2013 +45 degrees polarized system Lever position 10T deg
HORIZONTAL 360
0.00 0.11
1.00 0.09
2.00 0.08
3.00 0.06
4.00 0.05
5.00 0.03
6.00 0.02
7.00 0.01
8.00 0.00
9.00 0.00
10.00 0.00
11.00 0.01
12.00 0.02
13.00 0.03
14.00 0.05
15.00 0.08
16.00 0.12
17.00 0.17
18.00 0.22
19.00 0.29
20.00 0.36
21.00 0.45
22.00 0.54
23.00 0.65
24.00 0.76
25.00 0.88
26.00 1.02
27.00 1.16
28.00 1.32
29.00 1.48
30.00 1.65
31.00 1.83
32.00 2.02
33.00 2.22
34.00 2.42
35.00 2.63
36.00 2.84
37.00 3.06
38.00 3.28
39.00 3.51
40.00 3.74
41.00 3.97
42.00 4.20
43.00 4.43
44.00 4.66
45.00 4.88
46.00 5.11
47.00 5.33
48.00 5.55
49.00 5.77
50.00 5.98
51.00 6.19
52.00 6.39
53.00 6.60
54.00 6.80
55.00 7.00
56.00 7.20
57.00 7.40
58.00 7.61
59.00 7.81
60.00 8.02
61.00 8.23
62.00 8.45
63.00 8.68
64.00 8.90
65.00 9.14
66.00 9.39
67.00 9.65
68.00 9.92
69.00 10.20
70.00 10.48
71.00 10.78
72.00 11.09
73.00 11.42
74.00 11.75
75.00 12.10
76.00 12.45
77.00 12.82
78.00 13.19
79.00 13.57
80.00 13.96
81.00 14.35
82.00 14.75
83.00 15.14
84.00 15.54
85.00 15.93
86.00 16.32
87.00 16.70
88.00 17.07
89.00 17.43
90.00 17.78
91.00 18.12
92.00 18.45
93.00 18.77
94.00 19.08
95.00 19.38
96.00 19.67
97.00 19.96
98.00 20.25
99.00 20.54
100.00 20.83
101.00 21.13
102.00 21.43
103.00 21.74
104.00 22.06
105.00 22.39
106.00 22.74
107.00 23.09
108.00 23.46
109.00 23.83
110.00 24.22
111.00 24.61
112.00 25.01
113.00 25.42
114.00 25.83
115.00 26.25
116.00 26.67
117.00 27.09
118.00 27.51
119.00 27.92
120.00 28.34
121.00 28.74
122.00 29.13
123.00 29.52
124.00 29.89
125.00 30.24
126.00 30.57
127.00 30.87
128.00 31.14
129.00 31.37
130.00 31.56
131.00 31.70
132.00 31.79
133.00 31.83
134.00 31.82
135.00 31.77
136.00 31.68
137.00 31.56
138.00 31.41
139.00 31.24
140.00 31.07
141.00 30.90
142.00 30.73
143.00 30.57
144.00 30.43
145.00 30.31
146.00 30.21
147.00 30.14
148.00 30.09
149.00 30.08
150.00 30.09
151.00 30.13
152.00 30.19
153.00 30.28
154.00 30.38
155.00 30.50
156.00 30.63
157.00 30.76
158.00 30.89
159.00 31.02
160.00 31.13
161.00 31.23
162.00 31.32
163.00 31.39
164.00 31.46
165.00 31.53
166.00 31.60
167.00 31.69
168.00 31.79
169.00 31.91
170.00 32.07
171.00 32.27
172.00 32.50
173.00 32.78
174.00 33.10
175.00 33.46
176.00 33.86
177.00 34.29
178.00 34.75
179.00 35.23
180.00 35.71
181.00 36.18
182.00 36.63
183.00 37.04
184.00 37.42
185.00 37.77
186.00 38.09
187.00 38.41
188.00 38.73
189.00 39.09
190.00 39.49
191.00 39.95
192.00 40.45
193.00 40.97
194.00 41.44
195.00 41.76
196.00 41.80
197.00 41.45
198.00 40.74
199.00 39.77
200.00 38.67
201.00 37.55
202.00 36.46
203.00 35.45
204.00 34.52
205.00 33.67
206.00 32.91
207.00 32.22
208.00 31.62
209.00 31.08
210.00 30.61
211.00 30.19
212.00 29.83
213.00 29.53
214.00 29.27
215.00 29.06
216.00 28.90
217.00 28.77
218.00 28.69
219.00 28.65
220.00 28.65
221.00 28.69
222.00 28.77
223.00 28.89
224.00 29.05
225.00 29.26
226.00 29.51
227.00 29.81
228.00 30.17
229.00 30.58
230.00 31.06
231.00 31.59
232.00 32.21
233.00 32.90
234.00 33.68
235.00 34.56
236.00 35.54
237.00 36.62
238.00 37.79
239.00 38.99
240.00 40.09
241.00 40.85
242.00 41.01
243.00 40.50
244.00 39.52
245.00 38.33
246.00 37.11
247.00 35.94
248.00 34.85
249.00 33.84
250.00 32.90
251.00 32.03
252.00 31.21
253.00 30.43
254.00 29.69
255.00 28.97
256.00 28.28
257.00 27.61
258.00 26.96
259.00 26.33
260.00 25.71
261.00 25.11
262.00 24.54
263.00 23.98
264.00 23.45
265.00 22.94
266.00 22.45
267.00 22.00
268.00 21.57
269.00 21.16
270.00 20.79
271.00 20.43
272.00 20.11
273.00 19.81
274.00 19.54
275.00 19.29
276.00 19.06
277.00 18.85
278.00 18.65
279.00 18.47
280.00 18.29
281.00 18.12
282.00 17.95
283.00 17.78
284.00 17.60
285.00 17.40
286.00 17.20
287.00 16.97
288.00 16.72
289.00 16.46
290.00 16.17
291.00 15.87
292.00 15.55
293.00 15.21
294.00 14.86
295.00 14.51
296.00 14.15
297.00 13.78
298.00 13.42
299.00 13.06
300.00 12.70
301.00 12.35
302.00 12.00
303.00 11.66
304.00 11.32
305.00 10.98
306.00 10.66
307.00 10.33
308.00 10.00
309.00 9.68
310.00 9.36
311.00 9.03
312.00 8.71
313.00 8.38
314.00 8.05
315.00 7.72
316.00 7.39
317.00 7.06
318.00 6.73
319.00 6.40
320.00 6.07
321.00 5.75
322.00 5.43
323.00 5.12
324.00 4.81
325.00 4.51
326.00 4.21
327.00 3.93
328.00 3.66
329.00 3.39
330.00 3.14
331.00 2.90
332.00 2.66
333.00 2.44
334.00 2.23
335.00 2.04
336.00 1.85
337.00 1.68
338.00 1.52
339.00 1.36
340.00 1.22
341.00 1.09
342.00 0.98
343.00 0.87
344.00 0.77
345.00 0.68
346.00 0.60
347.00 0.53
348.00 0.47
349.00 0.41
350.00 0.37
351.00 0.32
352.00 0.29
353.00 0.25
354.00 0.23
355.00 0.20
356.00 0.18
357.00 0.16
358.00 0.14
359.00 0.12
VERTICAL 360
0.00 20.07
1.00 22.85
2.00 22.55
3.00 17.23
4.00 11.85
5.00 7.77
6.00 4.69
7.00 2.43
8.00 0.92
9.00 0.13
10.00 0.06
11.00 0.75
12.00 2.26
13.00 4.79
14.00 8.87
15.00 16.38
16.00 25.59
17.00 15.19
18.00 12.23
19.00 11.95
20.00 13.60
21.00 17.46
22.00 24.78
23.00 23.44
24.00 18.13
25.00 16.01
26.00 15.95
27.00 17.79
28.00 21.98
29.00 28.87
30.00 27.36
31.00 23.92
32.00 22.81
33.00 22.88
34.00 23.97
35.00 27.14
36.00 35.91
37.00 30.31
38.00 23.89
39.00 21.28
40.00 20.62
41.00 21.24
42.00 22.62
43.00 23.99
44.00 24.30
45.00 23.12
46.00 21.32
47.00 19.90
48.00 19.21
49.00 19.25
50.00 19.81
51.00 20.64
52.00 21.57
53.00 22.66
54.00 24.18
55.00 26.38
56.00 28.78
57.00 29.07
58.00 27.24
59.00 25.62
60.00 24.73
61.00 24.38
62.00 24.40
63.00 24.76
64.00 25.55
65.00 26.90
66.00 28.87
67.00 31.45
68.00 34.45
69.00 37.26
70.00 38.73
71.00 38.73
72.00 38.41
73.00 38.20
74.00 37.82
75.00 36.98
76.00 35.77
77.00 34.63
78.00 33.95
79.00 33.88
80.00 34.29
81.00 34.74
82.00 34.76
83.00 34.31
84.00 33.77
85.00 33.59
86.00 34.08
87.00 35.32
88.00 36.80
89.00 37.22
90.00 35.74
91.00 33.47
92.00 31.61
93.00 30.67
94.00 30.78
95.00 31.91
96.00 33.84
97.00 36.04
98.00 37.61
99.00 37.84
100.00 37.19
101.00 36.69
102.00 36.90
103.00 37.91
104.00 39.50
105.00 41.27
106.00 42.94
107.00 44.59
108.00 46.49
109.00 48.52
110.00 48.44
111.00 45.84
112.00 43.53
113.00 42.19
114.00 41.70
115.00 42.01
116.00 43.03
117.00 43.86
118.00 43.11
119.00 41.63
120.00 40.65
121.00 40.20
122.00 39.77
123.00 38.96
124.00 37.84
125.00 36.82
126.00 36.18
127.00 35.70
128.00 34.78
129.00 33.29
130.00 31.82
131.00 30.80
132.00 30.36
133.00 30.47
134.00 30.96
135.00 31.56
136.00 32.25
137.00 33.46
138.00 35.70
139.00 38.59
140.00 39.13
141.00 37.93
142.00 38.09
143.00 40.24
144.00 43.72
145.00 45.03
146.00 44.00
147.00 43.02
148.00 41.65
149.00 40.37
150.00 40.00
151.00 40.46
152.00 40.64
153.00 40.07
154.00 39.15
155.00 37.09
156.00 34.40
157.00 32.80
158.00 33.06
159.00 35.38
160.00 38.47
161.00 38.56
162.00 39.05
163.00 43.12
164.00 41.04
165.00 36.10
166.00 34.69
167.00 35.90
168.00 38.66
169.00 40.24
170.00 39.80
171.00 38.57
172.00 36.76
173.00 35.39
174.00 34.43
175.00 32.78
176.00 30.78
177.00 29.72
178.00 30.23
179.00 32.71
180.00 37.24
181.00 39.41
182.00 37.29
183.00 36.68
184.00 37.33
185.00 37.65
186.00 37.34
187.00 37.42
188.00 38.44
189.00 40.44
190.00 43.08
191.00 45.14
192.00 44.96
193.00 42.91
194.00 40.57
195.00 38.23
196.00 35.61
197.00 33.17
198.00 31.62
199.00 31.24
200.00 31.90
201.00 33.10
202.00 34.50
203.00 36.99
204.00 43.62
205.00 48.92
206.00 37.23
207.00 32.90
208.00 30.79
209.00 30.19
210.00 31.19
211.00 34.25
212.00 39.72
213.00 40.76
214.00 37.90
215.00 37.82
216.00 40.89
217.00 44.96
218.00 38.52
219.00 34.02
220.00 32.04
221.00 31.74
222.00 32.55
223.00 33.76
224.00 34.69
225.00 35.14
226.00 35.46
227.00 36.00
228.00 36.39
229.00 35.74
230.00 34.32
231.00 33.15
232.00 32.69
233.00 33.15
234.00 34.51
235.00 36.07
236.00 36.46
237.00 36.30
238.00 37.50
239.00 41.88
240.00 59.56
241.00 42.39
242.00 36.92
243.00 34.47
244.00 33.46
245.00 33.57
246.00 34.98
247.00 37.95
248.00 41.23
249.00 39.98
250.00 37.60
251.00 36.66
252.00 36.66
253.00 36.71
254.00 36.61
255.00 37.39
256.00 40.51
257.00 47.97
258.00 41.62
259.00 35.55
260.00 32.15
261.00 29.89
262.00 28.19
263.00 26.89
264.00 25.99
265.00 25.51
266.00 25.39
267.00 25.45
268.00 25.48
269.00 25.33
270.00 25.01
271.00 24.63
272.00 24.25
273.00 23.91
274.00 23.64
275.00 23.48
276.00 23.46
277.00 23.51
278.00 23.60
279.00 23.77
280.00 24.20
281.00 25.15
282.00 26.90
283.00 29.61
284.00 33.06
285.00 35.59
286.00 35.37
287.00 34.00
288.00 32.51
289.00 30.79
290.00 28.69
291.00 26.34
292.00 24.11
293.00 22.34
294.00 21.28
295.00 21.08
296.00 21.81
297.00 23.46
298.00 25.67
299.00 27.50
300.00 28.72
301.00 31.02
302.00 38.28
303.00 38.94
304.00 29.16
305.00 25.49
306.00 24.31
307.00 25.00
308.00 27.71
309.00 33.94
310.00 42.02
311.00 30.58
312.00 25.89
313.00 23.48
314.00 22.30
315.00 21.88
316.00 21.91
317.00 22.44
318.00 24.08
319.00 28.35
320.00 35.03
321.00 26.19
322.00 21.62
323.00 20.06
324.00 20.85
325.00 24.71
326.00 37.14
327.00 27.17
328.00 21.00
329.00 17.91
330.00 15.91
331.00 14.56
332.00 13.88
333.00 14.03
334.00 15.16
335.00 17.45
336.00 21.14
337.00 26.81
338.00 33.71
339.00 32.33
340.00 30.30
341.00 29.76
342.00 27.49
343.00 24.01
344.00 21.89
345.00 21.87
346.00 24.78
347.00 32.88
348.00 26.02
349.00 20.32
350.00 17.98
351.00 17.72
352.00 19.51
353.00 24.83
354.00 38.17
355.00 24.21
356.00 19.72
357.00 17.95
358.00 17.61
359.00 18.33
