NAME ATR4518R7_2350_X_CO_M45_05T_yL
FREQUENCY 2350
GAIN 15.73 dBd
TILT	ELECTRICAL
COMMENT DATE 05.08.2013 -45 degrees polarized system Lever position 05T deg
HORIZONTAL 360
0.00 0.01
1.00 0.03
2.00 0.06
3.00 0.10
4.00 0.16
5.00 0.23
6.00 0.31
7.00 0.41
8.00 0.52
9.00 0.63
10.00 0.76
11.00 0.89
12.00 1.04
13.00 1.18
14.00 1.33
15.00 1.48
16.00 1.63
17.00 1.78
18.00 1.92
19.00 2.07
20.00 2.21
21.00 2.35
22.00 2.48
23.00 2.62
24.00 2.76
25.00 2.90
26.00 3.04
27.00 3.19
28.00 3.34
29.00 3.51
30.00 3.68
31.00 3.86
32.00 4.05
33.00 4.26
34.00 4.48
35.00 4.71
36.00 4.95
37.00 5.20
38.00 5.47
39.00 5.75
40.00 6.03
41.00 6.32
42.00 6.61
43.00 6.91
44.00 7.21
45.00 7.51
46.00 7.80
47.00 8.09
48.00 8.38
49.00 8.65
50.00 8.91
51.00 9.17
52.00 9.41
53.00 9.64
54.00 9.85
55.00 10.05
56.00 10.25
57.00 10.43
58.00 10.61
59.00 10.79
60.00 10.95
61.00 11.12
62.00 11.29
63.00 11.47
64.00 11.64
65.00 11.83
66.00 12.02
67.00 12.23
68.00 12.44
69.00 12.67
70.00 12.91
71.00 13.16
72.00 13.42
73.00 13.69
74.00 13.97
75.00 14.26
76.00 14.57
77.00 14.87
78.00 15.19
79.00 15.51
80.00 15.84
81.00 16.17
82.00 16.51
83.00 16.85
84.00 17.20
85.00 17.56
86.00 17.92
87.00 18.29
88.00 18.67
89.00 19.07
90.00 19.48
91.00 19.91
92.00 20.36
93.00 20.84
94.00 21.33
95.00 21.85
96.00 22.40
97.00 22.97
98.00 23.56
99.00 24.17
100.00 24.79
101.00 25.42
102.00 26.05
103.00 26.67
104.00 27.27
105.00 27.84
106.00 28.38
107.00 28.88
108.00 29.33
109.00 29.73
110.00 30.10
111.00 30.44
112.00 30.75
113.00 31.04
114.00 31.32
115.00 31.58
116.00 31.83
117.00 32.06
118.00 32.29
119.00 32.49
120.00 32.69
121.00 32.88
122.00 33.07
123.00 33.26
124.00 33.47
125.00 33.70
126.00 33.97
127.00 34.28
128.00 34.64
129.00 35.06
130.00 35.53
131.00 36.06
132.00 36.64
133.00 37.26
134.00 37.90
135.00 38.51
136.00 39.07
137.00 39.52
138.00 39.80
139.00 39.88
140.00 39.74
141.00 39.40
142.00 38.89
143.00 38.26
144.00 37.54
145.00 36.78
146.00 36.01
147.00 35.25
148.00 34.53
149.00 33.86
150.00 33.26
151.00 32.74
152.00 32.30
153.00 31.95
154.00 31.71
155.00 31.56
156.00 31.52
157.00 31.58
158.00 31.75
159.00 32.01
160.00 32.36
161.00 32.77
162.00 33.20
163.00 33.58
164.00 33.83
165.00 33.87
166.00 33.68
167.00 33.28
168.00 32.75
169.00 32.17
170.00 31.61
171.00 31.13
172.00 30.74
173.00 30.49
174.00 30.38
175.00 30.43
176.00 30.65
177.00 31.04
178.00 31.64
179.00 32.45
180.00 33.50
181.00 34.76
182.00 36.12
183.00 37.26
184.00 37.59
185.00 36.81
186.00 35.38
187.00 33.84
188.00 32.44
189.00 31.27
190.00 30.34
191.00 29.63
192.00 29.12
193.00 28.81
194.00 28.69
195.00 28.76
196.00 29.03
197.00 29.52
198.00 30.24
199.00 31.24
200.00 32.58
201.00 34.36
202.00 36.78
203.00 40.03
204.00 43.56
205.00 43.12
206.00 39.49
207.00 36.42
208.00 34.15
209.00 32.47
210.00 31.22
211.00 30.30
212.00 29.64
213.00 29.22
214.00 29.00
215.00 28.98
216.00 29.14
217.00 29.50
218.00 30.07
219.00 30.86
220.00 31.90
221.00 33.28
222.00 35.07
223.00 37.44
224.00 40.71
225.00 45.08
226.00 46.98
227.00 43.01
228.00 39.35
229.00 36.76
230.00 34.87
231.00 33.45
232.00 32.37
233.00 31.54
234.00 30.91
235.00 30.43
236.00 30.08
237.00 29.83
238.00 29.67
239.00 29.56
240.00 29.48
241.00 29.42
242.00 29.36
243.00 29.26
244.00 29.13
245.00 28.95
246.00 28.72
247.00 28.43
248.00 28.11
249.00 27.76
250.00 27.39
251.00 27.02
252.00 26.66
253.00 26.30
254.00 25.97
255.00 25.65
256.00 25.36
257.00 25.08
258.00 24.82
259.00 24.57
260.00 24.32
261.00 24.07
262.00 23.82
263.00 23.54
264.00 23.25
265.00 22.93
266.00 22.59
267.00 22.23
268.00 21.85
269.00 21.46
270.00 21.06
271.00 20.66
272.00 20.26
273.00 19.87
274.00 19.49
275.00 19.12
276.00 18.77
277.00 18.43
278.00 18.11
279.00 17.80
280.00 17.50
281.00 17.21
282.00 16.93
283.00 16.65
284.00 16.37
285.00 16.09
286.00 15.80
287.00 15.50
288.00 15.20
289.00 14.88
290.00 14.56
291.00 14.22
292.00 13.88
293.00 13.53
294.00 13.18
295.00 12.82
296.00 12.46
297.00 12.10
298.00 11.74
299.00 11.38
300.00 11.03
301.00 10.67
302.00 10.33
303.00 9.98
304.00 9.64
305.00 9.30
306.00 8.97
307.00 8.63
308.00 8.30
309.00 7.98
310.00 7.66
311.00 7.34
312.00 7.02
313.00 6.71
314.00 6.40
315.00 6.10
316.00 5.80
317.00 5.51
318.00 5.22
319.00 4.94
320.00 4.66
321.00 4.39
322.00 4.13
323.00 3.87
324.00 3.63
325.00 3.39
326.00 3.16
327.00 2.94
328.00 2.73
329.00 2.52
330.00 2.33
331.00 2.14
332.00 1.96
333.00 1.80
334.00 1.64
335.00 1.49
336.00 1.36
337.00 1.23
338.00 1.11
339.00 1.01
340.00 0.91
341.00 0.82
342.00 0.74
343.00 0.66
344.00 0.59
345.00 0.53
346.00 0.47
347.00 0.41
348.00 0.36
349.00 0.31
350.00 0.26
351.00 0.22
352.00 0.18
353.00 0.13
354.00 0.10
355.00 0.07
356.00 0.04
357.00 0.02
358.00 0.01
359.00 0.00
VERTICAL 360
0.00 16.60
1.00 9.62
2.00 5.20
3.00 2.33
4.00 0.65
5.00 0.00
6.00 0.38
7.00 1.93
8.00 5.09
9.00 11.31
10.00 36.71
11.00 14.23
12.00 10.79
13.00 10.94
14.00 13.44
15.00 17.68
16.00 18.92
17.00 16.24
18.00 14.94
19.00 15.80
20.00 18.99
21.00 20.83
22.00 17.44
23.00 15.68
24.00 16.53
25.00 20.52
26.00 33.44
27.00 26.26
28.00 19.83
29.00 17.66
30.00 17.68
31.00 19.66
32.00 23.27
33.00 24.39
34.00 22.15
35.00 20.87
36.00 20.52
37.00 20.47
38.00 20.72
39.00 21.64
40.00 23.26
41.00 25.03
42.00 26.50
43.00 28.25
44.00 30.80
45.00 31.48
46.00 28.86
47.00 26.76
48.00 26.03
49.00 26.46
50.00 27.81
51.00 29.94
52.00 32.89
53.00 37.42
54.00 48.65
55.00 41.10
56.00 33.81
57.00 30.27
58.00 28.30
59.00 27.16
60.00 26.53
61.00 26.35
62.00 26.67
63.00 27.60
64.00 29.11
65.00 31.07
66.00 33.28
67.00 35.47
68.00 37.34
69.00 38.97
70.00 40.88
71.00 43.14
72.00 45.26
73.00 46.42
74.00 45.82
75.00 45.63
76.00 48.02
77.00 53.42
78.00 53.15
79.00 49.36
80.00 46.50
81.00 45.22
82.00 46.79
83.00 51.34
84.00 49.07
85.00 46.06
86.00 46.39
87.00 47.57
88.00 45.58
89.00 43.00
90.00 41.53
91.00 41.11
92.00 41.72
93.00 43.30
94.00 45.22
95.00 45.89
96.00 44.76
97.00 43.36
98.00 42.70
99.00 42.94
100.00 43.67
101.00 44.10
102.00 43.63
103.00 42.64
104.00 42.00
105.00 42.23
106.00 43.37
107.00 45.03
108.00 46.60
109.00 47.92
110.00 49.46
111.00 51.35
112.00 52.24
113.00 52.35
114.00 54.74
115.00 66.01
116.00 54.61
117.00 47.56
118.00 44.18
119.00 43.02
120.00 44.17
121.00 48.79
122.00 59.30
123.00 49.97
124.00 44.71
125.00 40.75
126.00 37.95
127.00 36.88
128.00 37.72
129.00 40.54
130.00 44.90
131.00 49.67
132.00 51.22
133.00 45.20
134.00 41.16
135.00 39.28
136.00 38.52
137.00 38.06
138.00 37.65
139.00 37.68
140.00 38.33
141.00 38.48
142.00 37.27
143.00 36.37
144.00 36.90
145.00 38.84
146.00 41.24
147.00 42.93
148.00 43.26
149.00 42.33
150.00 42.16
151.00 44.23
152.00 47.30
153.00 44.39
154.00 40.87
155.00 38.92
156.00 37.83
157.00 37.23
158.00 37.21
159.00 38.18
160.00 40.85
161.00 46.84
162.00 54.04
163.00 48.52
164.00 49.14
165.00 50.90
166.00 45.32
167.00 41.79
168.00 39.42
169.00 37.16
170.00 35.29
171.00 33.70
172.00 32.22
173.00 31.32
174.00 31.43
175.00 32.45
176.00 33.72
177.00 35.17
178.00 37.33
179.00 40.49
180.00 43.55
181.00 43.99
182.00 42.51
183.00 41.57
184.00 40.63
185.00 38.69
186.00 37.37
187.00 37.76
188.00 39.24
189.00 39.27
190.00 37.93
191.00 37.42
192.00 38.01
193.00 38.92
194.00 39.28
195.00 39.55
196.00 40.43
197.00 41.43
198.00 41.57
199.00 41.44
200.00 41.90
201.00 42.48
202.00 41.93
203.00 40.94
204.00 40.80
205.00 40.69
206.00 38.69
207.00 35.85
208.00 33.66
209.00 32.56
210.00 32.66
211.00 33.47
212.00 33.96
213.00 34.46
214.00 36.82
215.00 43.63
216.00 47.70
217.00 41.51
218.00 40.74
219.00 40.52
220.00 39.12
221.00 39.09
222.00 41.39
223.00 43.31
224.00 41.14
225.00 39.72
226.00 40.55
227.00 43.71
228.00 46.09
229.00 42.35
230.00 39.72
231.00 39.50
232.00 41.70
233.00 46.79
234.00 58.03
235.00 50.43
236.00 41.67
237.00 37.21
238.00 35.24
239.00 35.10
240.00 36.08
241.00 36.64
242.00 35.60
243.00 33.98
244.00 32.72
245.00 32.09
246.00 32.11
247.00 32.71
248.00 33.74
249.00 34.99
250.00 36.57
251.00 38.82
252.00 40.95
253.00 39.85
254.00 36.93
255.00 34.48
256.00 32.62
257.00 31.22
258.00 30.28
259.00 29.78
260.00 29.66
261.00 29.77
262.00 29.97
263.00 30.10
264.00 29.94
265.00 29.30
266.00 28.22
267.00 26.96
268.00 25.85
269.00 25.05
270.00 24.51
271.00 24.15
272.00 23.84
273.00 23.53
274.00 23.20
275.00 22.81
276.00 22.38
277.00 21.94
278.00 21.58
279.00 21.37
280.00 21.33
281.00 21.31
282.00 21.15
283.00 20.72
284.00 20.13
285.00 19.56
286.00 19.15
287.00 18.93
288.00 18.88
289.00 18.94
290.00 19.02
291.00 18.93
292.00 18.55
293.00 17.98
294.00 17.54
295.00 17.52
296.00 18.07
297.00 19.18
298.00 20.76
299.00 22.79
300.00 25.62
301.00 30.28
302.00 34.46
303.00 28.79
304.00 24.67
305.00 22.43
306.00 21.31
307.00 21.06
308.00 21.77
309.00 23.82
310.00 27.90
311.00 32.61
312.00 28.83
313.00 25.41
314.00 24.13
315.00 24.30
316.00 25.29
317.00 25.97
318.00 25.32
319.00 23.73
320.00 22.03
321.00 20.82
322.00 20.70
323.00 22.52
324.00 28.64
325.00 36.94
326.00 23.77
327.00 19.93
328.00 18.88
329.00 19.65
330.00 22.03
331.00 26.02
332.00 29.46
333.00 28.11
334.00 27.23
335.00 29.09
336.00 30.80
337.00 26.45
338.00 23.32
339.00 22.63
340.00 24.15
341.00 27.06
342.00 25.75
343.00 21.97
344.00 20.07
345.00 20.47
346.00 24.09
347.00 41.10
348.00 25.87
349.00 20.13
350.00 18.36
351.00 18.86
352.00 21.13
353.00 23.87
354.00 24.36
355.00 24.04
356.00 24.52
357.00 25.41
358.00 29.29
359.00 31.62
