NAME ATR4518R7_2655_X_CO_P45_10T_yL
FREQUENCY 2655
GAIN 15.04 dBd
TILT	ELECTRICAL
COMMENT DATE 05.08.2013 +45 degrees polarized system Lever position 10T deg
HORIZONTAL 360
0.00 0.02
1.00 0.00
2.00 0.00
3.00 0.01
4.00 0.04
5.00 0.08
6.00 0.14
7.00 0.19
8.00 0.26
9.00 0.33
10.00 0.40
11.00 0.47
12.00 0.55
13.00 0.62
14.00 0.70
15.00 0.76
16.00 0.83
17.00 0.90
18.00 0.97
19.00 1.04
20.00 1.13
21.00 1.21
22.00 1.30
23.00 1.41
24.00 1.51
25.00 1.63
26.00 1.76
27.00 1.90
28.00 2.05
29.00 2.21
30.00 2.38
31.00 2.56
32.00 2.74
33.00 2.93
34.00 3.14
35.00 3.34
36.00 3.54
37.00 3.75
38.00 3.95
39.00 4.15
40.00 4.36
41.00 4.57
42.00 4.76
43.00 4.95
44.00 5.14
45.00 5.32
46.00 5.50
47.00 5.69
48.00 5.87
49.00 6.05
50.00 6.23
51.00 6.41
52.00 6.61
53.00 6.80
54.00 7.00
55.00 7.21
56.00 7.42
57.00 7.65
58.00 7.88
59.00 8.11
60.00 8.36
61.00 8.61
62.00 8.86
63.00 9.12
64.00 9.38
65.00 9.65
66.00 9.91
67.00 10.18
68.00 10.44
69.00 10.71
70.00 10.97
71.00 11.25
72.00 11.53
73.00 11.81
74.00 12.08
75.00 12.36
76.00 12.65
77.00 12.93
78.00 13.22
79.00 13.51
80.00 13.80
81.00 14.11
82.00 14.42
83.00 14.73
84.00 15.06
85.00 15.40
86.00 15.74
87.00 16.08
88.00 16.44
89.00 16.80
90.00 17.17
91.00 17.53
92.00 17.91
93.00 18.28
94.00 18.65
95.00 19.01
96.00 19.38
97.00 19.74
98.00 20.09
99.00 20.43
100.00 20.77
101.00 21.11
102.00 21.45
103.00 21.77
104.00 22.11
105.00 22.46
106.00 22.80
107.00 23.17
108.00 23.56
109.00 23.96
110.00 24.39
111.00 24.82
112.00 25.28
113.00 25.77
114.00 26.26
115.00 26.76
116.00 27.26
117.00 27.76
118.00 28.23
119.00 28.67
120.00 29.08
121.00 29.44
122.00 29.75
123.00 30.02
124.00 30.26
125.00 30.46
126.00 30.66
127.00 30.85
128.00 31.06
129.00 31.30
130.00 31.57
131.00 31.89
132.00 32.25
133.00 32.64
134.00 33.05
135.00 33.47
136.00 33.83
137.00 34.13
138.00 34.32
139.00 34.38
140.00 34.33
141.00 34.19
142.00 34.03
143.00 33.88
144.00 33.79
145.00 33.81
146.00 33.96
147.00 34.28
148.00 34.81
149.00 35.59
150.00 36.67
151.00 38.16
152.00 40.19
153.00 43.01
154.00 46.69
155.00 48.65
156.00 45.51
157.00 41.96
158.00 39.33
159.00 37.41
160.00 36.00
161.00 34.97
162.00 34.24
163.00 33.75
164.00 33.47
165.00 33.37
166.00 33.40
167.00 33.51
168.00 33.65
169.00 33.73
170.00 33.68
171.00 33.45
172.00 33.03
173.00 32.46
174.00 31.82
175.00 31.18
176.00 30.58
177.00 30.06
178.00 29.64
179.00 29.34
180.00 29.17
181.00 29.12
182.00 29.21
183.00 29.45
184.00 29.82
185.00 30.36
186.00 31.05
187.00 31.91
188.00 32.95
189.00 34.13
190.00 35.37
191.00 36.50
192.00 37.22
193.00 37.27
194.00 36.71
195.00 35.85
196.00 34.96
197.00 34.19
198.00 33.61
199.00 33.23
200.00 33.07
201.00 33.14
202.00 33.44
203.00 33.99
204.00 34.83
205.00 36.01
206.00 37.58
207.00 39.63
208.00 42.12
209.00 44.33
210.00 44.24
211.00 42.07
212.00 39.77
213.00 37.94
214.00 36.60
215.00 35.68
216.00 35.11
217.00 34.88
218.00 34.95
219.00 35.34
220.00 36.08
221.00 37.20
222.00 38.80
223.00 40.96
224.00 43.51
225.00 45.04
226.00 43.55
227.00 40.79
228.00 38.37
229.00 36.48
230.00 35.03
231.00 33.93
232.00 33.12
233.00 32.53
234.00 32.12
235.00 31.84
236.00 31.66
237.00 31.52
238.00 31.36
239.00 31.15
240.00 30.85
241.00 30.44
242.00 29.94
243.00 29.39
244.00 28.81
245.00 28.25
246.00 27.73
247.00 27.27
248.00 26.88
249.00 26.56
250.00 26.31
251.00 26.13
252.00 26.02
253.00 25.95
254.00 25.92
255.00 25.91
256.00 25.90
257.00 25.87
258.00 25.79
259.00 25.67
260.00 25.49
261.00 25.26
262.00 24.98
263.00 24.68
264.00 24.38
265.00 24.08
266.00 23.81
267.00 23.58
268.00 23.38
269.00 23.23
270.00 23.12
271.00 23.05
272.00 23.01
273.00 22.98
274.00 22.95
275.00 22.89
276.00 22.81
277.00 22.67
278.00 22.48
279.00 22.23
280.00 21.94
281.00 21.61
282.00 21.28
283.00 20.95
284.00 20.64
285.00 20.37
286.00 20.15
287.00 19.98
288.00 19.86
289.00 19.80
290.00 19.80
291.00 19.84
292.00 19.93
293.00 20.06
294.00 20.19
295.00 20.32
296.00 20.42
297.00 20.47
298.00 20.44
299.00 20.32
300.00 20.08
301.00 19.76
302.00 19.35
303.00 18.88
304.00 18.36
305.00 17.80
306.00 17.22
307.00 16.63
308.00 16.02
309.00 15.40
310.00 14.77
311.00 14.13
312.00 13.49
313.00 12.84
314.00 12.19
315.00 11.55
316.00 10.93
317.00 10.31
318.00 9.72
319.00 9.15
320.00 8.61
321.00 8.11
322.00 7.63
323.00 7.19
324.00 6.78
325.00 6.40
326.00 6.05
327.00 5.72
328.00 5.41
329.00 5.13
330.00 4.88
331.00 4.65
332.00 4.44
333.00 4.23
334.00 4.02
335.00 3.82
336.00 3.62
337.00 3.42
338.00 3.22
339.00 3.03
340.00 2.82
341.00 2.63
342.00 2.44
343.00 2.25
344.00 2.07
345.00 1.88
346.00 1.71
347.00 1.54
348.00 1.36
349.00 1.20
350.00 1.04
351.00 0.89
352.00 0.74
353.00 0.60
354.00 0.48
355.00 0.36
356.00 0.27
357.00 0.19
358.00 0.11
359.00 0.06
VERTICAL 360
0.00 23.22
1.00 18.97
2.00 17.41
3.00 17.11
4.00 15.67
5.00 11.47
6.00 7.06
7.00 3.67
8.00 1.41
9.00 0.20
10.00 0.07
11.00 1.14
12.00 3.79
13.00 9.23
14.00 26.08
15.00 13.71
16.00 9.34
17.00 9.03
18.00 11.64
19.00 18.64
20.00 26.88
21.00 18.54
22.00 17.85
23.00 21.77
24.00 40.43
25.00 24.76
26.00 20.32
27.00 20.60
28.00 25.64
29.00 38.53
30.00 24.10
31.00 20.81
32.00 21.19
33.00 26.02
34.00 36.23
35.00 20.76
36.00 15.82
37.00 13.50
38.00 12.58
39.00 12.78
40.00 14.27
41.00 17.54
42.00 23.96
43.00 41.73
44.00 27.07
45.00 22.35
46.00 20.23
47.00 19.75
48.00 20.92
49.00 23.75
50.00 27.67
51.00 30.92
52.00 31.47
53.00 30.64
54.00 31.72
55.00 35.85
56.00 42.83
57.00 40.89
58.00 33.35
59.00 30.41
60.00 31.01
61.00 34.79
62.00 41.17
63.00 41.60
64.00 39.35
65.00 42.41
66.00 47.69
67.00 39.98
68.00 39.71
69.00 42.96
70.00 45.16
71.00 54.05
72.00 41.45
73.00 38.23
74.00 40.97
75.00 47.70
76.00 53.59
77.00 48.06
78.00 39.90
79.00 39.72
80.00 45.52
81.00 44.14
82.00 43.22
83.00 50.61
84.00 55.34
85.00 46.72
86.00 41.43
87.00 39.51
88.00 40.59
89.00 43.55
90.00 52.37
91.00 48.38
92.00 41.39
93.00 39.66
94.00 38.02
95.00 37.02
96.00 38.54
97.00 42.96
98.00 49.14
99.00 40.45
100.00 36.19
101.00 36.74
102.00 43.12
103.00 57.05
104.00 53.96
105.00 46.59
106.00 39.39
107.00 39.26
108.00 44.74
109.00 46.70
110.00 47.24
111.00 62.36
112.00 44.10
113.00 41.57
114.00 42.22
115.00 41.85
116.00 39.78
117.00 37.36
118.00 36.33
119.00 37.85
120.00 43.34
121.00 50.25
122.00 42.99
123.00 41.07
124.00 42.33
125.00 44.34
126.00 42.93
127.00 39.30
128.00 37.00
129.00 37.84
130.00 40.21
131.00 35.76
132.00 33.01
133.00 33.37
134.00 34.82
135.00 35.44
136.00 37.27
137.00 41.26
138.00 43.48
139.00 38.06
140.00 32.97
141.00 30.97
142.00 31.50
143.00 33.25
144.00 34.26
145.00 34.05
146.00 33.36
147.00 33.76
148.00 36.23
149.00 39.40
150.00 40.61
151.00 42.09
152.00 43.55
153.00 45.16
154.00 41.91
155.00 37.04
156.00 35.26
157.00 34.69
158.00 32.62
159.00 30.61
160.00 30.14
161.00 30.82
162.00 31.91
163.00 33.56
164.00 35.90
165.00 38.63
166.00 49.33
167.00 38.39
168.00 30.77
169.00 28.11
170.00 28.23
171.00 30.68
172.00 36.09
173.00 54.82
174.00 38.68
175.00 33.57
176.00 32.66
177.00 34.70
178.00 39.55
179.00 42.80
180.00 39.54
181.00 36.63
182.00 35.65
183.00 37.35
184.00 43.44
185.00 50.27
186.00 40.71
187.00 36.82
188.00 34.67
189.00 33.51
190.00 33.31
191.00 33.93
192.00 34.11
193.00 32.56
194.00 30.66
195.00 29.61
196.00 29.63
197.00 30.73
198.00 32.86
199.00 35.91
200.00 39.23
201.00 40.55
202.00 39.81
203.00 39.69
204.00 40.61
205.00 40.74
206.00 39.47
207.00 39.01
208.00 39.81
209.00 40.50
210.00 40.33
211.00 39.40
212.00 37.72
213.00 36.07
214.00 34.42
215.00 32.77
216.00 32.07
217.00 33.02
218.00 35.41
219.00 37.31
220.00 38.27
221.00 41.84
222.00 55.53
223.00 43.05
224.00 37.64
225.00 35.31
226.00 34.80
227.00 36.07
228.00 38.74
229.00 40.99
230.00 42.46
231.00 46.37
232.00 55.60
233.00 46.19
234.00 41.74
235.00 40.46
236.00 40.53
237.00 39.56
238.00 37.83
239.00 37.68
240.00 40.21
241.00 46.15
242.00 47.49
243.00 42.98
244.00 40.91
245.00 40.36
246.00 41.02
247.00 44.22
248.00 46.68
249.00 40.62
250.00 38.63
251.00 40.31
252.00 44.06
253.00 45.63
254.00 42.57
255.00 39.96
256.00 40.55
257.00 42.89
258.00 43.01
259.00 45.83
260.00 51.60
261.00 44.47
262.00 41.97
263.00 40.61
264.00 40.71
265.00 43.62
266.00 48.52
267.00 52.66
268.00 42.32
269.00 37.95
270.00 36.76
271.00 35.81
272.00 35.71
273.00 39.68
274.00 62.52
275.00 41.98
276.00 40.67
277.00 42.90
278.00 43.91
279.00 46.42
280.00 52.76
281.00 52.43
282.00 41.52
283.00 36.96
284.00 35.96
285.00 37.41
286.00 40.45
287.00 43.70
288.00 42.98
289.00 38.18
290.00 33.69
291.00 30.91
292.00 29.68
293.00 29.29
294.00 28.83
295.00 27.96
296.00 27.31
297.00 27.60
298.00 28.86
299.00 30.53
300.00 32.32
301.00 33.09
302.00 32.01
303.00 31.17
304.00 29.97
305.00 26.82
306.00 23.17
307.00 19.86
308.00 16.86
309.00 14.20
310.00 11.98
311.00 10.27
312.00 9.08
313.00 8.45
314.00 8.49
315.00 9.40
316.00 11.52
317.00 15.64
318.00 25.62
319.00 20.67
320.00 13.62
321.00 11.38
322.00 11.50
323.00 13.81
324.00 19.41
325.00 29.88
326.00 20.69
327.00 17.61
328.00 18.11
329.00 22.35
330.00 34.62
331.00 22.50
332.00 18.36
333.00 18.29
334.00 22.42
335.00 30.55
336.00 20.15
337.00 16.29
338.00 15.79
339.00 18.34
340.00 25.12
341.00 20.61
342.00 15.48
343.00 13.52
344.00 13.89
345.00 16.52
346.00 21.85
347.00 25.44
348.00 20.78
349.00 18.92
350.00 19.18
351.00 20.74
352.00 23.32
353.00 26.69
354.00 27.00
355.00 23.41
356.00 21.32
357.00 21.86
358.00 26.43
359.00 34.37
