NAME ATR4518R7_2350_X_CO_P45_03T_yyR
FREQUENCY 2350
GAIN 15.55 dBd
TILT	ELECTRICAL
COMMENT DATE 05.08.2013 +45 degrees polarized system Lever position 03T deg
HORIZONTAL 360
0.00 0.00
1.00 0.00
2.00 0.01
3.00 0.03
4.00 0.05
5.00 0.08
6.00 0.12
7.00 0.16
8.00 0.21
9.00 0.26
10.00 0.32
11.00 0.38
12.00 0.45
13.00 0.52
14.00 0.60
15.00 0.68
16.00 0.76
17.00 0.85
18.00 0.95
19.00 1.05
20.00 1.15
21.00 1.26
22.00 1.37
23.00 1.49
24.00 1.61
25.00 1.74
26.00 1.88
27.00 2.02
28.00 2.16
29.00 2.32
30.00 2.48
31.00 2.64
32.00 2.82
33.00 3.00
34.00 3.19
35.00 3.39
36.00 3.59
37.00 3.81
38.00 4.03
39.00 4.26
40.00 4.50
41.00 4.75
42.00 5.00
43.00 5.27
44.00 5.54
45.00 5.82
46.00 6.11
47.00 6.41
48.00 6.72
49.00 7.04
50.00 7.37
51.00 7.71
52.00 8.06
53.00 8.41
54.00 8.78
55.00 9.16
56.00 9.54
57.00 9.94
58.00 10.34
59.00 10.76
60.00 11.18
61.00 11.62
62.00 12.06
63.00 12.52
64.00 12.98
65.00 13.45
66.00 13.93
67.00 14.43
68.00 14.92
69.00 15.43
70.00 15.95
71.00 16.48
72.00 17.01
73.00 17.55
74.00 18.10
75.00 18.66
76.00 19.23
77.00 19.81
78.00 20.40
79.00 21.00
80.00 21.61
81.00 22.23
82.00 22.87
83.00 23.51
84.00 24.17
85.00 24.84
86.00 25.51
87.00 26.19
88.00 26.86
89.00 27.51
90.00 28.14
91.00 28.74
92.00 29.28
93.00 29.75
94.00 30.14
95.00 30.44
96.00 30.66
97.00 30.81
98.00 30.89
99.00 30.92
100.00 30.93
101.00 30.93
102.00 30.94
103.00 30.96
104.00 31.02
105.00 31.11
106.00 31.26
107.00 31.45
108.00 31.71
109.00 32.03
110.00 32.43
111.00 32.91
112.00 33.48
113.00 34.14
114.00 34.92
115.00 35.83
116.00 36.89
117.00 38.13
118.00 39.58
119.00 41.28
120.00 43.24
121.00 45.35
122.00 47.13
123.00 47.52
124.00 46.36
125.00 44.64
126.00 42.99
127.00 41.60
128.00 40.48
129.00 39.58
130.00 38.88
131.00 38.36
132.00 37.97
133.00 37.72
134.00 37.59
135.00 37.57
136.00 37.64
137.00 37.82
138.00 38.08
139.00 38.41
140.00 38.83
141.00 39.30
142.00 39.82
143.00 40.38
144.00 40.94
145.00 41.49
146.00 41.98
147.00 42.39
148.00 42.68
149.00 42.83
150.00 42.82
151.00 42.67
152.00 42.39
153.00 42.00
154.00 41.52
155.00 40.97
156.00 40.37
157.00 39.74
158.00 39.11
159.00 38.48
160.00 37.88
161.00 37.30
162.00 36.78
163.00 36.30
164.00 35.88
165.00 35.53
166.00 35.24
167.00 35.03
168.00 34.90
169.00 34.84
170.00 34.87
171.00 34.99
172.00 35.19
173.00 35.49
174.00 35.88
175.00 36.36
176.00 36.94
177.00 37.59
178.00 38.29
179.00 38.99
180.00 39.60
181.00 40.00
182.00 40.09
183.00 39.81
184.00 39.25
185.00 38.50
186.00 37.68
187.00 36.86
188.00 36.09
189.00 35.40
190.00 34.78
191.00 34.25
192.00 33.80
193.00 33.43
194.00 33.13
195.00 32.90
196.00 32.73
197.00 32.63
198.00 32.59
199.00 32.60
200.00 32.67
201.00 32.80
202.00 32.99
203.00 33.22
204.00 33.50
205.00 33.84
206.00 34.21
207.00 34.61
208.00 35.03
209.00 35.44
210.00 35.81
211.00 36.09
212.00 36.25
213.00 36.24
214.00 36.07
215.00 35.75
216.00 35.31
217.00 34.80
218.00 34.26
219.00 33.74
220.00 33.24
221.00 32.78
222.00 32.39
223.00 32.07
224.00 31.81
225.00 31.62
226.00 31.51
227.00 31.47
228.00 31.50
229.00 31.60
230.00 31.77
231.00 31.99
232.00 32.27
233.00 32.59
234.00 32.92
235.00 33.26
236.00 33.55
237.00 33.78
238.00 33.90
239.00 33.90
240.00 33.76
241.00 33.50
242.00 33.15
243.00 32.74
244.00 32.30
245.00 31.86
246.00 31.43
247.00 31.03
248.00 30.68
249.00 30.36
250.00 30.09
251.00 29.86
252.00 29.68
253.00 29.54
254.00 29.43
255.00 29.35
256.00 29.31
257.00 29.29
258.00 29.29
259.00 29.31
260.00 29.33
261.00 29.36
262.00 29.39
263.00 29.40
264.00 29.39
265.00 29.36
266.00 29.29
267.00 29.18
268.00 29.01
269.00 28.80
270.00 28.52
271.00 28.19
272.00 27.81
273.00 27.38
274.00 26.91
275.00 26.42
276.00 25.90
277.00 25.36
278.00 24.82
279.00 24.27
280.00 23.73
281.00 23.19
282.00 22.65
283.00 22.12
284.00 21.60
285.00 21.08
286.00 20.58
287.00 20.08
288.00 19.59
289.00 19.10
290.00 18.62
291.00 18.15
292.00 17.67
293.00 17.20
294.00 16.74
295.00 16.27
296.00 15.81
297.00 15.34
298.00 14.89
299.00 14.43
300.00 13.97
301.00 13.51
302.00 13.06
303.00 12.61
304.00 12.16
305.00 11.72
306.00 11.29
307.00 10.86
308.00 10.44
309.00 10.02
310.00 9.61
311.00 9.21
312.00 8.82
313.00 8.44
314.00 8.07
315.00 7.71
316.00 7.36
317.00 7.02
318.00 6.68
319.00 6.36
320.00 6.05
321.00 5.75
322.00 5.46
323.00 5.18
324.00 4.91
325.00 4.64
326.00 4.39
327.00 4.14
328.00 3.90
329.00 3.67
330.00 3.45
331.00 3.24
332.00 3.03
333.00 2.83
334.00 2.63
335.00 2.44
336.00 2.26
337.00 2.08
338.00 1.92
339.00 1.75
340.00 1.59
341.00 1.44
342.00 1.30
343.00 1.16
344.00 1.03
345.00 0.91
346.00 0.79
347.00 0.68
348.00 0.58
349.00 0.49
350.00 0.40
351.00 0.33
352.00 0.26
353.00 0.20
354.00 0.14
355.00 0.10
356.00 0.06
357.00 0.03
358.00 0.01
359.00 0.00
VERTICAL 360
0.00 5.03
1.00 2.29
2.00 0.64
3.00 0.00
4.00 0.40
5.00 1.99
6.00 5.21
7.00 11.47
8.00 23.07
9.00 14.92
10.00 11.14
11.00 11.27
12.00 14.58
13.00 23.47
14.00 21.30
15.00 15.23
16.00 13.85
17.00 15.08
18.00 18.67
19.00 22.87
20.00 21.04
21.00 18.74
22.00 19.55
23.00 25.11
24.00 33.32
25.00 22.59
26.00 19.01
27.00 17.91
28.00 17.65
29.00 17.56
30.00 17.67
31.00 18.16
32.00 18.92
33.00 19.49
34.00 19.49
35.00 19.18
36.00 19.14
37.00 19.68
38.00 20.78
39.00 22.52
40.00 26.13
41.00 38.80
42.00 32.05
43.00 24.73
44.00 22.89
45.00 23.81
46.00 27.34
47.00 35.90
48.00 40.97
49.00 29.88
50.00 26.03
51.00 24.25
52.00 23.45
53.00 23.30
54.00 23.87
55.00 25.62
56.00 29.41
57.00 38.02
58.00 53.72
59.00 37.81
60.00 36.59
61.00 38.38
62.00 42.81
63.00 51.94
64.00 42.64
65.00 35.31
66.00 31.73
67.00 30.04
68.00 29.42
69.00 29.22
70.00 28.98
71.00 28.63
72.00 28.47
73.00 28.75
74.00 29.38
75.00 29.79
76.00 29.47
77.00 28.62
78.00 27.91
79.00 27.82
80.00 28.44
81.00 29.46
82.00 30.21
83.00 29.98
84.00 29.16
85.00 28.52
86.00 28.16
87.00 28.12
88.00 28.58
89.00 29.44
90.00 30.49
91.00 31.24
92.00 31.33
93.00 32.42
94.00 36.18
95.00 36.93
96.00 33.60
97.00 33.44
98.00 36.20
99.00 42.28
100.00 53.86
101.00 39.38
102.00 35.21
103.00 34.93
104.00 37.23
105.00 41.46
106.00 42.42
107.00 39.51
108.00 38.99
109.00 41.09
110.00 45.16
111.00 49.83
112.00 47.81
113.00 44.82
114.00 44.61
115.00 45.33
116.00 45.20
117.00 43.63
118.00 41.93
119.00 41.32
120.00 41.15
121.00 40.17
122.00 38.66
123.00 38.16
124.00 40.05
125.00 43.34
126.00 40.68
127.00 38.07
128.00 38.55
129.00 39.64
130.00 38.80
131.00 38.84
132.00 40.87
133.00 41.04
134.00 38.52
135.00 36.74
136.00 36.10
137.00 36.54
138.00 37.84
139.00 39.51
140.00 41.43
141.00 43.34
142.00 43.85
143.00 42.75
144.00 42.47
145.00 44.95
146.00 52.36
147.00 52.37
148.00 44.20
149.00 41.95
150.00 46.82
151.00 50.76
152.00 38.85
153.00 36.76
154.00 39.05
155.00 43.36
156.00 41.99
157.00 39.18
158.00 38.74
159.00 40.76
160.00 40.49
161.00 37.86
162.00 38.04
163.00 39.69
164.00 39.45
165.00 39.15
166.00 39.36
167.00 39.84
168.00 42.65
169.00 45.19
170.00 42.04
171.00 39.38
172.00 37.62
173.00 37.62
174.00 41.48
175.00 49.47
176.00 41.40
177.00 37.86
178.00 38.14
179.00 39.95
180.00 39.04
181.00 35.99
182.00 34.38
183.00 34.94
184.00 37.61
185.00 41.42
186.00 46.16
187.00 67.11
188.00 57.06
189.00 60.70
190.00 44.64
191.00 39.57
192.00 39.94
193.00 44.16
194.00 45.94
195.00 46.28
196.00 44.41
197.00 39.68
198.00 38.41
199.00 39.93
200.00 41.22
201.00 40.47
202.00 40.94
203.00 45.19
204.00 55.58
205.00 49.82
206.00 49.09
207.00 56.23
208.00 49.16
209.00 43.68
210.00 42.56
211.00 43.65
212.00 42.70
213.00 40.28
214.00 39.64
215.00 39.16
216.00 37.70
217.00 37.31
218.00 38.20
219.00 38.36
220.00 37.42
221.00 36.86
222.00 36.90
223.00 37.28
224.00 37.87
225.00 38.49
226.00 38.43
227.00 36.87
228.00 34.87
229.00 34.15
230.00 35.70
231.00 40.72
232.00 51.12
233.00 46.95
234.00 41.91
235.00 39.47
236.00 39.34
237.00 42.28
238.00 49.50
239.00 50.43
240.00 44.85
241.00 41.21
242.00 37.88
243.00 35.55
244.00 34.78
245.00 35.29
246.00 35.84
247.00 35.35
248.00 34.27
249.00 33.28
250.00 32.70
251.00 32.40
252.00 31.71
253.00 30.17
254.00 28.19
255.00 26.52
256.00 25.60
257.00 25.43
258.00 25.63
259.00 25.65
260.00 25.27
261.00 24.84
262.00 24.84
263.00 25.43
264.00 26.33
265.00 27.03
266.00 27.23
267.00 27.06
268.00 27.07
269.00 27.86
270.00 29.64
271.00 31.86
272.00 33.36
273.00 33.68
274.00 33.25
275.00 32.48
276.00 31.00
277.00 28.77
278.00 26.37
279.00 24.15
280.00 22.44
281.00 21.46
282.00 21.11
283.00 21.03
284.00 20.85
285.00 20.50
286.00 20.19
287.00 20.03
288.00 19.84
289.00 19.40
290.00 18.84
291.00 18.47
292.00 18.49
293.00 18.99
294.00 20.03
295.00 21.76
296.00 24.49
297.00 28.96
298.00 38.47
299.00 42.02
300.00 31.63
301.00 27.81
302.00 25.96
303.00 25.16
304.00 24.81
305.00 24.58
306.00 24.79
307.00 26.44
308.00 30.52
309.00 31.57
310.00 26.81
311.00 24.59
312.00 24.97
313.00 27.60
314.00 30.96
315.00 28.74
316.00 24.61
317.00 22.37
318.00 22.01
319.00 23.56
320.00 27.64
321.00 36.04
322.00 31.29
323.00 24.71
324.00 21.96
325.00 21.39
326.00 22.59
327.00 25.07
328.00 25.95
329.00 23.27
330.00 20.51
331.00 19.07
332.00 19.25
333.00 21.08
334.00 22.52
335.00 21.16
336.00 20.08
337.00 21.02
338.00 24.28
339.00 31.60
340.00 50.20
341.00 30.01
342.00 26.27
343.00 26.27
344.00 30.30
345.00 32.52
346.00 25.76
347.00 22.98
348.00 23.35
349.00 26.48
350.00 30.65
351.00 28.99
352.00 27.63
353.00 32.45
354.00 44.32
355.00 27.21
356.00 25.50
357.00 23.51
358.00 15.37
359.00 9.17
