NAME ATR4518R7_1850_X_CO_M45_00T_yL
FREQUENCY 1850
GAIN 15.28 dBd
TILT	ELECTRICAL
COMMENT DATE 05.08.2013 -45 degrees polarized system Lever position 00T deg
HORIZONTAL 360
0.00 0.13
1.00 0.10
2.00 0.06
3.00 0.04
4.00 0.02
5.00 0.00
6.00 0.00
7.00 0.00
8.00 0.01
9.00 0.03
10.00 0.06
11.00 0.10
12.00 0.15
13.00 0.20
14.00 0.27
15.00 0.35
16.00 0.43
17.00 0.52
18.00 0.62
19.00 0.73
20.00 0.85
21.00 0.97
22.00 1.11
23.00 1.25
24.00 1.39
25.00 1.55
26.00 1.71
27.00 1.88
28.00 2.06
29.00 2.24
30.00 2.43
31.00 2.62
32.00 2.82
33.00 3.03
34.00 3.24
35.00 3.46
36.00 3.68
37.00 3.90
38.00 4.13
39.00 4.37
40.00 4.61
41.00 4.85
42.00 5.09
43.00 5.34
44.00 5.59
45.00 5.84
46.00 6.10
47.00 6.35
48.00 6.61
49.00 6.87
50.00 7.13
51.00 7.40
52.00 7.66
53.00 7.93
54.00 8.20
55.00 8.47
56.00 8.75
57.00 9.03
58.00 9.32
59.00 9.61
60.00 9.90
61.00 10.20
62.00 10.51
63.00 10.83
64.00 11.15
65.00 11.48
66.00 11.82
67.00 12.18
68.00 12.55
69.00 12.92
70.00 13.31
71.00 13.72
72.00 14.13
73.00 14.57
74.00 15.01
75.00 15.47
76.00 15.95
77.00 16.43
78.00 16.93
79.00 17.44
80.00 17.95
81.00 18.47
82.00 19.00
83.00 19.52
84.00 20.04
85.00 20.55
86.00 21.05
87.00 21.54
88.00 22.01
89.00 22.45
90.00 22.88
91.00 23.29
92.00 23.68
93.00 24.05
94.00 24.42
95.00 24.78
96.00 25.14
97.00 25.52
98.00 25.91
99.00 26.32
100.00 26.75
101.00 27.22
102.00 27.71
103.00 28.23
104.00 28.75
105.00 29.28
106.00 29.79
107.00 30.25
108.00 30.62
109.00 30.89
110.00 31.03
111.00 31.04
112.00 30.96
113.00 30.80
114.00 30.60
115.00 30.40
116.00 30.21
117.00 30.07
118.00 29.98
119.00 29.93
120.00 29.94
121.00 30.00
122.00 30.09
123.00 30.18
124.00 30.24
125.00 30.24
126.00 30.14
127.00 29.92
128.00 29.57
129.00 29.10
130.00 28.54
131.00 27.94
132.00 27.32
133.00 26.72
134.00 26.16
135.00 25.65
136.00 25.20
137.00 24.82
138.00 24.52
139.00 24.30
140.00 24.15
141.00 24.08
142.00 24.10
143.00 24.20
144.00 24.38
145.00 24.66
146.00 25.02
147.00 25.48
148.00 26.02
149.00 26.66
150.00 27.38
151.00 28.15
152.00 28.96
153.00 29.73
154.00 30.38
155.00 30.81
156.00 30.94
157.00 30.78
158.00 30.40
159.00 29.89
160.00 29.36
161.00 28.86
162.00 28.43
163.00 28.09
164.00 27.86
165.00 27.74
166.00 27.74
167.00 27.85
168.00 28.09
169.00 28.45
170.00 28.96
171.00 29.61
172.00 30.42
173.00 31.41
174.00 32.59
175.00 33.95
176.00 35.43
177.00 36.83
178.00 37.71
179.00 37.63
180.00 36.69
181.00 35.39
182.00 34.07
183.00 32.91
184.00 31.93
185.00 31.14
186.00 30.52
187.00 30.06
188.00 29.75
189.00 29.57
190.00 29.54
191.00 29.64
192.00 29.88
193.00 30.27
194.00 30.82
195.00 31.56
196.00 32.51
197.00 33.76
198.00 35.37
199.00 37.55
200.00 40.66
201.00 45.73
202.00 54.85
203.00 47.28
204.00 41.30
205.00 37.73
206.00 35.25
207.00 33.37
208.00 31.91
209.00 30.73
210.00 29.79
211.00 29.03
212.00 28.42
213.00 27.96
214.00 27.63
215.00 27.42
216.00 27.33
217.00 27.35
218.00 27.50
219.00 27.78
220.00 28.19
221.00 28.75
222.00 29.49
223.00 30.42
224.00 31.59
225.00 33.03
226.00 34.74
227.00 36.56
228.00 37.85
229.00 37.57
230.00 35.85
231.00 33.75
232.00 31.81
233.00 30.14
234.00 28.73
235.00 27.54
236.00 26.53
237.00 25.67
238.00 24.95
239.00 24.33
240.00 23.81
241.00 23.38
242.00 23.02
243.00 22.73
244.00 22.49
245.00 22.29
246.00 22.14
247.00 22.01
248.00 21.90
249.00 21.79
250.00 21.69
251.00 21.57
252.00 21.44
253.00 21.28
254.00 21.10
255.00 20.89
256.00 20.65
257.00 20.40
258.00 20.13
259.00 19.84
260.00 19.55
261.00 19.26
262.00 18.98
263.00 18.70
264.00 18.42
265.00 18.16
266.00 17.91
267.00 17.66
268.00 17.43
269.00 17.20
270.00 16.97
271.00 16.75
272.00 16.53
273.00 16.31
274.00 16.08
275.00 15.85
276.00 15.61
277.00 15.36
278.00 15.10
279.00 14.83
280.00 14.55
281.00 14.27
282.00 13.97
283.00 13.67
284.00 13.37
285.00 13.06
286.00 12.76
287.00 12.45
288.00 12.15
289.00 11.85
290.00 11.56
291.00 11.27
292.00 10.99
293.00 10.71
294.00 10.45
295.00 10.18
296.00 9.93
297.00 9.69
298.00 9.45
299.00 9.21
300.00 8.99
301.00 8.76
302.00 8.55
303.00 8.34
304.00 8.13
305.00 7.92
306.00 7.72
307.00 7.52
308.00 7.33
309.00 7.13
310.00 6.94
311.00 6.75
312.00 6.56
313.00 6.37
314.00 6.18
315.00 5.99
316.00 5.81
317.00 5.62
318.00 5.43
319.00 5.25
320.00 5.06
321.00 4.87
322.00 4.68
323.00 4.50
324.00 4.31
325.00 4.12
326.00 3.93
327.00 3.75
328.00 3.56
329.00 3.38
330.00 3.20
331.00 3.03
332.00 2.85
333.00 2.69
334.00 2.52
335.00 2.37
336.00 2.22
337.00 2.07
338.00 1.94
339.00 1.81
340.00 1.68
341.00 1.57
342.00 1.46
343.00 1.35
344.00 1.25
345.00 1.15
346.00 1.06
347.00 0.98
348.00 0.90
349.00 0.82
350.00 0.74
351.00 0.67
352.00 0.60
353.00 0.53
354.00 0.46
355.00 0.40
356.00 0.34
357.00 0.28
358.00 0.23
359.00 0.18
VERTICAL 360
0.00 0.04
1.00 0.13
2.00 0.96
3.00 2.64
4.00 5.39
5.00 9.79
6.00 18.03
7.00 29.35
8.00 17.23
9.00 15.00
10.00 16.01
11.00 20.23
12.00 23.48
13.00 17.19
14.00 13.52
15.00 12.01
16.00 11.97
17.00 13.19
18.00 15.59
19.00 18.33
20.00 18.36
21.00 16.38
22.00 15.24
23.00 15.52
24.00 17.36
25.00 21.11
26.00 26.38
27.00 24.53
28.00 20.36
29.00 17.97
30.00 16.84
31.00 16.64
32.00 17.22
33.00 18.46
34.00 20.18
35.00 22.07
36.00 23.58
37.00 23.88
38.00 22.90
39.00 21.43
40.00 20.02
41.00 18.82
42.00 17.90
43.00 17.37
44.00 17.33
45.00 17.82
46.00 18.84
47.00 20.40
48.00 22.59
49.00 25.73
50.00 30.58
51.00 36.15
52.00 31.80
53.00 27.64
54.00 25.35
55.00 24.13
56.00 23.60
57.00 23.69
58.00 24.41
59.00 25.73
60.00 27.51
61.00 29.43
62.00 31.12
63.00 32.55
64.00 34.16
65.00 36.49
66.00 39.73
67.00 43.14
68.00 45.98
69.00 50.11
70.00 59.29
71.00 66.83
72.00 53.82
73.00 45.58
74.00 40.39
75.00 37.15
76.00 35.11
77.00 33.89
78.00 33.36
79.00 33.45
80.00 34.06
81.00 34.87
82.00 35.38
83.00 35.44
84.00 35.56
85.00 36.09
86.00 36.61
87.00 36.98
88.00 38.33
89.00 42.71
90.00 48.66
91.00 40.53
92.00 36.92
93.00 36.07
94.00 36.82
95.00 38.61
96.00 41.65
97.00 46.80
98.00 47.36
99.00 42.85
100.00 41.00
101.00 41.10
102.00 42.52
103.00 44.84
104.00 47.11
105.00 47.30
106.00 46.92
107.00 48.43
108.00 52.09
109.00 52.25
110.00 49.26
111.00 47.44
112.00 45.84
113.00 44.25
114.00 43.35
115.00 43.43
116.00 44.36
117.00 45.56
118.00 46.10
119.00 45.74
120.00 45.01
121.00 44.50
122.00 44.58
123.00 45.17
124.00 45.63
125.00 46.15
126.00 48.52
127.00 53.36
128.00 47.09
129.00 41.99
130.00 39.74
131.00 39.20
132.00 39.59
133.00 40.16
134.00 40.48
135.00 40.74
136.00 41.48
137.00 43.23
138.00 46.23
139.00 48.26
140.00 45.50
141.00 42.09
142.00 39.81
143.00 38.64
144.00 38.10
145.00 37.29
146.00 36.07
147.00 35.44
148.00 36.21
149.00 38.69
150.00 41.50
151.00 40.82
152.00 39.74
153.00 40.63
154.00 42.73
155.00 42.97
156.00 42.31
157.00 44.05
158.00 50.79
159.00 49.44
160.00 42.87
161.00 40.34
162.00 39.23
163.00 38.19
164.00 37.16
165.00 36.87
166.00 37.77
167.00 39.82
168.00 41.04
169.00 38.88
170.00 36.28
171.00 34.88
172.00 34.79
173.00 35.93
174.00 37.93
175.00 39.17
176.00 37.59
177.00 34.56
178.00 32.09
179.00 30.75
180.00 30.48
181.00 31.36
182.00 33.53
183.00 36.88
184.00 41.08
185.00 45.29
186.00 46.96
187.00 47.05
188.00 49.69
189.00 44.96
190.00 38.41
191.00 35.09
192.00 34.01
193.00 34.68
194.00 36.73
195.00 39.55
196.00 41.87
197.00 42.59
198.00 42.31
199.00 42.54
200.00 42.73
201.00 39.92
202.00 36.53
203.00 34.71
204.00 34.52
205.00 35.70
206.00 37.70
207.00 39.60
208.00 40.36
209.00 38.97
210.00 36.44
211.00 34.46
212.00 33.41
213.00 33.00
214.00 32.60
215.00 31.83
216.00 30.94
217.00 30.33
218.00 30.23
219.00 30.72
220.00 31.79
221.00 33.36
222.00 35.16
223.00 36.73
224.00 37.96
225.00 39.44
226.00 41.56
227.00 42.10
228.00 39.06
229.00 36.07
230.00 34.38
231.00 33.93
232.00 34.43
233.00 35.34
234.00 35.73
235.00 35.28
236.00 34.63
237.00 34.35
238.00 34.66
239.00 35.64
240.00 37.17
241.00 38.70
242.00 39.33
243.00 39.07
244.00 38.65
245.00 38.38
246.00 38.14
247.00 37.82
248.00 37.53
249.00 37.58
250.00 38.27
251.00 39.75
252.00 41.88
253.00 43.84
254.00 44.13
255.00 42.68
256.00 40.65
257.00 38.69
258.00 37.04
259.00 35.77
260.00 34.90
261.00 34.38
262.00 34.17
263.00 34.14
264.00 34.20
265.00 34.32
266.00 34.49
267.00 34.70
268.00 34.83
269.00 34.73
270.00 34.32
271.00 33.77
272.00 33.25
273.00 32.85
274.00 32.57
275.00 32.43
276.00 32.49
277.00 32.83
278.00 33.52
279.00 34.63
280.00 36.16
281.00 37.63
282.00 37.66
283.00 35.83
284.00 33.60
285.00 31.76
286.00 30.35
287.00 29.21
288.00 28.13
289.00 26.94
290.00 25.64
291.00 24.35
292.00 23.26
293.00 22.52
294.00 22.19
295.00 22.29
296.00 22.76
297.00 23.52
298.00 24.47
299.00 25.51
300.00 26.57
301.00 27.28
302.00 26.99
303.00 25.57
304.00 23.79
305.00 22.24
306.00 21.12
307.00 20.39
308.00 19.99
309.00 19.83
310.00 19.86
311.00 20.05
312.00 20.37
313.00 20.81
314.00 21.35
315.00 21.94
316.00 22.47
317.00 22.74
318.00 22.56
319.00 21.86
320.00 20.79
321.00 19.65
322.00 18.70
323.00 18.18
324.00 18.25
325.00 19.09
326.00 21.00
327.00 24.59
328.00 30.05
329.00 27.53
330.00 22.68
331.00 20.16
332.00 19.34
333.00 20.03
334.00 22.59
335.00 28.90
336.00 41.13
337.00 25.64
338.00 21.18
339.00 19.35
340.00 19.25
341.00 21.03
342.00 26.20
343.00 46.91
344.00 24.27
345.00 19.25
346.00 17.25
347.00 17.13
348.00 18.78
349.00 22.78
350.00 30.50
351.00 29.63
352.00 25.42
353.00 22.03
354.00 16.40
355.00 11.12
356.00 7.07
357.00 4.09
358.00 2.00
359.00 0.67
