NAME ATR4518R7_1750_X_CO_M45_04T_yyR
FREQUENCY 1750
GAIN 14.65 dBd
TILT	ELECTRICAL
COMMENT DATE 05.08.2013 -45 degrees polarized system Lever position 04T deg
HORIZONTAL 360
0.00 0.01
1.00 0.00
2.00 0.00
3.00 0.00
4.00 0.01
5.00 0.02
6.00 0.04
7.00 0.06
8.00 0.09
9.00 0.13
10.00 0.17
11.00 0.22
12.00 0.28
13.00 0.35
14.00 0.42
15.00 0.50
16.00 0.59
17.00 0.69
18.00 0.80
19.00 0.92
20.00 1.05
21.00 1.19
22.00 1.34
23.00 1.50
24.00 1.67
25.00 1.85
26.00 2.05
27.00 2.25
28.00 2.46
29.00 2.69
30.00 2.92
31.00 3.17
32.00 3.42
33.00 3.69
34.00 3.96
35.00 4.25
36.00 4.54
37.00 4.84
38.00 5.14
39.00 5.45
40.00 5.77
41.00 6.09
42.00 6.42
43.00 6.75
44.00 7.08
45.00 7.42
46.00 7.76
47.00 8.09
48.00 8.43
49.00 8.77
50.00 9.11
51.00 9.44
52.00 9.78
53.00 10.11
54.00 10.44
55.00 10.78
56.00 11.11
57.00 11.44
58.00 11.77
59.00 12.10
60.00 12.42
61.00 12.74
62.00 13.06
63.00 13.38
64.00 13.69
65.00 14.00
66.00 14.31
67.00 14.61
68.00 14.90
69.00 15.18
70.00 15.46
71.00 15.74
72.00 16.00
73.00 16.26
74.00 16.51
75.00 16.76
76.00 17.00
77.00 17.24
78.00 17.48
79.00 17.72
80.00 17.96
81.00 18.21
82.00 18.46
83.00 18.72
84.00 18.99
85.00 19.27
86.00 19.56
87.00 19.86
88.00 20.18
89.00 20.51
90.00 20.86
91.00 21.22
92.00 21.59
93.00 21.97
94.00 22.36
95.00 22.76
96.00 23.15
97.00 23.54
98.00 23.92
99.00 24.28
100.00 24.61
101.00 24.92
102.00 25.19
103.00 25.42
104.00 25.61
105.00 25.77
106.00 25.88
107.00 25.97
108.00 26.04
109.00 26.09
110.00 26.13
111.00 26.18
112.00 26.23
113.00 26.29
114.00 26.38
115.00 26.48
116.00 26.61
117.00 26.77
118.00 26.95
119.00 27.16
120.00 27.39
121.00 27.65
122.00 27.92
123.00 28.20
124.00 28.49
125.00 28.77
126.00 29.04
127.00 29.28
128.00 29.49
129.00 29.66
130.00 29.79
131.00 29.88
132.00 29.93
133.00 29.96
134.00 29.97
135.00 29.98
136.00 30.00
137.00 30.03
138.00 30.11
139.00 30.22
140.00 30.40
141.00 30.63
142.00 30.94
143.00 31.34
144.00 31.83
145.00 32.44
146.00 33.19
147.00 34.09
148.00 35.18
149.00 36.51
150.00 38.14
151.00 40.13
152.00 42.46
153.00 44.59
154.00 44.91
155.00 43.05
156.00 40.64
157.00 38.51
158.00 36.75
159.00 35.31
160.00 34.12
161.00 33.15
162.00 32.34
163.00 31.69
164.00 31.16
165.00 30.75
166.00 30.44
167.00 30.24
168.00 30.12
169.00 30.10
170.00 30.17
171.00 30.33
172.00 30.58
173.00 30.93
174.00 31.37
175.00 31.92
176.00 32.59
177.00 33.39
178.00 34.31
179.00 35.39
180.00 36.61
181.00 37.95
182.00 39.30
183.00 40.39
184.00 40.86
185.00 40.49
186.00 39.50
187.00 38.26
188.00 37.04
189.00 35.93
190.00 34.96
191.00 34.14
192.00 33.46
193.00 32.90
194.00 32.46
195.00 32.12
196.00 31.88
197.00 31.73
198.00 31.67
199.00 31.70
200.00 31.81
201.00 32.01
202.00 32.29
203.00 32.65
204.00 33.10
205.00 33.64
206.00 34.25
207.00 34.93
208.00 35.66
209.00 36.40
210.00 37.06
211.00 37.57
212.00 37.82
213.00 37.75
214.00 37.37
215.00 36.77
216.00 36.05
217.00 35.30
218.00 34.57
219.00 33.90
220.00 33.31
221.00 32.79
222.00 32.35
223.00 32.00
224.00 31.72
225.00 31.52
226.00 31.41
227.00 31.37
228.00 31.41
229.00 31.53
230.00 31.73
231.00 32.02
232.00 32.40
233.00 32.87
234.00 33.45
235.00 34.14
236.00 34.96
237.00 35.91
238.00 36.99
239.00 38.20
240.00 39.46
241.00 40.61
242.00 41.34
243.00 41.33
244.00 40.61
245.00 39.46
246.00 38.18
247.00 36.95
248.00 35.84
249.00 34.86
250.00 34.00
251.00 33.25
252.00 32.59
253.00 32.02
254.00 31.53
255.00 31.09
256.00 30.70
257.00 30.35
258.00 30.03
259.00 29.72
260.00 29.43
261.00 29.13
262.00 28.82
263.00 28.50
264.00 28.14
265.00 27.76
266.00 27.34
267.00 26.90
268.00 26.42
269.00 25.92
270.00 25.40
271.00 24.86
272.00 24.31
273.00 23.76
274.00 23.21
275.00 22.65
276.00 22.11
277.00 21.57
278.00 21.03
279.00 20.51
280.00 19.99
281.00 19.49
282.00 18.99
283.00 18.51
284.00 18.03
285.00 17.56
286.00 17.10
287.00 16.65
288.00 16.21
289.00 15.77
290.00 15.34
291.00 14.92
292.00 14.50
293.00 14.09
294.00 13.68
295.00 13.27
296.00 12.88
297.00 12.48
298.00 12.09
299.00 11.70
300.00 11.32
301.00 10.95
302.00 10.57
303.00 10.20
304.00 9.84
305.00 9.48
306.00 9.12
307.00 8.78
308.00 8.43
309.00 8.09
310.00 7.76
311.00 7.43
312.00 7.11
313.00 6.79
314.00 6.48
315.00 6.18
316.00 5.89
317.00 5.60
318.00 5.31
319.00 5.04
320.00 4.77
321.00 4.51
322.00 4.26
323.00 4.01
324.00 3.78
325.00 3.55
326.00 3.33
327.00 3.12
328.00 2.91
329.00 2.71
330.00 2.52
331.00 2.34
332.00 2.17
333.00 2.01
334.00 1.85
335.00 1.70
336.00 1.56
337.00 1.43
338.00 1.30
339.00 1.19
340.00 1.07
341.00 0.97
342.00 0.87
343.00 0.78
344.00 0.70
345.00 0.62
346.00 0.54
347.00 0.47
348.00 0.41
349.00 0.35
350.00 0.30
351.00 0.25
352.00 0.21
353.00 0.17
354.00 0.13
355.00 0.10
356.00 0.08
357.00 0.05
358.00 0.03
359.00 0.02
VERTICAL 360
0.00 6.25
1.00 3.35
2.00 1.45
3.00 0.37
4.00 0.00
5.00 0.32
6.00 1.32
7.00 3.09
8.00 5.80
9.00 9.93
10.00 16.93
11.00 24.95
12.00 18.38
13.00 15.47
14.00 15.60
15.00 18.44
16.00 26.68
17.00 29.50
18.00 20.02
19.00 16.99
20.00 16.33
21.00 17.29
22.00 19.92
23.00 25.30
24.00 37.67
25.00 28.37
26.00 22.37
27.00 19.98
28.00 19.38
29.00 20.30
30.00 23.12
31.00 29.62
32.00 34.51
33.00 25.69
34.00 21.68
35.00 19.87
36.00 19.33
37.00 19.76
38.00 21.11
39.00 23.53
40.00 27.58
41.00 35.49
42.00 42.96
43.00 32.91
44.00 29.57
45.00 28.66
46.00 29.12
47.00 30.14
48.00 30.36
49.00 29.16
50.00 27.48
51.00 26.06
52.00 25.10
53.00 24.64
54.00 24.75
55.00 25.48
56.00 26.90
57.00 29.15
58.00 32.49
59.00 37.28
60.00 41.16
61.00 38.44
62.00 35.09
63.00 33.27
64.00 32.60
65.00 32.64
66.00 32.78
67.00 32.43
68.00 31.44
69.00 30.16
70.00 29.05
71.00 28.32
72.00 27.89
73.00 27.49
74.00 26.97
75.00 26.34
76.00 25.74
77.00 25.38
78.00 26.21
79.00 27.38
80.00 27.57
81.00 27.56
82.00 27.39
83.00 26.77
84.00 25.39
85.00 25.39
86.00 25.75
87.00 26.17
88.00 26.64
89.00 27.09
90.00 27.28
91.00 26.73
92.00 25.89
93.00 25.68
94.00 26.24
95.00 27.39
96.00 28.89
97.00 30.46
98.00 31.78
99.00 32.81
100.00 33.95
101.00 35.59
102.00 37.98
103.00 41.45
104.00 46.09
105.00 47.75
106.00 43.88
107.00 40.61
108.00 39.01
109.00 39.01
110.00 40.26
111.00 41.43
112.00 40.56
113.00 38.47
114.00 36.71
115.00 35.70
116.00 35.48
117.00 35.92
118.00 36.83
119.00 38.07
120.00 39.55
121.00 41.17
122.00 42.52
123.00 42.64
124.00 40.77
125.00 37.80
126.00 35.23
127.00 33.74
128.00 33.34
129.00 33.64
130.00 34.04
131.00 34.45
132.00 35.34
133.00 36.88
134.00 38.30
135.00 38.95
136.00 39.44
137.00 40.09
138.00 40.09
139.00 39.05
140.00 37.83
141.00 37.45
142.00 38.36
143.00 39.62
144.00 38.69
145.00 36.59
146.00 35.41
147.00 35.23
148.00 35.28
149.00 34.75
150.00 33.85
151.00 33.45
152.00 34.16
153.00 35.73
154.00 36.31
155.00 35.01
156.00 33.98
157.00 34.26
158.00 35.76
159.00 37.70
160.00 38.43
161.00 37.39
162.00 35.93
163.00 34.95
164.00 34.69
165.00 35.03
166.00 35.38
167.00 34.93
168.00 33.87
169.00 33.18
170.00 33.55
171.00 35.30
172.00 38.32
173.00 40.69
174.00 40.25
175.00 39.49
176.00 39.30
177.00 38.46
178.00 36.99
179.00 36.17
180.00 36.82
181.00 39.08
182.00 40.71
183.00 38.12
184.00 35.10
185.00 33.46
186.00 32.92
187.00 33.01
188.00 33.21
189.00 33.18
190.00 32.98
191.00 32.91
192.00 33.15
193.00 33.63
194.00 34.18
195.00 34.60
196.00 34.74
197.00 34.59
198.00 34.37
199.00 34.56
200.00 35.85
201.00 39.45
202.00 50.29
203.00 47.93
204.00 41.31
205.00 41.22
206.00 42.95
207.00 38.77
208.00 33.99
209.00 31.30
210.00 30.04
211.00 29.69
212.00 29.86
213.00 30.23
214.00 30.61
215.00 31.13
216.00 32.17
217.00 34.07
218.00 37.05
219.00 41.03
220.00 44.29
221.00 44.10
222.00 42.19
223.00 40.19
224.00 38.17
225.00 36.23
226.00 34.64
227.00 33.77
228.00 33.87
229.00 35.09
230.00 37.18
231.00 38.64
232.00 38.03
233.00 36.85
234.00 36.39
235.00 36.84
236.00 38.16
237.00 40.35
238.00 43.25
239.00 46.14
240.00 47.34
241.00 45.92
242.00 43.30
243.00 41.09
244.00 39.91
245.00 39.94
246.00 41.22
247.00 43.57
248.00 46.04
249.00 46.96
250.00 46.12
251.00 43.87
252.00 40.91
253.00 38.47
254.00 37.17
255.00 37.09
256.00 38.03
257.00 39.12
258.00 38.73
259.00 37.00
260.00 35.29
261.00 34.10
262.00 33.29
263.00 32.67
264.00 32.11
265.00 31.69
266.00 31.52
267.00 31.69
268.00 32.18
269.00 32.81
270.00 33.38
271.00 33.73
272.00 33.81
273.00 33.58
274.00 33.03
275.00 32.29
276.00 31.64
277.00 31.36
278.00 31.63
279.00 32.40
280.00 33.40
281.00 34.26
282.00 34.79
283.00 35.29
284.00 36.55
285.00 39.92
286.00 48.78
287.00 43.72
288.00 35.96
289.00 31.88
290.00 29.08
291.00 26.87
292.00 25.03
293.00 23.41
294.00 21.97
295.00 20.70
296.00 19.68
297.00 19.04
298.00 18.88
299.00 19.29
300.00 20.28
301.00 21.86
302.00 24.04
303.00 26.91
304.00 30.95
305.00 35.55
306.00 32.82
307.00 27.46
308.00 23.90
309.00 21.60
310.00 20.18
311.00 19.44
312.00 19.32
313.00 19.78
314.00 20.85
315.00 22.59
316.00 25.13
317.00 28.73
318.00 33.86
319.00 39.95
320.00 39.86
321.00 35.86
322.00 31.91
323.00 28.24
324.00 25.39
325.00 23.58
326.00 22.79
327.00 22.97
328.00 24.14
329.00 26.39
330.00 28.60
331.00 26.59
332.00 22.47
333.00 19.47
334.00 17.79
335.00 17.27
336.00 17.87
337.00 19.58
338.00 22.19
339.00 23.86
340.00 22.53
341.00 20.66
342.00 20.07
343.00 21.32
344.00 25.55
345.00 33.13
346.00 25.55
347.00 20.05
348.00 17.62
349.00 16.96
350.00 17.83
351.00 20.63
352.00 26.81
353.00 29.33
354.00 22.81
355.00 20.58
356.00 22.28
357.00 26.15
358.00 17.57
359.00 10.59
