NAME ATR4518R7_0847_X_CO_M45_00T
FREQUENCY 0847
GAIN 14.31 dBd
TILT	ELECTRICAL
COMMENT DATE 05.08.2013 -45 degrees polarized system Lever position 00T deg
HORIZONTAL 360
0.00 0.01
1.00 0.02
2.00 0.04
3.00 0.07
4.00 0.10
5.00 0.13
6.00 0.18
7.00 0.23
8.00 0.28
9.00 0.34
10.00 0.41
11.00 0.48
12.00 0.56
13.00 0.65
14.00 0.74
15.00 0.84
16.00 0.94
17.00 1.05
18.00 1.17
19.00 1.29
20.00 1.42
21.00 1.56
22.00 1.70
23.00 1.85
24.00 2.00
25.00 2.16
26.00 2.32
27.00 2.50
28.00 2.67
29.00 2.86
30.00 3.05
31.00 3.24
32.00 3.45
33.00 3.66
34.00 3.87
35.00 4.09
36.00 4.32
37.00 4.55
38.00 4.79
39.00 5.03
40.00 5.28
41.00 5.53
42.00 5.79
43.00 6.06
44.00 6.33
45.00 6.61
46.00 6.89
47.00 7.18
48.00 7.47
49.00 7.77
50.00 8.07
51.00 8.38
52.00 8.69
53.00 9.01
54.00 9.33
55.00 9.66
56.00 9.99
57.00 10.32
58.00 10.66
59.00 11.00
60.00 11.34
61.00 11.69
62.00 12.05
63.00 12.40
64.00 12.76
65.00 13.12
66.00 13.49
67.00 13.86
68.00 14.23
69.00 14.60
70.00 14.97
71.00 15.35
72.00 15.73
73.00 16.11
74.00 16.50
75.00 16.88
76.00 17.27
77.00 17.66
78.00 18.05
79.00 18.44
80.00 18.84
81.00 19.23
82.00 19.63
83.00 20.02
84.00 20.42
85.00 20.82
86.00 21.21
87.00 21.61
88.00 22.00
89.00 22.40
90.00 22.79
91.00 23.17
92.00 23.56
93.00 23.93
94.00 24.31
95.00 24.67
96.00 25.04
97.00 25.39
98.00 25.73
99.00 26.07
100.00 26.40
101.00 26.71
102.00 27.02
103.00 27.32
104.00 27.61
105.00 27.89
106.00 28.15
107.00 28.42
108.00 28.67
109.00 28.92
110.00 29.16
111.00 29.39
112.00 29.62
113.00 29.85
114.00 30.07
115.00 30.29
116.00 30.51
117.00 30.73
118.00 30.95
119.00 31.17
120.00 31.40
121.00 31.62
122.00 31.86
123.00 32.09
124.00 32.32
125.00 32.56
126.00 32.80
127.00 33.05
128.00 33.29
129.00 33.55
130.00 33.79
131.00 34.05
132.00 34.31
133.00 34.57
134.00 34.84
135.00 35.10
136.00 35.37
137.00 35.64
138.00 35.91
139.00 36.19
140.00 36.47
141.00 36.76
142.00 37.05
143.00 37.35
144.00 37.65
145.00 37.97
146.00 38.29
147.00 38.63
148.00 38.98
149.00 39.34
150.00 39.72
151.00 40.11
152.00 40.51
153.00 40.93
154.00 41.37
155.00 41.82
156.00 42.28
157.00 42.73
158.00 43.19
159.00 43.64
160.00 44.05
161.00 44.43
162.00 44.75
163.00 44.98
164.00 45.13
165.00 45.19
166.00 45.13
167.00 44.99
168.00 44.78
169.00 44.52
170.00 44.20
171.00 43.85
172.00 43.51
173.00 43.17
174.00 42.85
175.00 42.53
176.00 42.24
177.00 41.98
178.00 41.74
179.00 41.53
180.00 41.36
181.00 41.22
182.00 41.12
183.00 41.05
184.00 41.01
185.00 41.01
186.00 41.05
187.00 41.13
188.00 41.24
189.00 41.40
190.00 41.60
191.00 41.85
192.00 42.15
193.00 42.50
194.00 42.91
195.00 43.39
196.00 43.94
197.00 44.58
198.00 45.31
199.00 46.16
200.00 47.16
201.00 48.34
202.00 49.77
203.00 51.54
204.00 53.82
205.00 57.00
206.00 62.23
207.00 74.25
208.00 64.78
209.00 58.27
210.00 54.53
211.00 51.92
212.00 49.94
213.00 48.34
214.00 47.00
215.00 45.87
216.00 44.89
217.00 44.01
218.00 43.24
219.00 42.55
220.00 41.94
221.00 41.38
222.00 40.86
223.00 40.38
224.00 39.95
225.00 39.54
226.00 39.15
227.00 38.77
228.00 38.41
229.00 38.05
230.00 37.69
231.00 37.33
232.00 36.96
233.00 36.57
234.00 36.17
235.00 35.75
236.00 35.32
237.00 34.86
238.00 34.39
239.00 33.89
240.00 33.38
241.00 32.86
242.00 32.32
243.00 31.78
244.00 31.23
245.00 30.68
246.00 30.12
247.00 29.57
248.00 29.02
249.00 28.47
250.00 27.93
251.00 27.40
252.00 26.87
253.00 26.35
254.00 25.84
255.00 25.34
256.00 24.85
257.00 24.37
258.00 23.90
259.00 23.43
260.00 22.98
261.00 22.54
262.00 22.10
263.00 21.67
264.00 21.25
265.00 20.84
266.00 20.44
267.00 20.05
268.00 19.66
269.00 19.28
270.00 18.91
271.00 18.54
272.00 18.18
273.00 17.83
274.00 17.48
275.00 17.13
276.00 16.79
277.00 16.45
278.00 16.12
279.00 15.80
280.00 15.47
281.00 15.15
282.00 14.83
283.00 14.52
284.00 14.20
285.00 13.89
286.00 13.58
287.00 13.28
288.00 12.97
289.00 12.67
290.00 12.37
291.00 12.07
292.00 11.77
293.00 11.47
294.00 11.18
295.00 10.88
296.00 10.59
297.00 10.30
298.00 10.01
299.00 9.72
300.00 9.43
301.00 9.15
302.00 8.87
303.00 8.59
304.00 8.31
305.00 8.04
306.00 7.76
307.00 7.49
308.00 7.23
309.00 6.97
310.00 6.70
311.00 6.45
312.00 6.20
313.00 5.95
314.00 5.70
315.00 5.46
316.00 5.22
317.00 4.99
318.00 4.76
319.00 4.54
320.00 4.32
321.00 4.10
322.00 3.90
323.00 3.69
324.00 3.49
325.00 3.29
326.00 3.10
327.00 2.92
328.00 2.74
329.00 2.57
330.00 2.40
331.00 2.24
332.00 2.08
333.00 1.93
334.00 1.78
335.00 1.64
336.00 1.50
337.00 1.37
338.00 1.25
339.00 1.13
340.00 1.02
341.00 0.91
342.00 0.81
343.00 0.72
344.00 0.63
345.00 0.54
346.00 0.47
347.00 0.39
348.00 0.33
349.00 0.27
350.00 0.22
351.00 0.17
352.00 0.13
353.00 0.09
354.00 0.06
355.00 0.04
356.00 0.02
357.00 0.01
358.00 0.00
359.00 0.00
VERTICAL 360
0.00 0.00
1.00 0.25
2.00 0.86
3.00 1.85
4.00 3.27
5.00 5.18
6.00 7.71
7.00 11.07
8.00 15.70
9.00 22.42
10.00 27.17
11.00 23.58
12.00 22.09
13.00 22.95
14.00 26.51
15.00 36.61
16.00 30.71
17.00 23.81
18.00 20.67
19.00 19.21
20.00 18.89
21.00 19.52
22.00 21.12
23.00 23.99
24.00 29.07
25.00 41.99
26.00 35.52
27.00 29.41
28.00 27.51
29.00 27.83
30.00 30.17
31.00 31.93
32.00 27.02
33.00 22.15
34.00 18.72
35.00 16.28
36.00 14.50
37.00 13.22
38.00 12.34
39.00 11.81
40.00 11.59
41.00 11.67
42.00 12.05
43.00 12.72
44.00 13.65
45.00 14.80
46.00 16.16
47.00 17.71
48.00 19.47
49.00 21.56
50.00 24.16
51.00 27.54
52.00 32.21
53.00 39.13
54.00 47.70
55.00 45.86
56.00 44.70
57.00 43.18
58.00 40.08
59.00 37.54
60.00 36.03
61.00 35.39
62.00 35.63
63.00 36.80
64.00 37.96
65.00 36.35
66.00 33.24
67.00 30.94
68.00 29.73
69.00 29.43
70.00 29.75
71.00 30.27
72.00 30.49
73.00 30.00
74.00 28.93
75.00 27.77
76.00 26.92
77.00 26.59
78.00 26.81
79.00 27.40
80.00 27.95
81.00 28.03
82.00 27.67
83.00 27.29
84.00 27.23
85.00 27.58
86.00 28.31
87.00 29.34
88.00 30.50
89.00 31.42
90.00 31.64
91.00 31.07
92.00 30.09
93.00 29.14
94.00 28.45
95.00 28.16
96.00 28.34
97.00 29.01
98.00 30.08
99.00 31.40
100.00 32.63
101.00 33.40
102.00 33.71
103.00 33.96
104.00 34.56
105.00 35.69
106.00 37.34
107.00 39.30
108.00 41.11
109.00 42.28
110.00 42.85
111.00 43.53
112.00 45.01
113.00 47.35
114.00 49.33
115.00 49.97
116.00 51.58
117.00 55.39
118.00 51.14
119.00 45.42
120.00 42.03
121.00 39.94
122.00 38.46
123.00 37.12
124.00 35.69
125.00 34.19
126.00 32.81
127.00 31.72
128.00 31.02
129.00 30.72
130.00 30.76
131.00 31.09
132.00 31.68
133.00 32.55
134.00 33.75
135.00 35.38
136.00 37.59
137.00 40.49
138.00 44.05
139.00 47.53
140.00 49.16
141.00 48.31
142.00 46.51
143.00 45.00
144.00 44.03
145.00 43.39
146.00 43.04
147.00 43.39
148.00 45.16
149.00 49.52
150.00 57.49
151.00 51.27
152.00 46.73
153.00 44.24
154.00 42.14
155.00 40.18
156.00 38.66
157.00 37.70
158.00 37.33
159.00 37.64
160.00 38.90
161.00 41.52
162.00 45.52
163.00 46.17
164.00 42.97
165.00 40.99
166.00 40.22
167.00 39.84
168.00 39.19
169.00 38.19
170.00 37.11
171.00 36.11
172.00 35.26
173.00 34.57
174.00 34.12
175.00 34.03
176.00 34.41
177.00 35.38
178.00 37.00
179.00 39.18
180.00 41.63
181.00 43.93
182.00 45.97
183.00 48.26
184.00 51.58
185.00 53.28
186.00 48.15
187.00 43.71
188.00 41.03
189.00 39.66
190.00 39.32
191.00 39.79
192.00 40.84
193.00 42.01
194.00 42.58
195.00 42.30
196.00 41.93
197.00 42.21
198.00 43.50
199.00 46.02
200.00 50.09
201.00 54.07
202.00 50.56
203.00 46.32
204.00 43.71
205.00 42.22
206.00 41.34
207.00 40.70
208.00 40.19
209.00 39.99
210.00 40.26
211.00 40.99
212.00 41.91
213.00 42.49
214.00 42.04
215.00 40.46
216.00 38.44
217.00 36.59
218.00 35.20
219.00 34.34
220.00 33.97
221.00 33.99
222.00 34.22
223.00 34.56
224.00 35.05
225.00 35.82
226.00 36.92
227.00 38.21
228.00 39.51
229.00 40.86
230.00 42.44
231.00 43.86
232.00 44.29
233.00 43.99
234.00 43.72
235.00 43.24
236.00 42.32
237.00 41.52
238.00 41.38
239.00 41.84
240.00 42.29
241.00 42.37
242.00 42.59
243.00 43.51
244.00 44.69
245.00 44.29
246.00 42.29
247.00 40.45
248.00 39.40
249.00 39.14
250.00 39.53
251.00 40.25
252.00 40.82
253.00 40.79
254.00 40.19
255.00 39.34
256.00 38.64
257.00 38.45
258.00 38.99
259.00 40.26
260.00 41.80
261.00 42.47
262.00 41.52
263.00 39.57
264.00 37.66
265.00 36.46
266.00 36.39
267.00 37.77
268.00 41.15
269.00 48.40
270.00 65.17
271.00 49.48
272.00 46.49
273.00 45.14
274.00 44.35
275.00 45.03
276.00 48.92
277.00 59.89
278.00 47.80
279.00 42.68
280.00 40.44
281.00 39.40
282.00 38.71
283.00 38.02
284.00 37.31
285.00 36.48
286.00 35.45
287.00 34.36
288.00 33.48
289.00 32.94
290.00 32.78
291.00 33.04
292.00 33.73
293.00 34.81
294.00 36.09
295.00 37.29
296.00 38.45
297.00 39.94
298.00 40.68
299.00 37.34
300.00 32.59
301.00 28.67
302.00 25.67
303.00 23.34
304.00 21.53
305.00 20.06
306.00 18.83
307.00 17.75
308.00 16.81
309.00 16.03
310.00 15.46
311.00 15.14
312.00 15.09
313.00 15.35
314.00 15.88
315.00 16.65
316.00 17.61
317.00 18.70
318.00 19.90
319.00 21.21
320.00 22.67
321.00 24.34
322.00 26.23
323.00 28.27
324.00 30.35
325.00 32.28
326.00 33.67
327.00 34.09
328.00 33.82
329.00 33.81
330.00 34.72
331.00 36.59
332.00 36.48
333.00 32.44
334.00 28.53
335.00 25.68
336.00 23.70
337.00 22.40
338.00 21.71
339.00 21.60
340.00 22.16
341.00 23.63
342.00 26.49
343.00 31.72
344.00 33.69
345.00 27.84
346.00 24.64
347.00 23.75
348.00 25.27
349.00 29.97
350.00 24.66
351.00 17.17
352.00 12.26
353.00 8.72
354.00 6.05
355.00 4.00
356.00 2.44
357.00 1.30
358.00 0.52
359.00 0.09
