NAME ATR4518R7_2140_X_CO_P45_02T_yL
FREQUENCY 2140
GAIN 15.68 dBd
TILT	ELECTRICAL
COMMENT DATE 05.08.2013 +45 degrees polarized system Lever position 02T deg
HORIZONTAL 360
0.00 0.00
1.00 0.00
2.00 0.01
3.00 0.02
4.00 0.04
5.00 0.06
6.00 0.08
7.00 0.11
8.00 0.14
9.00 0.17
10.00 0.21
11.00 0.25
12.00 0.30
13.00 0.35
14.00 0.41
15.00 0.48
16.00 0.55
17.00 0.62
18.00 0.71
19.00 0.80
20.00 0.89
21.00 1.00
22.00 1.11
23.00 1.23
24.00 1.36
25.00 1.50
26.00 1.65
27.00 1.81
28.00 1.97
29.00 2.15
30.00 2.34
31.00 2.54
32.00 2.74
33.00 2.96
34.00 3.18
35.00 3.42
36.00 3.66
37.00 3.90
38.00 4.16
39.00 4.42
40.00 4.68
41.00 4.95
42.00 5.22
43.00 5.50
44.00 5.77
45.00 6.04
46.00 6.32
47.00 6.59
48.00 6.86
49.00 7.13
50.00 7.39
51.00 7.66
52.00 7.92
53.00 8.17
54.00 8.43
55.00 8.68
56.00 8.94
57.00 9.19
58.00 9.45
59.00 9.71
60.00 9.97
61.00 10.24
62.00 10.51
63.00 10.79
64.00 11.08
65.00 11.38
66.00 11.69
67.00 12.01
68.00 12.34
69.00 12.69
70.00 13.05
71.00 13.42
72.00 13.81
73.00 14.20
74.00 14.62
75.00 15.04
76.00 15.46
77.00 15.90
78.00 16.34
79.00 16.79
80.00 17.23
81.00 17.67
82.00 18.11
83.00 18.53
84.00 18.94
85.00 19.33
86.00 19.72
87.00 20.08
88.00 20.43
89.00 20.76
90.00 21.09
91.00 21.41
92.00 21.74
93.00 22.07
94.00 22.41
95.00 22.76
96.00 23.15
97.00 23.56
98.00 24.01
99.00 24.50
100.00 25.04
101.00 25.63
102.00 26.28
103.00 26.99
104.00 27.76
105.00 28.61
106.00 29.54
107.00 30.56
108.00 31.66
109.00 32.84
110.00 34.12
111.00 35.48
112.00 36.91
113.00 38.40
114.00 39.91
115.00 41.40
116.00 42.82
117.00 44.11
118.00 45.18
119.00 45.98
120.00 46.38
121.00 46.30
122.00 45.73
123.00 44.79
124.00 43.65
125.00 42.46
126.00 41.32
127.00 40.28
128.00 39.35
129.00 38.56
130.00 37.89
131.00 37.33
132.00 36.89
133.00 36.53
134.00 36.25
135.00 36.02
136.00 35.82
137.00 35.63
138.00 35.41
139.00 35.15
140.00 34.85
141.00 34.48
142.00 34.07
143.00 33.64
144.00 33.20
145.00 32.78
146.00 32.40
147.00 32.07
148.00 31.80
149.00 31.62
150.00 31.53
151.00 31.53
152.00 31.63
153.00 31.84
154.00 32.16
155.00 32.59
156.00 33.15
157.00 33.83
158.00 34.62
159.00 35.49
160.00 36.38
161.00 37.19
162.00 37.74
163.00 37.91
164.00 37.66
165.00 37.11
166.00 36.41
167.00 35.70
168.00 35.07
169.00 34.56
170.00 34.18
171.00 33.95
172.00 33.86
173.00 33.94
174.00 34.18
175.00 34.58
176.00 35.17
177.00 35.98
178.00 37.03
179.00 38.37
180.00 40.09
181.00 42.32
182.00 45.26
183.00 48.93
184.00 51.12
185.00 48.62
186.00 45.38
187.00 42.92
188.00 41.13
189.00 39.82
190.00 38.87
191.00 38.19
192.00 37.74
193.00 37.47
194.00 37.35
195.00 37.36
196.00 37.45
197.00 37.60
198.00 37.76
199.00 37.89
200.00 37.94
201.00 37.89
202.00 37.71
203.00 37.44
204.00 37.10
205.00 36.74
206.00 36.37
207.00 36.05
208.00 35.79
209.00 35.59
210.00 35.48
211.00 35.46
212.00 35.54
213.00 35.73
214.00 36.02
215.00 36.45
216.00 37.00
217.00 37.71
218.00 38.62
219.00 39.76
220.00 41.20
221.00 43.08
222.00 45.63
223.00 49.31
224.00 54.41
225.00 53.92
226.00 48.61
227.00 44.79
228.00 42.06
229.00 39.98
230.00 38.34
231.00 37.00
232.00 35.91
233.00 35.01
234.00 34.28
235.00 33.70
236.00 33.25
237.00 32.93
238.00 32.74
239.00 32.67
240.00 32.71
241.00 32.87
242.00 33.15
243.00 33.54
244.00 34.03
245.00 34.59
246.00 35.16
247.00 35.66
248.00 35.95
249.00 35.91
250.00 35.50
251.00 34.76
252.00 33.83
253.00 32.84
254.00 31.86
255.00 30.94
256.00 30.10
257.00 29.33
258.00 28.66
259.00 28.05
260.00 27.51
261.00 27.02
262.00 26.57
263.00 26.16
264.00 25.77
265.00 25.40
266.00 25.02
267.00 24.64
268.00 24.25
269.00 23.85
270.00 23.43
271.00 23.00
272.00 22.56
273.00 22.11
274.00 21.67
275.00 21.22
276.00 20.78
277.00 20.36
278.00 19.94
279.00 19.55
280.00 19.17
281.00 18.80
282.00 18.46
283.00 18.13
284.00 17.82
285.00 17.52
286.00 17.23
287.00 16.96
288.00 16.69
289.00 16.42
290.00 16.16
291.00 15.90
292.00 15.62
293.00 15.35
294.00 15.06
295.00 14.76
296.00 14.45
297.00 14.12
298.00 13.78
299.00 13.43
300.00 13.06
301.00 12.69
302.00 12.31
303.00 11.91
304.00 11.52
305.00 11.13
306.00 10.73
307.00 10.34
308.00 9.95
309.00 9.56
310.00 9.18
311.00 8.80
312.00 8.43
313.00 8.06
314.00 7.70
315.00 7.34
316.00 6.99
317.00 6.64
318.00 6.30
319.00 5.97
320.00 5.64
321.00 5.32
322.00 5.00
323.00 4.70
324.00 4.39
325.00 4.10
326.00 3.82
327.00 3.54
328.00 3.28
329.00 3.02
330.00 2.78
331.00 2.55
332.00 2.32
333.00 2.11
334.00 1.91
335.00 1.73
336.00 1.55
337.00 1.39
338.00 1.24
339.00 1.09
340.00 0.96
341.00 0.84
342.00 0.74
343.00 0.63
344.00 0.55
345.00 0.46
346.00 0.39
347.00 0.32
348.00 0.27
349.00 0.21
350.00 0.17
351.00 0.13
352.00 0.10
353.00 0.07
354.00 0.05
355.00 0.03
356.00 0.01
357.00 0.00
358.00 0.00
359.00 0.00
VERTICAL 360
0.00 1.67
1.00 0.39
2.00 0.00
3.00 0.47
4.00 1.89
5.00 4.44
6.00 8.62
7.00 16.37
8.00 31.35
9.00 16.92
10.00 14.60
11.00 15.81
12.00 20.63
13.00 24.67
14.00 18.46
15.00 15.73
16.00 15.62
17.00 17.66
18.00 22.34
19.00 28.75
20.00 24.18
21.00 21.00
22.00 20.72
23.00 23.10
24.00 30.22
25.00 33.29
26.00 23.90
27.00 20.31
28.00 18.85
29.00 18.67
30.00 19.30
31.00 20.18
32.00 20.63
33.00 20.26
34.00 19.17
35.00 17.77
36.00 16.53
37.00 15.77
38.00 15.59
39.00 15.97
40.00 16.88
41.00 18.37
42.00 20.70
43.00 24.52
44.00 31.92
45.00 37.84
46.00 28.16
47.00 24.44
48.00 22.91
49.00 22.83
50.00 24.09
51.00 26.90
52.00 31.61
53.00 35.73
54.00 33.23
55.00 30.84
56.00 29.58
57.00 28.73
58.00 28.31
59.00 28.76
60.00 30.51
61.00 34.07
62.00 40.43
63.00 49.35
64.00 44.84
65.00 41.64
66.00 39.28
67.00 36.89
68.00 35.02
69.00 34.00
70.00 33.87
71.00 34.42
72.00 35.33
73.00 36.17
74.00 36.67
75.00 37.01
76.00 37.57
77.00 38.63
78.00 40.45
79.00 43.46
80.00 48.39
81.00 56.21
82.00 61.11
83.00 57.10
84.00 52.86
85.00 50.62
86.00 49.64
87.00 48.15
88.00 46.85
89.00 47.37
90.00 50.30
91.00 52.74
92.00 50.35
93.00 48.50
94.00 47.68
95.00 47.23
96.00 47.56
97.00 49.29
98.00 53.09
99.00 59.42
100.00 52.91
101.00 47.14
102.00 44.38
103.00 43.64
104.00 44.47
105.00 46.21
106.00 47.81
107.00 49.29
108.00 52.14
109.00 58.59
110.00 66.46
111.00 57.56
112.00 53.28
113.00 50.21
114.00 47.70
115.00 45.59
116.00 43.79
117.00 42.32
118.00 41.32
119.00 40.94
120.00 41.36
121.00 42.78
122.00 45.41
123.00 49.56
124.00 55.88
125.00 66.31
126.00 64.92
127.00 57.82
128.00 52.83
129.00 49.03
130.00 46.58
131.00 45.81
132.00 47.27
133.00 52.07
134.00 56.19
135.00 52.26
136.00 54.56
137.00 59.92
138.00 45.93
139.00 40.54
140.00 37.66
141.00 36.04
142.00 35.35
143.00 35.72
144.00 37.56
145.00 41.42
146.00 46.68
147.00 46.59
148.00 45.20
149.00 45.01
150.00 44.39
151.00 44.67
152.00 48.59
153.00 60.90
154.00 49.11
155.00 46.04
156.00 44.77
157.00 41.91
158.00 40.13
159.00 41.29
160.00 47.73
161.00 55.72
162.00 44.97
163.00 43.72
164.00 44.63
165.00 43.32
166.00 42.25
167.00 43.99
168.00 47.44
169.00 45.56
170.00 44.02
171.00 46.26
172.00 54.67
173.00 53.93
174.00 48.10
175.00 45.53
176.00 43.24
177.00 40.95
178.00 38.37
179.00 35.86
180.00 34.24
181.00 33.89
182.00 34.76
183.00 36.52
184.00 39.00
185.00 43.14
186.00 49.16
187.00 44.25
188.00 40.86
189.00 40.48
190.00 41.34
191.00 41.68
192.00 42.16
193.00 44.34
194.00 48.13
195.00 52.12
196.00 56.52
197.00 46.67
198.00 41.27
199.00 39.35
200.00 39.83
201.00 41.85
202.00 43.72
203.00 45.09
204.00 48.31
205.00 55.28
206.00 57.79
207.00 58.89
208.00 52.92
209.00 45.11
210.00 40.70
211.00 37.92
212.00 35.96
213.00 34.51
214.00 33.60
215.00 33.31
216.00 33.69
217.00 34.64
218.00 35.94
219.00 37.60
220.00 40.01
221.00 43.68
222.00 48.38
223.00 49.58
224.00 45.54
225.00 41.79
226.00 39.50
227.00 38.60
228.00 38.74
229.00 39.44
230.00 40.17
231.00 41.00
232.00 42.73
233.00 46.54
234.00 53.08
235.00 49.47
236.00 45.13
237.00 43.04
238.00 41.79
239.00 40.79
240.00 40.10
241.00 40.10
242.00 41.26
243.00 44.12
244.00 49.83
245.00 65.80
246.00 52.93
247.00 47.55
248.00 45.41
249.00 44.53
250.00 43.56
251.00 42.69
252.00 43.25
253.00 46.30
254.00 51.33
255.00 49.16
256.00 46.42
257.00 45.51
258.00 44.40
259.00 42.35
260.00 40.23
261.00 38.72
262.00 38.17
263.00 38.70
264.00 40.00
265.00 40.88
266.00 40.28
267.00 39.13
268.00 38.17
269.00 37.25
270.00 36.13
271.00 34.96
272.00 34.06
273.00 33.58
274.00 33.48
275.00 33.58
276.00 33.67
277.00 33.64
278.00 33.53
279.00 33.50
280.00 33.60
281.00 33.72
282.00 33.65
283.00 33.32
284.00 32.81
285.00 32.27
286.00 31.79
287.00 31.33
288.00 30.87
289.00 30.51
290.00 30.52
291.00 31.19
292.00 32.94
293.00 36.43
294.00 41.74
295.00 40.78
296.00 37.45
297.00 35.59
298.00 33.21
299.00 30.35
300.00 28.21
301.00 27.21
302.00 27.34
303.00 28.60
304.00 31.09
305.00 34.70
306.00 35.42
307.00 31.39
308.00 28.05
309.00 26.16
310.00 25.57
311.00 26.18
312.00 27.93
313.00 30.30
314.00 31.15
315.00 28.74
316.00 25.45
317.00 22.75
318.00 20.97
319.00 20.15
320.00 20.15
321.00 20.57
322.00 20.65
323.00 20.00
324.00 19.07
325.00 18.26
326.00 17.56
327.00 16.84
328.00 16.08
329.00 15.43
330.00 15.11
331.00 15.40
332.00 16.60
333.00 19.30
334.00 25.01
335.00 36.60
336.00 24.71
337.00 20.50
338.00 19.28
339.00 20.21
340.00 23.91
341.00 36.49
342.00 28.33
343.00 22.04
344.00 20.35
345.00 21.55
346.00 26.97
347.00 35.58
348.00 23.35
349.00 19.49
350.00 18.71
351.00 20.44
352.00 25.68
353.00 40.22
354.00 33.15
355.00 30.92
356.00 19.83
357.00 12.24
358.00 7.27
359.00 3.89
