NAME ATR4518R7_2140_X_CO_M45_06T_yyR
FREQUENCY 2140
GAIN 15.69 dBd
TILT	ELECTRICAL
COMMENT DATE 05.08.2013 -45 degrees polarized system Lever position 06T deg
HORIZONTAL 360
0.00 0.03
1.00 0.02
2.00 0.01
3.00 0.00
4.00 0.00
5.00 0.00
6.00 0.01
7.00 0.02
8.00 0.04
9.00 0.06
10.00 0.10
11.00 0.14
12.00 0.18
13.00 0.24
14.00 0.31
15.00 0.38
16.00 0.47
17.00 0.56
18.00 0.67
19.00 0.79
20.00 0.92
21.00 1.07
22.00 1.23
23.00 1.40
24.00 1.59
25.00 1.79
26.00 2.00
27.00 2.23
28.00 2.48
29.00 2.74
30.00 3.02
31.00 3.31
32.00 3.62
33.00 3.94
34.00 4.28
35.00 4.64
36.00 5.01
37.00 5.39
38.00 5.79
39.00 6.20
40.00 6.63
41.00 7.08
42.00 7.54
43.00 8.01
44.00 8.50
45.00 9.00
46.00 9.51
47.00 10.04
48.00 10.59
49.00 11.14
50.00 11.70
51.00 12.28
52.00 12.86
53.00 13.45
54.00 14.05
55.00 14.66
56.00 15.26
57.00 15.86
58.00 16.46
59.00 17.05
60.00 17.62
61.00 18.17
62.00 18.71
63.00 19.22
64.00 19.70
65.00 20.16
66.00 20.58
67.00 20.98
68.00 21.36
69.00 21.72
70.00 22.06
71.00 22.39
72.00 22.72
73.00 23.05
74.00 23.38
75.00 23.72
76.00 24.07
77.00 24.44
78.00 24.82
79.00 25.21
80.00 25.62
81.00 26.05
82.00 26.48
83.00 26.92
84.00 27.36
85.00 27.79
86.00 28.20
87.00 28.59
88.00 28.95
89.00 29.27
90.00 29.55
91.00 29.77
92.00 29.95
93.00 30.09
94.00 30.18
95.00 30.24
96.00 30.28
97.00 30.31
98.00 30.33
99.00 30.36
100.00 30.39
101.00 30.44
102.00 30.51
103.00 30.60
104.00 30.71
105.00 30.85
106.00 31.02
107.00 31.22
108.00 31.44
109.00 31.70
110.00 31.98
111.00 32.29
112.00 32.63
113.00 32.99
114.00 33.37
115.00 33.77
116.00 34.19
117.00 34.63
118.00 35.07
119.00 35.51
120.00 35.97
121.00 36.43
122.00 36.88
123.00 37.34
124.00 37.78
125.00 38.23
126.00 38.67
127.00 39.10
128.00 39.52
129.00 39.91
130.00 40.26
131.00 40.55
132.00 40.78
133.00 40.92
134.00 40.96
135.00 40.91
136.00 40.77
137.00 40.58
138.00 40.35
139.00 40.11
140.00 39.88
141.00 39.69
142.00 39.55
143.00 39.49
144.00 39.52
145.00 39.65
146.00 39.90
147.00 40.28
148.00 40.83
149.00 41.57
150.00 42.55
151.00 43.83
152.00 45.56
153.00 47.93
154.00 51.45
155.00 57.14
156.00 59.64
157.00 52.94
158.00 48.53
159.00 45.56
160.00 43.38
161.00 41.71
162.00 40.39
163.00 39.34
164.00 38.50
165.00 37.84
166.00 37.34
167.00 36.97
168.00 36.74
169.00 36.63
170.00 36.64
171.00 36.76
172.00 37.00
173.00 37.35
174.00 37.83
175.00 38.43
176.00 39.17
177.00 40.06
178.00 41.13
179.00 42.38
180.00 43.86
181.00 45.62
182.00 47.74
183.00 50.31
184.00 53.54
185.00 57.67
186.00 62.27
187.00 63.19
188.00 60.81
189.00 59.13
190.00 58.59
191.00 59.12
192.00 60.78
193.00 63.29
194.00 62.90
195.00 58.43
196.00 54.29
197.00 51.06
198.00 48.50
199.00 46.42
200.00 44.69
201.00 43.24
202.00 42.02
203.00 40.99
204.00 40.12
205.00 39.40
206.00 38.80
207.00 38.31
208.00 37.92
209.00 37.62
210.00 37.40
211.00 37.25
212.00 37.16
213.00 37.10
214.00 37.07
215.00 37.03
216.00 36.98
217.00 36.89
218.00 36.75
219.00 36.53
220.00 36.24
221.00 35.89
222.00 35.48
223.00 35.03
224.00 34.56
225.00 34.08
226.00 33.62
227.00 33.17
228.00 32.75
229.00 32.35
230.00 32.00
231.00 31.68
232.00 31.39
233.00 31.14
234.00 30.93
235.00 30.75
236.00 30.60
237.00 30.48
238.00 30.38
239.00 30.31
240.00 30.25
241.00 30.20
242.00 30.16
243.00 30.12
244.00 30.07
245.00 30.00
246.00 29.93
247.00 29.82
248.00 29.69
249.00 29.53
250.00 29.33
251.00 29.10
252.00 28.85
253.00 28.57
254.00 28.27
255.00 27.95
256.00 27.63
257.00 27.29
258.00 26.94
259.00 26.59
260.00 26.24
261.00 25.89
262.00 25.54
263.00 25.19
264.00 24.83
265.00 24.48
266.00 24.12
267.00 23.75
268.00 23.38
269.00 23.01
270.00 22.63
271.00 22.24
272.00 21.85
273.00 21.44
274.00 21.04
275.00 20.62
276.00 20.20
277.00 19.78
278.00 19.35
279.00 18.92
280.00 18.49
281.00 18.06
282.00 17.63
283.00 17.20
284.00 16.77
285.00 16.35
286.00 15.93
287.00 15.52
288.00 15.11
289.00 14.70
290.00 14.30
291.00 13.91
292.00 13.52
293.00 13.14
294.00 12.76
295.00 12.40
296.00 12.04
297.00 11.69
298.00 11.34
299.00 11.00
300.00 10.68
301.00 10.36
302.00 10.04
303.00 9.73
304.00 9.43
305.00 9.14
306.00 8.86
307.00 8.58
308.00 8.31
309.00 8.04
310.00 7.78
311.00 7.53
312.00 7.28
313.00 7.04
314.00 6.80
315.00 6.57
316.00 6.34
317.00 6.12
318.00 5.89
319.00 5.67
320.00 5.46
321.00 5.24
322.00 5.03
323.00 4.82
324.00 4.61
325.00 4.41
326.00 4.20
327.00 4.00
328.00 3.80
329.00 3.60
330.00 3.40
331.00 3.20
332.00 3.01
333.00 2.82
334.00 2.64
335.00 2.46
336.00 2.29
337.00 2.11
338.00 1.95
339.00 1.79
340.00 1.64
341.00 1.49
342.00 1.35
343.00 1.22
344.00 1.09
345.00 0.98
346.00 0.87
347.00 0.76
348.00 0.67
349.00 0.58
350.00 0.50
351.00 0.42
352.00 0.36
353.00 0.30
354.00 0.24
355.00 0.19
356.00 0.15
357.00 0.11
358.00 0.08
359.00 0.06
VERTICAL 360
0.00 16.38
1.00 11.35
2.00 7.20
3.00 4.07
4.00 1.87
5.00 0.52
6.00 0.00
7.00 0.31
8.00 1.54
9.00 3.88
10.00 7.80
11.00 14.71
12.00 21.44
13.00 15.04
14.00 12.74
15.00 13.39
16.00 16.67
17.00 21.89
18.00 20.80
19.00 17.81
20.00 17.48
21.00 19.54
22.00 24.87
23.00 32.67
24.00 23.49
25.00 18.95
26.00 17.44
27.00 18.23
28.00 21.77
29.00 29.04
30.00 26.48
31.00 21.59
32.00 19.93
33.00 19.82
34.00 20.43
35.00 21.33
36.00 22.14
37.00 22.30
38.00 21.82
39.00 21.47
40.00 21.77
41.00 22.83
42.00 24.50
43.00 26.41
44.00 27.82
45.00 27.97
46.00 27.31
47.00 26.95
48.00 27.48
49.00 29.12
50.00 32.05
51.00 36.42
52.00 39.24
53.00 35.29
54.00 31.34
55.00 29.04
56.00 28.23
57.00 28.79
58.00 30.59
59.00 33.35
60.00 36.28
61.00 38.29
62.00 38.94
63.00 38.40
64.00 37.09
65.00 35.80
66.00 35.26
67.00 35.69
68.00 36.74
69.00 37.57
70.00 37.35
71.00 36.21
72.00 34.99
73.00 34.21
74.00 33.76
75.00 33.23
76.00 32.30
77.00 31.07
78.00 29.91
79.00 29.06
80.00 28.50
81.00 28.08
82.00 27.85
83.00 27.91
84.00 28.34
85.00 29.19
86.00 30.55
87.00 32.27
88.00 33.71
89.00 34.12
90.00 33.46
91.00 32.24
92.00 31.00
93.00 30.04
94.00 29.36
95.00 29.03
96.00 29.18
97.00 29.87
98.00 30.95
99.00 32.10
100.00 33.07
101.00 33.92
102.00 34.86
103.00 36.12
104.00 37.80
105.00 39.75
106.00 41.47
107.00 42.43
108.00 43.11
109.00 44.86
110.00 48.98
111.00 56.39
112.00 59.31
113.00 54.88
114.00 49.67
115.00 45.80
116.00 43.44
117.00 42.10
118.00 41.61
119.00 41.98
120.00 43.45
121.00 46.52
122.00 49.83
123.00 47.72
124.00 44.69
125.00 42.56
126.00 40.72
127.00 39.42
128.00 38.82
129.00 38.90
130.00 40.38
131.00 45.63
132.00 53.32
133.00 41.75
134.00 37.82
135.00 36.71
136.00 37.00
137.00 37.81
138.00 38.90
139.00 40.85
140.00 43.98
141.00 46.60
142.00 48.96
143.00 57.01
144.00 44.83
145.00 38.27
146.00 35.50
147.00 34.81
148.00 35.44
149.00 37.12
150.00 40.89
151.00 51.21
152.00 45.52
153.00 40.48
154.00 41.73
155.00 45.31
156.00 39.69
157.00 36.59
158.00 37.28
159.00 40.95
160.00 42.59
161.00 40.08
162.00 38.64
163.00 37.85
164.00 37.56
165.00 37.80
166.00 37.77
167.00 37.21
168.00 36.50
169.00 35.91
170.00 36.25
171.00 38.44
172.00 43.58
173.00 54.76
174.00 53.54
175.00 48.14
176.00 46.50
177.00 45.59
178.00 43.47
179.00 40.93
180.00 38.83
181.00 36.83
182.00 35.35
183.00 35.20
184.00 36.84
185.00 40.39
186.00 45.65
187.00 50.22
188.00 50.97
189.00 49.79
190.00 48.73
191.00 48.24
192.00 46.69
193.00 44.10
194.00 42.20
195.00 40.63
196.00 38.60
197.00 36.95
198.00 36.44
199.00 36.81
200.00 37.55
201.00 39.20
202.00 43.40
203.00 55.01
204.00 53.82
205.00 45.44
206.00 40.24
207.00 37.15
208.00 36.11
209.00 36.60
210.00 38.04
211.00 40.14
212.00 41.28
213.00 38.91
214.00 36.30
215.00 35.02
216.00 34.62
217.00 34.60
218.00 34.97
219.00 36.12
220.00 38.41
221.00 42.18
222.00 48.36
223.00 61.52
224.00 51.92
225.00 45.69
226.00 43.74
227.00 44.97
228.00 51.64
229.00 58.35
230.00 47.36
231.00 45.56
232.00 44.14
233.00 39.33
234.00 35.79
235.00 34.64
236.00 35.90
237.00 39.93
238.00 43.20
239.00 38.67
240.00 35.49
241.00 34.26
242.00 34.48
243.00 35.95
244.00 37.87
245.00 37.61
246.00 35.37
247.00 33.85
248.00 33.68
249.00 34.70
250.00 36.49
251.00 38.39
252.00 39.99
253.00 40.74
254.00 39.97
255.00 38.58
256.00 37.56
257.00 36.65
258.00 35.15
259.00 33.20
260.00 31.40
261.00 30.01
262.00 28.92
263.00 27.88
264.00 26.73
265.00 25.55
266.00 24.54
267.00 23.84
268.00 23.47
269.00 23.35
270.00 23.31
271.00 23.21
272.00 22.94
273.00 22.51
274.00 22.03
275.00 21.69
276.00 21.56
277.00 21.63
278.00 21.83
279.00 22.03
280.00 22.12
281.00 22.03
282.00 21.76
283.00 21.46
284.00 21.26
285.00 21.30
286.00 21.65
287.00 22.26
288.00 22.99
289.00 23.70
290.00 24.33
291.00 24.89
292.00 25.43
293.00 25.97
294.00 26.39
295.00 26.50
296.00 26.31
297.00 26.03
298.00 26.01
299.00 26.52
300.00 27.61
301.00 29.00
302.00 29.81
303.00 29.43
304.00 28.42
305.00 27.39
306.00 26.41
307.00 25.59
308.00 25.22
309.00 25.66
310.00 27.39
311.00 31.41
312.00 41.41
313.00 38.36
314.00 31.20
315.00 28.02
316.00 26.06
317.00 25.10
318.00 25.81
319.00 30.06
320.00 41.09
321.00 26.32
322.00 20.55
323.00 17.73
324.00 16.58
325.00 16.74
326.00 18.11
327.00 20.30
328.00 21.38
329.00 19.66
330.00 17.42
331.00 15.98
332.00 15.41
333.00 15.68
334.00 16.84
335.00 19.07
336.00 22.77
337.00 29.33
338.00 42.04
339.00 30.22
340.00 24.63
341.00 21.78
342.00 20.48
343.00 20.47
344.00 21.86
345.00 25.24
346.00 29.86
347.00 26.75
348.00 23.22
349.00 23.02
350.00 27.08
351.00 40.23
352.00 25.28
353.00 20.13
354.00 18.21
355.00 18.05
356.00 19.11
357.00 20.80
358.00 22.03
359.00 20.82
