NAME ATR4518R7_1850_X_CO_P45_03T_yL
FREQUENCY 1850
GAIN 15.26 dBd
TILT	ELECTRICAL
COMMENT DATE 05.08.2013 +45 degrees polarized system Lever position 03T deg
HORIZONTAL 360
0.00 0.00
1.00 0.00
2.00 0.01
3.00 0.02
4.00 0.04
5.00 0.06
6.00 0.09
7.00 0.12
8.00 0.15
9.00 0.19
10.00 0.22
11.00 0.27
12.00 0.31
13.00 0.36
14.00 0.42
15.00 0.47
16.00 0.53
17.00 0.60
18.00 0.66
19.00 0.73
20.00 0.81
21.00 0.89
22.00 0.98
23.00 1.07
24.00 1.17
25.00 1.27
26.00 1.38
27.00 1.49
28.00 1.61
29.00 1.74
30.00 1.88
31.00 2.02
32.00 2.17
33.00 2.32
34.00 2.49
35.00 2.66
36.00 2.84
37.00 3.02
38.00 3.21
39.00 3.41
40.00 3.61
41.00 3.82
42.00 4.03
43.00 4.25
44.00 4.47
45.00 4.69
46.00 4.92
47.00 5.15
48.00 5.39
49.00 5.63
50.00 5.87
51.00 6.11
52.00 6.36
53.00 6.60
54.00 6.85
55.00 7.10
56.00 7.35
57.00 7.60
58.00 7.86
59.00 8.11
60.00 8.37
61.00 8.63
62.00 8.90
63.00 9.16
64.00 9.43
65.00 9.71
66.00 9.99
67.00 10.27
68.00 10.56
69.00 10.85
70.00 11.15
71.00 11.45
72.00 11.76
73.00 12.07
74.00 12.40
75.00 12.72
76.00 13.05
77.00 13.38
78.00 13.71
79.00 14.05
80.00 14.39
81.00 14.72
82.00 15.05
83.00 15.39
84.00 15.71
85.00 16.03
86.00 16.34
87.00 16.65
88.00 16.95
89.00 17.24
90.00 17.53
91.00 17.81
92.00 18.09
93.00 18.38
94.00 18.66
95.00 18.96
96.00 19.27
97.00 19.59
98.00 19.93
99.00 20.30
100.00 20.70
101.00 21.13
102.00 21.59
103.00 22.09
104.00 22.64
105.00 23.23
106.00 23.86
107.00 24.55
108.00 25.28
109.00 26.06
110.00 26.88
111.00 27.73
112.00 28.59
113.00 29.46
114.00 30.30
115.00 31.10
116.00 31.83
117.00 32.48
118.00 33.07
119.00 33.61
120.00 34.14
121.00 34.70
122.00 35.35
123.00 36.13
124.00 37.11
125.00 38.33
126.00 39.88
127.00 41.77
128.00 43.75
129.00 44.81
130.00 43.68
131.00 41.32
132.00 38.97
133.00 36.97
134.00 35.31
135.00 33.93
136.00 32.81
137.00 31.88
138.00 31.12
139.00 30.51
140.00 30.04
141.00 29.69
142.00 29.45
143.00 29.32
144.00 29.29
145.00 29.36
146.00 29.51
147.00 29.74
148.00 30.04
149.00 30.40
150.00 30.80
151.00 31.21
152.00 31.60
153.00 31.93
154.00 32.16
155.00 32.27
156.00 32.24
157.00 32.09
158.00 31.84
159.00 31.55
160.00 31.24
161.00 30.96
162.00 30.71
163.00 30.51
164.00 30.39
165.00 30.33
166.00 30.36
167.00 30.46
168.00 30.63
169.00 30.89
170.00 31.21
171.00 31.61
172.00 32.06
173.00 32.56
174.00 33.08
175.00 33.60
176.00 34.09
177.00 34.51
178.00 34.85
179.00 35.07
180.00 35.18
181.00 35.22
182.00 35.19
183.00 35.15
184.00 35.12
185.00 35.13
186.00 35.21
187.00 35.37
188.00 35.63
189.00 36.01
190.00 36.52
191.00 37.18
192.00 38.01
193.00 39.06
194.00 40.37
195.00 42.03
196.00 44.18
197.00 47.15
198.00 51.58
199.00 58.46
200.00 55.80
201.00 49.91
202.00 46.30
203.00 43.83
204.00 42.00
205.00 40.59
206.00 39.47
207.00 38.57
208.00 37.84
209.00 37.26
210.00 36.79
211.00 36.43
212.00 36.17
213.00 36.00
214.00 35.92
215.00 35.92
216.00 36.01
217.00 36.21
218.00 36.51
219.00 36.93
220.00 37.49
221.00 38.21
222.00 39.14
223.00 40.31
224.00 41.79
225.00 43.65
226.00 45.88
227.00 47.86
228.00 47.85
229.00 45.63
230.00 42.99
231.00 40.67
232.00 38.74
233.00 37.14
234.00 35.78
235.00 34.63
236.00 33.64
237.00 32.79
238.00 32.06
239.00 31.42
240.00 30.85
241.00 30.36
242.00 29.91
243.00 29.51
244.00 29.14
245.00 28.78
246.00 28.44
247.00 28.09
248.00 27.73
249.00 27.37
250.00 26.99
251.00 26.59
252.00 26.18
253.00 25.76
254.00 25.33
255.00 24.89
256.00 24.46
257.00 24.04
258.00 23.62
259.00 23.22
260.00 22.83
261.00 22.46
262.00 22.10
263.00 21.76
264.00 21.43
265.00 21.12
266.00 20.82
267.00 20.53
268.00 20.25
269.00 19.98
270.00 19.72
271.00 19.46
272.00 19.20
273.00 18.94
274.00 18.68
275.00 18.42
276.00 18.15
277.00 17.88
278.00 17.60
279.00 17.32
280.00 17.04
281.00 16.75
282.00 16.46
283.00 16.16
284.00 15.87
285.00 15.57
286.00 15.26
287.00 14.96
288.00 14.66
289.00 14.36
290.00 14.06
291.00 13.76
292.00 13.47
293.00 13.18
294.00 12.89
295.00 12.59
296.00 12.31
297.00 12.03
298.00 11.75
299.00 11.47
300.00 11.21
301.00 10.94
302.00 10.68
303.00 10.41
304.00 10.16
305.00 9.91
306.00 9.66
307.00 9.41
308.00 9.17
309.00 8.93
310.00 8.70
311.00 8.46
312.00 8.23
313.00 7.99
314.00 7.76
315.00 7.53
316.00 7.29
317.00 7.05
318.00 6.81
319.00 6.57
320.00 6.32
321.00 6.07
322.00 5.81
323.00 5.55
324.00 5.29
325.00 5.02
326.00 4.75
327.00 4.49
328.00 4.22
329.00 3.96
330.00 3.70
331.00 3.44
332.00 3.19
333.00 2.94
334.00 2.70
335.00 2.47
336.00 2.25
337.00 2.04
338.00 1.84
339.00 1.65
340.00 1.47
341.00 1.30
342.00 1.15
343.00 1.00
344.00 0.87
345.00 0.75
346.00 0.64
347.00 0.54
348.00 0.44
349.00 0.36
350.00 0.29
351.00 0.23
352.00 0.17
353.00 0.13
354.00 0.09
355.00 0.06
356.00 0.03
357.00 0.02
358.00 0.00
359.00 0.00
VERTICAL 360
0.00 3.51
1.00 1.65
2.00 0.49
3.00 0.00
4.00 0.18
5.00 1.10
6.00 2.89
7.00 5.81
8.00 10.61
9.00 20.54
10.00 23.18
11.00 15.03
12.00 12.96
13.00 13.42
14.00 16.36
15.00 24.55
16.00 26.40
17.00 17.14
18.00 13.88
19.00 12.80
20.00 13.11
21.00 14.60
22.00 17.31
23.00 21.21
24.00 23.19
25.00 20.59
26.00 18.51
27.00 18.11
28.00 19.38
29.00 22.47
30.00 26.04
31.00 23.94
32.00 20.41
33.00 18.18
34.00 16.88
35.00 16.24
36.00 16.18
37.00 16.72
38.00 17.84
39.00 19.46
40.00 21.37
41.00 23.20
42.00 24.54
43.00 25.15
44.00 25.36
45.00 25.69
46.00 26.43
47.00 27.46
48.00 28.34
49.00 28.54
50.00 28.01
51.00 27.28
52.00 27.00
53.00 27.61
54.00 29.28
55.00 31.55
56.00 32.59
57.00 31.79
58.00 31.03
59.00 30.90
60.00 31.03
61.00 30.87
62.00 30.27
63.00 29.56
64.00 29.23
65.00 29.53
66.00 30.46
67.00 31.75
68.00 32.98
69.00 33.84
70.00 34.30
71.00 34.64
72.00 35.33
73.00 36.61
74.00 38.23
75.00 39.41
76.00 39.21
77.00 37.68
78.00 35.92
79.00 34.68
80.00 34.05
81.00 33.68
82.00 33.15
83.00 32.44
84.00 31.93
85.00 32.03
86.00 32.92
87.00 34.47
88.00 36.10
89.00 36.87
90.00 36.45
91.00 35.48
92.00 34.85
93.00 35.14
94.00 36.56
95.00 38.95
96.00 41.53
97.00 42.90
98.00 42.72
99.00 42.24
100.00 42.67
101.00 44.52
102.00 46.84
103.00 46.33
104.00 44.18
105.00 42.68
106.00 42.07
107.00 42.44
108.00 43.63
109.00 44.35
110.00 43.48
111.00 42.43
112.00 42.35
113.00 43.35
114.00 44.79
115.00 44.69
116.00 42.80
117.00 41.28
118.00 40.95
119.00 41.50
120.00 41.66
121.00 40.76
122.00 40.17
123.00 40.93
124.00 43.16
125.00 45.33
126.00 46.01
127.00 48.63
128.00 53.40
129.00 43.62
130.00 38.38
131.00 35.78
132.00 34.53
133.00 33.91
134.00 33.57
135.00 33.63
136.00 34.28
137.00 35.51
138.00 36.87
139.00 37.75
140.00 37.98
141.00 38.00
142.00 38.22
143.00 38.72
144.00 39.07
145.00 38.80
146.00 38.19
147.00 37.91
148.00 38.42
149.00 40.18
150.00 43.51
151.00 44.41
152.00 40.81
153.00 38.72
154.00 38.51
155.00 38.94
156.00 38.27
157.00 37.00
158.00 36.19
159.00 35.46
160.00 34.25
161.00 33.24
162.00 33.23
163.00 34.49
164.00 36.46
165.00 37.10
166.00 36.07
167.00 35.38
168.00 35.56
169.00 36.13
170.00 36.58
171.00 37.05
172.00 38.08
173.00 39.68
174.00 40.51
175.00 39.10
176.00 36.89
177.00 35.14
178.00 34.07
179.00 33.61
180.00 33.56
181.00 33.69
182.00 33.90
183.00 34.47
184.00 35.97
185.00 39.32
186.00 46.59
187.00 47.98
188.00 41.62
189.00 39.48
190.00 39.36
191.00 40.12
192.00 40.75
193.00 41.07
194.00 42.14
195.00 45.59
196.00 49.64
197.00 42.65
198.00 38.37
199.00 36.70
200.00 36.81
201.00 38.26
202.00 40.51
203.00 41.33
204.00 38.64
205.00 35.64
206.00 33.90
207.00 33.54
208.00 34.44
209.00 36.15
210.00 37.15
211.00 35.98
212.00 33.89
213.00 32.09
214.00 30.86
215.00 30.30
216.00 30.52
217.00 31.63
218.00 33.59
219.00 35.99
220.00 37.92
221.00 39.50
222.00 42.28
223.00 47.38
224.00 45.81
225.00 40.98
226.00 38.77
227.00 38.51
228.00 39.94
229.00 43.28
230.00 49.46
231.00 59.89
232.00 57.68
233.00 56.47
234.00 54.33
235.00 50.40
236.00 47.99
237.00 47.07
238.00 46.90
239.00 46.61
240.00 45.70
241.00 44.34
242.00 43.09
243.00 42.40
244.00 42.59
245.00 43.86
246.00 46.45
247.00 50.54
248.00 53.02
249.00 48.14
250.00 42.64
251.00 38.43
252.00 35.54
253.00 33.88
254.00 33.29
255.00 33.59
256.00 34.48
257.00 35.58
258.00 36.53
259.00 37.35
260.00 38.55
261.00 40.92
262.00 45.67
263.00 52.33
264.00 47.97
265.00 44.59
266.00 42.75
267.00 41.04
268.00 39.42
269.00 38.08
270.00 37.10
271.00 36.75
272.00 37.38
273.00 39.24
274.00 42.03
275.00 43.32
276.00 41.07
277.00 37.99
278.00 35.40
279.00 33.44
280.00 32.02
281.00 30.86
282.00 29.73
283.00 28.53
284.00 27.31
285.00 26.22
286.00 25.39
287.00 24.89
288.00 24.69
289.00 24.78
290.00 25.12
291.00 25.75
292.00 26.75
293.00 28.28
294.00 30.62
295.00 34.30
296.00 40.34
297.00 40.57
298.00 34.32
299.00 30.52
300.00 28.26
301.00 27.06
302.00 26.72
303.00 27.10
304.00 28.13
305.00 29.96
306.00 33.42
307.00 42.29
308.00 37.81
309.00 29.48
310.00 25.24
311.00 22.74
312.00 21.33
313.00 20.72
314.00 20.74
315.00 21.30
316.00 22.37
317.00 23.75
318.00 24.51
319.00 23.63
320.00 21.88
321.00 20.40
322.00 19.48
323.00 19.03
324.00 18.89
325.00 18.88
326.00 18.92
327.00 19.09
328.00 19.62
329.00 20.96
330.00 23.81
331.00 29.61
332.00 31.01
333.00 24.40
334.00 20.99
335.00 19.48
336.00 19.29
337.00 20.43
338.00 23.44
339.00 30.29
340.00 33.48
341.00 25.87
342.00 23.53
343.00 24.30
344.00 28.78
345.00 32.20
346.00 23.80
347.00 19.41
348.00 17.24
349.00 16.56
350.00 17.24
351.00 19.51
352.00 24.28
353.00 35.82
354.00 33.83
355.00 27.10
356.00 20.88
357.00 14.66
358.00 9.80
359.00 6.17
