NAME ATR4518R7_2655_X_CO_P45_06T_yyR
FREQUENCY 2655
GAIN 15.96 dBd
TILT	ELECTRICAL
COMMENT DATE 05.08.2013 +45 degrees polarized system Lever position 06T deg
HORIZONTAL 360
0.00 0.13
1.00 0.18
2.00 0.24
3.00 0.30
4.00 0.37
5.00 0.44
6.00 0.53
7.00 0.62
8.00 0.72
9.00 0.82
10.00 0.93
11.00 1.05
12.00 1.18
13.00 1.31
14.00 1.45
15.00 1.59
16.00 1.75
17.00 1.90
18.00 2.06
19.00 2.22
20.00 2.38
21.00 2.55
22.00 2.71
23.00 2.87
24.00 3.03
25.00 3.18
26.00 3.33
27.00 3.48
28.00 3.62
29.00 3.76
30.00 3.89
31.00 4.03
32.00 4.16
33.00 4.30
34.00 4.44
35.00 4.59
36.00 4.75
37.00 4.91
38.00 5.09
39.00 5.29
40.00 5.50
41.00 5.74
42.00 5.99
43.00 6.26
44.00 6.55
45.00 6.86
46.00 7.20
47.00 7.56
48.00 7.94
49.00 8.35
50.00 8.78
51.00 9.23
52.00 9.70
53.00 10.20
54.00 10.72
55.00 11.26
56.00 11.83
57.00 12.42
58.00 13.04
59.00 13.68
60.00 14.35
61.00 15.06
62.00 15.79
63.00 16.57
64.00 17.38
65.00 18.24
66.00 19.15
67.00 20.11
68.00 21.12
69.00 22.20
70.00 23.35
71.00 24.57
72.00 25.88
73.00 27.26
74.00 28.74
75.00 30.29
76.00 31.92
77.00 33.60
78.00 35.22
79.00 36.65
80.00 37.63
81.00 37.97
82.00 37.66
83.00 36.93
84.00 36.00
85.00 35.03
86.00 34.10
87.00 33.24
88.00 32.47
89.00 31.79
90.00 31.20
91.00 30.71
92.00 30.31
93.00 30.01
94.00 29.79
95.00 29.66
96.00 29.61
97.00 29.65
98.00 29.76
99.00 29.93
100.00 30.16
101.00 30.43
102.00 30.72
103.00 31.01
104.00 31.27
105.00 31.48
106.00 31.61
107.00 31.67
108.00 31.65
109.00 31.59
110.00 31.50
111.00 31.41
112.00 31.36
113.00 31.36
114.00 31.44
115.00 31.62
116.00 31.92
117.00 32.34
118.00 32.90
119.00 33.64
120.00 34.55
121.00 35.67
122.00 36.99
123.00 38.50
124.00 40.07
125.00 41.36
126.00 41.83
127.00 41.32
128.00 40.24
129.00 39.09
130.00 38.08
131.00 37.31
132.00 36.78
133.00 36.47
134.00 36.38
135.00 36.49
136.00 36.78
137.00 37.21
138.00 37.72
139.00 38.20
140.00 38.50
141.00 38.46
142.00 38.03
143.00 37.28
144.00 36.38
145.00 35.47
146.00 34.64
147.00 33.93
148.00 33.37
149.00 32.95
150.00 32.70
151.00 32.60
152.00 32.66
153.00 32.89
154.00 33.28
155.00 33.87
156.00 34.67
157.00 35.69
158.00 36.96
159.00 38.50
160.00 40.23
161.00 41.90
162.00 42.83
163.00 42.46
164.00 41.16
165.00 39.69
166.00 38.40
167.00 37.39
168.00 36.66
169.00 36.19
170.00 35.99
171.00 36.04
172.00 36.36
173.00 36.97
174.00 37.95
175.00 39.37
176.00 41.45
177.00 44.61
178.00 49.92
179.00 55.08
180.00 47.81
181.00 42.86
182.00 39.66
183.00 37.39
184.00 35.69
185.00 34.40
186.00 33.41
187.00 32.68
188.00 32.17
189.00 31.86
190.00 31.74
191.00 31.80
192.00 32.06
193.00 32.53
194.00 33.22
195.00 34.19
196.00 35.48
197.00 37.19
198.00 39.46
199.00 42.46
200.00 45.73
201.00 45.94
202.00 42.81
203.00 39.83
204.00 37.59
205.00 35.93
206.00 34.70
207.00 33.83
208.00 33.24
209.00 32.90
210.00 32.81
211.00 32.96
212.00 33.35
213.00 34.00
214.00 34.98
215.00 36.35
216.00 38.28
217.00 41.11
218.00 45.74
219.00 57.31
220.00 51.76
221.00 43.80
222.00 39.80
223.00 37.19
224.00 35.32
225.00 33.93
226.00 32.88
227.00 32.09
228.00 31.52
229.00 31.14
230.00 30.92
231.00 30.84
232.00 30.90
233.00 31.08
234.00 31.37
235.00 31.75
236.00 32.22
237.00 32.75
238.00 33.31
239.00 33.84
240.00 34.32
241.00 34.67
242.00 34.87
243.00 34.90
244.00 34.80
245.00 34.59
246.00 34.34
247.00 34.08
248.00 33.83
249.00 33.63
250.00 33.46
251.00 33.34
252.00 33.24
253.00 33.16
254.00 33.06
255.00 32.92
256.00 32.72
257.00 32.43
258.00 32.04
259.00 31.57
260.00 31.02
261.00 30.43
262.00 29.80
263.00 29.17
264.00 28.54
265.00 27.94
266.00 27.38
267.00 26.84
268.00 26.34
269.00 25.89
270.00 25.46
271.00 25.07
272.00 24.71
273.00 24.38
274.00 24.06
275.00 23.76
276.00 23.47
277.00 23.19
278.00 22.90
279.00 22.60
280.00 22.29
281.00 21.96
282.00 21.62
283.00 21.25
284.00 20.85
285.00 20.44
286.00 20.01
287.00 19.57
288.00 19.11
289.00 18.65
290.00 18.19
291.00 17.72
292.00 17.26
293.00 16.80
294.00 16.35
295.00 15.90
296.00 15.46
297.00 15.02
298.00 14.60
299.00 14.17
300.00 13.75
301.00 13.33
302.00 12.92
303.00 12.50
304.00 12.09
305.00 11.68
306.00 11.26
307.00 10.85
308.00 10.44
309.00 10.03
310.00 9.62
311.00 9.21
312.00 8.80
313.00 8.40
314.00 8.01
315.00 7.62
316.00 7.24
317.00 6.87
318.00 6.50
319.00 6.15
320.00 5.80
321.00 5.47
322.00 5.14
323.00 4.83
324.00 4.52
325.00 4.23
326.00 3.94
327.00 3.66
328.00 3.40
329.00 3.14
330.00 2.90
331.00 2.66
332.00 2.43
333.00 2.21
334.00 2.01
335.00 1.81
336.00 1.62
337.00 1.44
338.00 1.27
339.00 1.12
340.00 0.97
341.00 0.83
342.00 0.70
343.00 0.59
344.00 0.48
345.00 0.39
346.00 0.30
347.00 0.23
348.00 0.17
349.00 0.11
350.00 0.07
351.00 0.04
352.00 0.02
353.00 0.00
354.00 0.00
355.00 0.00
356.00 0.01
357.00 0.03
358.00 0.06
359.00 0.09
VERTICAL 360
0.00 20.36
1.00 22.04
2.00 12.04
3.00 5.82
4.00 2.24
5.00 0.40
6.00 0.00
7.00 0.97
8.00 3.52
9.00 8.42
10.00 20.04
11.00 20.23
12.00 14.47
13.00 15.71
14.00 24.40
15.00 23.49
16.00 16.05
17.00 14.59
18.00 16.40
19.00 22.03
20.00 23.26
21.00 17.58
22.00 16.16
23.00 18.17
24.00 24.01
25.00 26.37
26.00 21.70
27.00 20.61
28.00 22.57
29.00 27.72
30.00 26.24
31.00 21.31
32.00 19.42
33.00 18.19
34.00 16.52
35.00 15.56
36.00 16.09
37.00 17.99
38.00 20.91
39.00 25.18
40.00 30.05
41.00 25.90
42.00 22.52
43.00 22.46
44.00 24.97
45.00 28.31
46.00 29.02
47.00 28.23
48.00 27.25
49.00 27.01
50.00 28.91
51.00 35.41
52.00 50.12
53.00 35.16
54.00 33.75
55.00 36.09
56.00 39.28
57.00 38.18
58.00 34.22
59.00 32.00
60.00 31.96
61.00 33.31
62.00 34.79
63.00 35.54
64.00 35.04
65.00 33.24
66.00 31.23
67.00 30.04
68.00 29.80
69.00 29.98
70.00 29.82
71.00 29.21
72.00 28.80
73.00 29.28
74.00 31.00
75.00 34.11
76.00 38.63
77.00 43.31
78.00 43.36
79.00 38.76
80.00 36.08
81.00 38.21
82.00 51.33
83.00 35.64
84.00 31.86
85.00 33.26
86.00 36.05
87.00 34.69
88.00 35.57
89.00 33.26
90.00 28.33
91.00 26.57
92.00 27.02
93.00 28.78
94.00 31.98
95.00 35.03
96.00 34.46
97.00 36.71
98.00 48.28
99.00 40.29
100.00 35.37
101.00 33.28
102.00 32.72
103.00 34.45
104.00 37.46
105.00 39.88
106.00 45.58
107.00 61.96
108.00 54.11
109.00 59.73
110.00 48.42
111.00 53.83
112.00 50.76
113.00 42.97
114.00 42.57
115.00 43.05
116.00 43.21
117.00 48.34
118.00 53.06
119.00 47.83
120.00 47.16
121.00 45.08
122.00 46.50
123.00 42.56
124.00 36.50
125.00 34.83
126.00 36.61
127.00 41.15
128.00 47.35
129.00 57.45
130.00 40.96
131.00 36.94
132.00 38.41
133.00 46.52
134.00 45.63
135.00 43.90
136.00 42.07
137.00 38.26
138.00 40.81
139.00 61.61
140.00 41.19
141.00 39.49
142.00 35.24
143.00 31.05
144.00 30.51
145.00 33.19
146.00 37.29
147.00 39.81
148.00 43.71
149.00 46.94
150.00 45.07
151.00 44.64
152.00 43.16
153.00 40.15
154.00 39.93
155.00 46.85
156.00 41.77
157.00 34.57
158.00 32.54
159.00 32.54
160.00 32.66
161.00 32.42
162.00 32.82
163.00 34.50
164.00 37.25
165.00 39.93
166.00 42.30
167.00 44.82
168.00 45.86
169.00 47.36
170.00 50.44
171.00 43.32
172.00 38.06
173.00 36.40
174.00 37.95
175.00 44.72
176.00 46.91
177.00 37.73
178.00 34.27
179.00 33.35
180.00 34.12
181.00 36.26
182.00 39.33
183.00 41.71
184.00 40.35
185.00 38.41
186.00 38.97
187.00 44.05
188.00 59.10
189.00 42.08
190.00 38.16
191.00 37.71
192.00 39.74
193.00 45.66
194.00 58.08
195.00 40.11
196.00 35.76
197.00 34.96
198.00 35.92
199.00 36.33
200.00 35.23
201.00 34.48
202.00 35.66
203.00 38.84
204.00 38.74
205.00 36.65
206.00 36.75
207.00 37.33
208.00 37.71
209.00 39.73
210.00 43.65
211.00 47.41
212.00 48.47
213.00 45.09
214.00 42.89
215.00 41.68
216.00 40.07
217.00 38.83
218.00 38.06
219.00 37.19
220.00 36.22
221.00 35.54
222.00 35.74
223.00 37.13
224.00 38.38
225.00 37.68
226.00 36.53
227.00 35.43
228.00 34.10
229.00 33.05
230.00 32.85
231.00 33.76
232.00 35.15
233.00 35.51
234.00 35.48
235.00 36.43
236.00 38.27
237.00 39.67
238.00 37.53
239.00 34.74
240.00 34.02
241.00 35.30
242.00 37.92
243.00 41.57
244.00 47.95
245.00 44.12
246.00 36.31
247.00 32.95
248.00 32.35
249.00 33.86
250.00 36.42
251.00 37.01
252.00 35.80
253.00 36.80
254.00 44.86
255.00 46.33
256.00 37.48
257.00 36.06
258.00 36.84
259.00 37.31
260.00 35.27
261.00 32.36
262.00 31.17
263.00 32.10
264.00 34.41
265.00 36.44
266.00 37.35
267.00 37.25
268.00 35.44
269.00 33.02
270.00 31.92
271.00 32.61
272.00 34.22
273.00 35.75
274.00 37.35
275.00 36.45
276.00 34.64
277.00 35.56
278.00 38.75
279.00 39.49
280.00 39.48
281.00 42.72
282.00 51.68
283.00 53.40
284.00 43.33
285.00 40.75
286.00 41.33
287.00 42.49
288.00 42.93
289.00 41.90
290.00 38.56
291.00 35.99
292.00 34.72
293.00 33.77
294.00 32.44
295.00 31.43
296.00 31.97
297.00 35.73
298.00 47.96
299.00 34.03
300.00 26.78
301.00 22.29
302.00 19.07
303.00 16.65
304.00 14.77
305.00 13.28
306.00 12.16
307.00 11.49
308.00 11.36
309.00 11.86
310.00 13.11
311.00 15.44
312.00 19.66
313.00 29.20
314.00 28.66
315.00 21.24
316.00 19.45
317.00 20.43
318.00 24.61
319.00 36.46
320.00 28.81
321.00 23.37
322.00 22.51
323.00 24.74
324.00 32.01
325.00 31.39
326.00 22.85
327.00 19.42
328.00 18.73
329.00 20.95
330.00 30.01
331.00 30.34
332.00 21.22
333.00 18.97
334.00 20.13
335.00 25.85
336.00 29.15
337.00 21.09
338.00 18.66
339.00 19.46
340.00 23.54
341.00 36.77
342.00 31.37
343.00 25.71
344.00 26.35
345.00 31.81
346.00 29.99
347.00 25.00
348.00 24.52
349.00 28.12
350.00 39.14
351.00 31.92
352.00 26.46
353.00 25.49
354.00 26.58
355.00 27.42
356.00 29.48
357.00 32.36
358.00 23.29
359.00 19.30
