NAME ATR4518R7_2350_X_CO_P45_10T_yL
FREQUENCY 2350
GAIN 14.84 dBd
TILT	ELECTRICAL
COMMENT DATE 05.08.2013 +45 degrees polarized system Lever position 10T deg
HORIZONTAL 360
0.00 0.08
1.00 0.05
2.00 0.02
3.00 0.01
4.00 0.00
5.00 0.00
6.00 0.01
7.00 0.03
8.00 0.05
9.00 0.08
10.00 0.12
11.00 0.17
12.00 0.22
13.00 0.29
14.00 0.36
15.00 0.43
16.00 0.52
17.00 0.61
18.00 0.71
19.00 0.82
20.00 0.93
21.00 1.05
22.00 1.17
23.00 1.30
24.00 1.43
25.00 1.57
26.00 1.70
27.00 1.85
28.00 1.99
29.00 2.13
30.00 2.28
31.00 2.43
32.00 2.58
33.00 2.74
34.00 2.89
35.00 3.06
36.00 3.22
37.00 3.40
38.00 3.58
39.00 3.77
40.00 3.97
41.00 4.17
42.00 4.39
43.00 4.61
44.00 4.85
45.00 5.09
46.00 5.35
47.00 5.62
48.00 5.90
49.00 6.19
50.00 6.49
51.00 6.80
52.00 7.12
53.00 7.45
54.00 7.80
55.00 8.15
56.00 8.51
57.00 8.88
58.00 9.26
59.00 9.65
60.00 10.05
61.00 10.46
62.00 10.88
63.00 11.30
64.00 11.73
65.00 12.16
66.00 12.60
67.00 13.05
68.00 13.49
69.00 13.94
70.00 14.38
71.00 14.82
72.00 15.25
73.00 15.68
74.00 16.09
75.00 16.49
76.00 16.88
77.00 17.24
78.00 17.59
79.00 17.91
80.00 18.21
81.00 18.49
82.00 18.74
83.00 18.96
84.00 19.17
85.00 19.35
86.00 19.51
87.00 19.66
88.00 19.79
89.00 19.91
90.00 20.02
91.00 20.13
92.00 20.24
93.00 20.36
94.00 20.48
95.00 20.61
96.00 20.75
97.00 20.91
98.00 21.08
99.00 21.27
100.00 21.47
101.00 21.69
102.00 21.93
103.00 22.17
104.00 22.43
105.00 22.70
106.00 22.96
107.00 23.23
108.00 23.48
109.00 23.72
110.00 23.94
111.00 24.13
112.00 24.30
113.00 24.44
114.00 24.56
115.00 24.65
116.00 24.73
117.00 24.81
118.00 24.88
119.00 24.96
120.00 25.06
121.00 25.17
122.00 25.30
123.00 25.46
124.00 25.63
125.00 25.82
126.00 26.03
127.00 26.23
128.00 26.43
129.00 26.61
130.00 26.76
131.00 26.88
132.00 26.97
133.00 27.02
134.00 27.05
135.00 27.05
136.00 27.06
137.00 27.08
138.00 27.12
139.00 27.21
140.00 27.33
141.00 27.51
142.00 27.74
143.00 28.05
144.00 28.41
145.00 28.84
146.00 29.33
147.00 29.87
148.00 30.45
149.00 31.05
150.00 31.67
151.00 32.27
152.00 32.85
153.00 33.40
154.00 33.90
155.00 34.37
156.00 34.83
157.00 35.28
158.00 35.74
159.00 36.19
160.00 36.61
161.00 36.94
162.00 37.08
163.00 36.97
164.00 36.57
165.00 35.93
166.00 35.15
167.00 34.33
168.00 33.54
169.00 32.82
170.00 32.21
171.00 31.72
172.00 31.35
173.00 31.13
174.00 31.04
175.00 31.10
176.00 31.31
177.00 31.68
178.00 32.23
179.00 32.98
180.00 33.96
181.00 35.23
182.00 36.86
183.00 39.01
184.00 41.91
185.00 46.06
186.00 51.26
187.00 49.39
188.00 44.72
189.00 41.56
190.00 39.40
191.00 37.88
192.00 36.78
193.00 36.00
194.00 35.47
195.00 35.13
196.00 34.94
197.00 34.87
198.00 34.88
199.00 34.94
200.00 35.02
201.00 35.09
202.00 35.12
203.00 35.10
204.00 35.05
205.00 34.98
206.00 34.92
207.00 34.89
208.00 34.94
209.00 35.09
210.00 35.36
211.00 35.78
212.00 36.38
213.00 37.18
214.00 38.21
215.00 39.46
216.00 40.86
217.00 42.07
218.00 42.40
219.00 41.47
220.00 39.75
221.00 37.90
222.00 36.19
223.00 34.71
224.00 33.43
225.00 32.34
226.00 31.41
227.00 30.61
228.00 29.93
229.00 29.35
230.00 28.86
231.00 28.44
232.00 28.08
233.00 27.77
234.00 27.51
235.00 27.28
236.00 27.09
237.00 26.91
238.00 26.74
239.00 26.59
240.00 26.44
241.00 26.29
242.00 26.14
243.00 25.98
244.00 25.82
245.00 25.66
246.00 25.49
247.00 25.31
248.00 25.13
249.00 24.94
250.00 24.75
251.00 24.56
252.00 24.36
253.00 24.16
254.00 23.95
255.00 23.74
256.00 23.53
257.00 23.32
258.00 23.10
259.00 22.88
260.00 22.66
261.00 22.43
262.00 22.20
263.00 21.96
264.00 21.72
265.00 21.47
266.00 21.21
267.00 20.94
268.00 20.66
269.00 20.36
270.00 20.05
271.00 19.73
272.00 19.39
273.00 19.05
274.00 18.69
275.00 18.33
276.00 17.97
277.00 17.60
278.00 17.25
279.00 16.90
280.00 16.55
281.00 16.23
282.00 15.91
283.00 15.61
284.00 15.33
285.00 15.06
286.00 14.81
287.00 14.58
288.00 14.36
289.00 14.15
290.00 13.96
291.00 13.77
292.00 13.59
293.00 13.41
294.00 13.22
295.00 13.04
296.00 12.84
297.00 12.64
298.00 12.42
299.00 12.19
300.00 11.94
301.00 11.67
302.00 11.39
303.00 11.09
304.00 10.77
305.00 10.45
306.00 10.11
307.00 9.76
308.00 9.42
309.00 9.07
310.00 8.71
311.00 8.36
312.00 8.01
313.00 7.66
314.00 7.31
315.00 6.98
316.00 6.64
317.00 6.31
318.00 5.99
319.00 5.68
320.00 5.37
321.00 5.07
322.00 4.78
323.00 4.50
324.00 4.23
325.00 3.98
326.00 3.73
327.00 3.50
328.00 3.29
329.00 3.09
330.00 2.90
331.00 2.73
332.00 2.57
333.00 2.43
334.00 2.30
335.00 2.18
336.00 2.08
337.00 1.98
338.00 1.89
339.00 1.81
340.00 1.73
341.00 1.65
342.00 1.57
343.00 1.49
344.00 1.41
345.00 1.32
346.00 1.23
347.00 1.14
348.00 1.04
349.00 0.94
350.00 0.84
351.00 0.74
352.00 0.64
353.00 0.55
354.00 0.46
355.00 0.38
356.00 0.30
357.00 0.24
358.00 0.18
359.00 0.12
VERTICAL 360
0.00 20.66
1.00 22.58
2.00 27.78
3.00 27.63
4.00 18.27
5.00 11.71
6.00 6.94
7.00 3.55
8.00 1.33
9.00 0.19
10.00 0.07
11.00 1.06
12.00 3.38
13.00 7.78
14.00 17.07
15.00 17.38
16.00 11.35
17.00 10.10
18.00 11.43
19.00 15.15
20.00 20.31
21.00 18.51
22.00 15.86
23.00 15.93
24.00 19.00
25.00 27.22
26.00 24.55
27.00 18.88
28.00 17.17
29.00 17.89
30.00 21.50
31.00 34.28
32.00 25.69
33.00 19.48
34.00 17.70
35.00 18.27
36.00 20.48
37.00 22.06
38.00 20.07
39.00 17.48
40.00 15.82
41.00 14.97
42.00 14.71
43.00 15.02
44.00 16.11
45.00 18.35
46.00 21.99
47.00 25.71
48.00 26.56
49.00 27.63
50.00 31.32
51.00 31.98
52.00 28.15
53.00 26.71
54.00 27.32
55.00 28.13
56.00 27.01
57.00 25.78
58.00 26.16
59.00 28.52
60.00 32.95
61.00 39.92
62.00 60.70
63.00 42.40
64.00 35.62
65.00 32.01
66.00 30.31
67.00 30.34
68.00 31.80
69.00 33.67
70.00 34.28
71.00 33.39
72.00 32.29
73.00 32.24
74.00 33.80
75.00 36.90
76.00 40.35
77.00 41.93
78.00 41.54
79.00 41.53
80.00 43.84
81.00 49.71
82.00 57.28
83.00 63.14
84.00 48.29
85.00 41.74
86.00 39.24
87.00 39.63
88.00 42.90
89.00 47.62
90.00 45.95
91.00 43.92
92.00 42.00
93.00 39.37
94.00 37.96
95.00 38.61
96.00 41.64
97.00 46.40
98.00 47.34
99.00 45.94
100.00 45.85
101.00 47.59
102.00 53.31
103.00 58.85
104.00 51.42
105.00 49.55
106.00 47.31
107.00 44.82
108.00 44.40
109.00 46.37
110.00 50.27
111.00 54.20
112.00 55.77
113.00 56.78
114.00 58.94
115.00 54.10
116.00 50.45
117.00 51.31
118.00 58.96
119.00 52.41
120.00 46.01
121.00 42.33
122.00 39.58
123.00 38.20
124.00 38.72
125.00 40.84
126.00 41.63
127.00 41.25
128.00 43.86
129.00 46.64
130.00 40.45
131.00 37.54
132.00 37.35
133.00 38.43
134.00 39.05
135.00 38.30
136.00 36.63
137.00 34.69
138.00 33.04
139.00 32.11
140.00 32.20
141.00 33.24
142.00 34.57
143.00 35.46
144.00 36.66
145.00 39.45
146.00 43.07
147.00 41.27
148.00 38.55
149.00 37.76
150.00 38.26
151.00 38.79
152.00 38.24
153.00 37.11
154.00 36.21
155.00 35.78
156.00 36.09
157.00 37.68
158.00 41.41
159.00 48.51
160.00 56.53
161.00 57.88
162.00 49.84
163.00 43.96
164.00 40.00
165.00 36.79
166.00 35.15
167.00 35.90
168.00 40.16
169.00 54.12
170.00 47.15
171.00 41.49
172.00 37.52
173.00 35.16
174.00 35.27
175.00 38.20
176.00 42.59
177.00 41.39
178.00 39.45
179.00 38.55
180.00 37.31
181.00 35.51
182.00 34.19
183.00 34.50
184.00 37.41
185.00 42.96
186.00 40.22
187.00 36.57
188.00 35.17
189.00 35.07
190.00 36.47
191.00 40.43
192.00 46.92
193.00 42.84
194.00 39.32
195.00 37.85
196.00 36.88
197.00 35.86
198.00 35.00
199.00 34.71
200.00 35.26
201.00 36.70
202.00 38.88
203.00 41.33
204.00 43.36
205.00 44.07
206.00 44.34
207.00 46.49
208.00 48.16
209.00 43.42
210.00 40.56
211.00 40.42
212.00 42.75
213.00 48.16
214.00 48.77
215.00 42.40
216.00 39.04
217.00 37.49
218.00 36.76
219.00 35.99
220.00 34.69
221.00 33.26
222.00 32.34
223.00 32.05
224.00 32.10
225.00 32.17
226.00 32.20
227.00 32.14
228.00 31.77
229.00 31.23
230.00 30.94
231.00 31.14
232.00 31.66
233.00 32.06
234.00 32.02
235.00 31.80
236.00 31.99
237.00 33.15
238.00 35.52
239.00 38.78
240.00 41.37
241.00 42.01
242.00 41.66
243.00 40.45
244.00 38.38
245.00 36.54
246.00 35.65
247.00 35.72
248.00 36.40
249.00 37.30
250.00 38.28
251.00 39.46
252.00 41.06
253.00 43.18
254.00 45.86
255.00 50.01
256.00 58.60
257.00 65.96
258.00 54.35
259.00 48.46
260.00 45.85
261.00 46.80
262.00 52.85
263.00 52.15
264.00 46.35
265.00 44.93
266.00 45.46
267.00 46.73
268.00 47.25
269.00 42.59
270.00 38.20
271.00 36.45
272.00 37.56
273.00 42.72
274.00 59.42
275.00 42.52
276.00 36.88
277.00 33.61
278.00 32.18
279.00 32.68
280.00 34.94
281.00 37.49
282.00 37.34
283.00 35.90
284.00 34.77
285.00 34.22
286.00 34.07
287.00 33.73
288.00 32.76
289.00 31.34
290.00 29.83
291.00 28.38
292.00 26.86
293.00 25.13
294.00 23.13
295.00 21.02
296.00 18.97
297.00 17.06
298.00 15.40
299.00 14.04
300.00 13.03
301.00 12.39
302.00 12.13
303.00 12.24
304.00 12.69
305.00 13.55
306.00 14.95
307.00 17.11
308.00 20.35
309.00 24.35
310.00 22.31
311.00 17.80
312.00 15.35
313.00 14.41
314.00 14.78
315.00 16.54
316.00 20.21
317.00 26.79
318.00 26.23
319.00 20.87
320.00 18.48
321.00 18.32
322.00 20.69
323.00 28.28
324.00 28.07
325.00 19.94
326.00 16.98
327.00 16.52
328.00 18.44
329.00 24.95
330.00 28.00
331.00 18.03
332.00 14.54
333.00 13.93
334.00 15.96
335.00 22.46
336.00 24.28
337.00 16.94
338.00 13.67
339.00 12.66
340.00 13.46
341.00 16.05
342.00 20.73
343.00 25.74
344.00 23.60
345.00 22.52
346.00 23.45
347.00 21.24
348.00 17.53
349.00 15.70
350.00 16.03
351.00 18.85
352.00 24.71
353.00 23.36
354.00 18.82
355.00 17.33
356.00 18.18
357.00 20.88
358.00 22.69
359.00 21.15
