NAME ATR4518R7_1850_X_CO_M45_09T_yL
FREQUENCY 1850
GAIN 15.14 dBd
TILT	ELECTRICAL
COMMENT DATE 05.08.2013 -45 degrees polarized system Lever position 09T deg
HORIZONTAL 360
0.00 0.00
1.00 0.01
2.00 0.01
3.00 0.03
4.00 0.04
5.00 0.07
6.00 0.09
7.00 0.13
8.00 0.16
9.00 0.21
10.00 0.25
11.00 0.30
12.00 0.36
13.00 0.42
14.00 0.48
15.00 0.55
16.00 0.62
17.00 0.69
18.00 0.76
19.00 0.84
20.00 0.91
21.00 0.99
22.00 1.08
23.00 1.16
24.00 1.25
25.00 1.35
26.00 1.45
27.00 1.55
28.00 1.65
29.00 1.77
30.00 1.89
31.00 2.02
32.00 2.15
33.00 2.29
34.00 2.45
35.00 2.61
36.00 2.77
37.00 2.95
38.00 3.14
39.00 3.34
40.00 3.54
41.00 3.76
42.00 3.98
43.00 4.21
44.00 4.44
45.00 4.69
46.00 4.94
47.00 5.19
48.00 5.45
49.00 5.72
50.00 5.99
51.00 6.26
52.00 6.53
53.00 6.81
54.00 7.09
55.00 7.37
56.00 7.65
57.00 7.94
58.00 8.23
59.00 8.52
60.00 8.81
61.00 9.11
62.00 9.41
63.00 9.71
64.00 10.02
65.00 10.33
66.00 10.65
67.00 10.98
68.00 11.31
69.00 11.65
70.00 12.00
71.00 12.36
72.00 12.72
73.00 13.09
74.00 13.47
75.00 13.86
76.00 14.26
77.00 14.66
78.00 15.06
79.00 15.47
80.00 15.88
81.00 16.29
82.00 16.69
83.00 17.08
84.00 17.47
85.00 17.84
86.00 18.20
87.00 18.55
88.00 18.88
89.00 19.18
90.00 19.47
91.00 19.74
92.00 20.00
93.00 20.24
94.00 20.48
95.00 20.71
96.00 20.93
97.00 21.17
98.00 21.40
99.00 21.65
100.00 21.91
101.00 22.18
102.00 22.46
103.00 22.76
104.00 23.08
105.00 23.40
106.00 23.72
107.00 24.05
108.00 24.36
109.00 24.66
110.00 24.92
111.00 25.15
112.00 25.34
113.00 25.49
114.00 25.60
115.00 25.67
116.00 25.72
117.00 25.75
118.00 25.78
119.00 25.82
120.00 25.87
121.00 25.95
122.00 26.06
123.00 26.20
124.00 26.38
125.00 26.59
126.00 26.84
127.00 27.11
128.00 27.39
129.00 27.68
130.00 27.96
131.00 28.20
132.00 28.40
133.00 28.55
134.00 28.65
135.00 28.68
136.00 28.68
137.00 28.65
138.00 28.61
139.00 28.59
140.00 28.60
141.00 28.66
142.00 28.78
143.00 28.97
144.00 29.25
145.00 29.62
146.00 30.08
147.00 30.65
148.00 31.32
149.00 32.09
150.00 32.94
151.00 33.80
152.00 34.61
153.00 35.23
154.00 35.52
155.00 35.43
156.00 35.02
157.00 34.43
158.00 33.78
159.00 33.16
160.00 32.64
161.00 32.23
162.00 31.95
163.00 31.81
164.00 31.80
165.00 31.94
166.00 32.22
167.00 32.63
168.00 33.17
169.00 33.81
170.00 34.49
171.00 35.14
172.00 35.59
173.00 35.66
174.00 35.32
175.00 34.60
176.00 33.69
177.00 32.73
178.00 31.81
179.00 30.98
180.00 30.27
181.00 29.68
182.00 29.21
183.00 28.86
184.00 28.64
185.00 28.53
186.00 28.55
187.00 28.69
188.00 28.97
189.00 29.38
190.00 29.95
191.00 30.70
192.00 31.66
193.00 32.86
194.00 34.37
195.00 36.26
196.00 38.54
197.00 40.78
198.00 41.41
199.00 39.58
200.00 37.04
201.00 34.76
202.00 32.88
203.00 31.33
204.00 30.05
205.00 28.99
206.00 28.10
207.00 27.36
208.00 26.75
209.00 26.26
210.00 25.86
211.00 25.57
212.00 25.37
213.00 25.26
214.00 25.24
215.00 25.31
216.00 25.48
217.00 25.75
218.00 26.13
219.00 26.62
220.00 27.26
221.00 28.05
222.00 29.04
223.00 30.27
224.00 31.80
225.00 33.75
226.00 36.24
227.00 39.22
228.00 41.26
229.00 39.63
230.00 36.53
231.00 33.85
232.00 31.73
233.00 30.04
234.00 28.69
235.00 27.57
236.00 26.66
237.00 25.92
238.00 25.31
239.00 24.82
240.00 24.44
241.00 24.15
242.00 23.93
243.00 23.79
244.00 23.70
245.00 23.66
246.00 23.65
247.00 23.66
248.00 23.66
249.00 23.64
250.00 23.58
251.00 23.48
252.00 23.31
253.00 23.08
254.00 22.79
255.00 22.46
256.00 22.09
257.00 21.70
258.00 21.31
259.00 20.92
260.00 20.54
261.00 20.18
262.00 19.84
263.00 19.53
264.00 19.25
265.00 18.99
266.00 18.75
267.00 18.53
268.00 18.32
269.00 18.13
270.00 17.93
271.00 17.74
272.00 17.54
273.00 17.34
274.00 17.11
275.00 16.87
276.00 16.61
277.00 16.32
278.00 16.02
279.00 15.69
280.00 15.35
281.00 15.00
282.00 14.64
283.00 14.26
284.00 13.89
285.00 13.52
286.00 13.16
287.00 12.79
288.00 12.44
289.00 12.10
290.00 11.77
291.00 11.45
292.00 11.14
293.00 10.84
294.00 10.55
295.00 10.27
296.00 10.00
297.00 9.74
298.00 9.49
299.00 9.24
300.00 9.00
301.00 8.76
302.00 8.52
303.00 8.29
304.00 8.06
305.00 7.83
306.00 7.60
307.00 7.38
308.00 7.15
309.00 6.93
310.00 6.72
311.00 6.51
312.00 6.30
313.00 6.10
314.00 5.90
315.00 5.71
316.00 5.53
317.00 5.35
318.00 5.18
319.00 5.00
320.00 4.84
321.00 4.67
322.00 4.51
323.00 4.34
324.00 4.17
325.00 4.01
326.00 3.84
327.00 3.66
328.00 3.49
329.00 3.30
330.00 3.12
331.00 2.93
332.00 2.75
333.00 2.56
334.00 2.37
335.00 2.18
336.00 2.00
337.00 1.82
338.00 1.65
339.00 1.49
340.00 1.33
341.00 1.18
342.00 1.04
343.00 0.91
344.00 0.79
345.00 0.68
346.00 0.58
347.00 0.49
348.00 0.41
349.00 0.34
350.00 0.28
351.00 0.22
352.00 0.17
353.00 0.13
354.00 0.09
355.00 0.07
356.00 0.04
357.00 0.03
358.00 0.01
359.00 0.01
VERTICAL 360
0.00 30.82
1.00 23.39
2.00 16.21
3.00 11.03
4.00 7.18
5.00 4.31
6.00 2.24
7.00 0.86
8.00 0.13
9.00 0.04
10.00 0.62
11.00 1.93
12.00 4.13
13.00 7.59
14.00 13.16
15.00 21.09
16.00 17.07
17.00 13.69
18.00 12.96
19.00 14.06
20.00 16.86
21.00 20.53
22.00 19.93
23.00 16.93
24.00 15.28
25.00 15.06
26.00 16.11
27.00 18.45
28.00 22.43
29.00 27.84
30.00 26.52
31.00 22.56
32.00 20.72
33.00 20.72
34.00 22.62
35.00 27.05
36.00 32.15
37.00 27.05
38.00 23.17
39.00 21.07
40.00 19.87
41.00 19.30
42.00 19.41
43.00 20.26
44.00 21.58
45.00 22.47
46.00 22.05
47.00 20.85
48.00 19.62
49.00 18.52
50.00 17.53
51.00 16.72
52.00 16.17
53.00 15.95
54.00 16.07
55.00 16.51
56.00 17.28
57.00 18.37
58.00 19.85
59.00 21.79
60.00 24.24
61.00 27.30
62.00 31.11
63.00 36.12
64.00 43.80
65.00 57.39
66.00 48.02
67.00 46.27
68.00 47.63
69.00 46.62
70.00 42.47
71.00 39.29
72.00 37.22
73.00 35.95
74.00 35.39
75.00 35.57
76.00 36.45
77.00 37.75
78.00 38.88
79.00 39.17
80.00 38.71
81.00 38.06
82.00 37.60
83.00 37.33
84.00 37.14
85.00 37.20
86.00 38.05
87.00 40.21
88.00 43.90
89.00 46.78
90.00 46.46
91.00 47.34
92.00 52.00
93.00 60.46
94.00 52.08
95.00 48.21
96.00 45.93
97.00 43.58
98.00 41.37
99.00 40.03
100.00 39.93
101.00 41.20
102.00 43.66
103.00 46.26
104.00 46.77
105.00 44.75
106.00 42.44
107.00 41.29
108.00 41.70
109.00 43.54
110.00 46.02
111.00 47.14
112.00 46.53
113.00 45.98
114.00 46.88
115.00 50.30
116.00 53.05
117.00 48.46
118.00 45.66
119.00 44.71
120.00 44.16
121.00 42.95
122.00 41.13
123.00 39.39
124.00 38.33
125.00 38.28
126.00 39.42
127.00 41.88
128.00 45.26
129.00 45.73
130.00 42.70
131.00 40.21
132.00 38.48
133.00 37.20
134.00 36.60
135.00 37.20
136.00 39.50
137.00 44.00
138.00 48.75
139.00 47.79
140.00 46.41
141.00 45.22
142.00 44.31
143.00 44.74
144.00 45.57
145.00 43.77
146.00 41.35
147.00 40.39
148.00 40.94
149.00 42.52
150.00 43.36
151.00 41.15
152.00 38.09
153.00 36.01
154.00 35.14
155.00 35.29
156.00 36.12
157.00 37.04
158.00 37.11
159.00 35.53
160.00 33.25
161.00 31.61
162.00 31.13
163.00 31.87
164.00 33.69
165.00 36.25
166.00 39.36
167.00 43.05
168.00 40.50
169.00 35.31
170.00 32.17
171.00 30.62
172.00 30.12
173.00 30.29
174.00 30.94
175.00 32.24
176.00 34.51
177.00 37.48
178.00 38.27
179.00 36.82
180.00 36.61
181.00 38.77
182.00 44.46
183.00 51.80
184.00 45.55
185.00 41.79
186.00 38.60
187.00 36.37
188.00 35.82
189.00 36.99
190.00 38.88
191.00 38.93
192.00 38.11
193.00 38.76
194.00 41.59
195.00 46.56
196.00 49.75
197.00 48.82
198.00 46.06
199.00 40.56
200.00 35.93
201.00 33.07
202.00 31.89
203.00 32.46
204.00 35.14
205.00 40.03
206.00 38.54
207.00 33.73
208.00 30.90
209.00 29.37
210.00 28.70
211.00 28.73
212.00 29.36
213.00 30.52
214.00 32.20
215.00 34.53
216.00 37.83
217.00 42.53
218.00 48.06
219.00 48.97
220.00 47.48
221.00 46.68
222.00 45.44
223.00 43.42
224.00 41.52
225.00 40.43
226.00 40.39
227.00 41.47
228.00 43.59
229.00 45.82
230.00 46.19
231.00 45.13
232.00 44.33
233.00 44.23
234.00 44.85
235.00 46.00
236.00 46.51
237.00 44.86
238.00 42.19
239.00 39.87
240.00 38.21
241.00 37.30
242.00 37.29
243.00 38.31
244.00 40.38
245.00 43.11
246.00 45.22
247.00 45.58
248.00 44.58
249.00 42.66
250.00 40.26
251.00 38.15
252.00 36.98
253.00 37.24
254.00 39.57
255.00 46.13
256.00 56.40
257.00 42.82
258.00 38.96
259.00 37.24
260.00 36.21
261.00 35.11
262.00 33.72
263.00 32.26
264.00 31.06
265.00 30.25
266.00 29.77
267.00 29.43
268.00 29.00
269.00 28.38
270.00 27.64
271.00 26.93
272.00 26.41
273.00 26.11
274.00 26.02
275.00 26.07
276.00 26.17
277.00 26.28
278.00 26.41
279.00 26.61
280.00 26.94
281.00 27.48
282.00 28.29
283.00 29.46
284.00 31.12
285.00 33.55
286.00 37.25
287.00 43.88
288.00 55.54
289.00 41.82
290.00 36.12
291.00 32.20
292.00 29.00
293.00 26.34
294.00 24.20
295.00 22.56
296.00 21.40
297.00 20.64
298.00 20.24
299.00 20.19
300.00 20.55
301.00 21.41
302.00 22.87
303.00 25.03
304.00 27.72
305.00 29.69
306.00 28.96
307.00 26.59
308.00 24.27
309.00 22.56
310.00 21.64
311.00 21.61
312.00 22.57
313.00 24.66
314.00 27.99
315.00 30.74
316.00 28.03
317.00 24.02
318.00 21.05
319.00 19.13
320.00 18.24
321.00 18.42
322.00 19.86
323.00 23.03
324.00 29.81
325.00 40.71
326.00 26.89
327.00 22.35
328.00 20.12
329.00 19.26
330.00 19.57
331.00 21.16
332.00 24.41
333.00 30.36
334.00 37.03
335.00 31.76
336.00 29.49
337.00 30.29
338.00 35.09
339.00 48.68
340.00 30.57
341.00 25.13
342.00 22.56
343.00 21.82
344.00 22.73
345.00 25.35
346.00 28.57
347.00 28.09
348.00 26.38
349.00 26.59
350.00 29.26
351.00 31.98
352.00 27.00
353.00 22.54
354.00 20.05
355.00 19.08
356.00 19.48
357.00 21.24
358.00 24.27
359.00 28.23
