NAME ATR4518R7_1880_X_CO_P45_07T_yyR
FREQUENCY 1880
GAIN 14.66 dBd
TILT	ELECTRICAL
COMMENT DATE 05.08.2013 +45 degrees polarized system Lever position 07T deg
HORIZONTAL 360
0.00 0.10
1.00 0.07
2.00 0.05
3.00 0.03
4.00 0.01
5.00 0.00
6.00 0.00
7.00 0.00
8.00 0.01
9.00 0.02
10.00 0.04
11.00 0.07
12.00 0.11
13.00 0.15
14.00 0.21
15.00 0.27
16.00 0.35
17.00 0.44
18.00 0.53
19.00 0.64
20.00 0.76
21.00 0.88
22.00 1.02
23.00 1.17
24.00 1.34
25.00 1.51
26.00 1.69
27.00 1.88
28.00 2.09
29.00 2.30
30.00 2.52
31.00 2.75
32.00 2.99
33.00 3.24
34.00 3.49
35.00 3.74
36.00 4.01
37.00 4.27
38.00 4.54
39.00 4.81
40.00 5.09
41.00 5.37
42.00 5.64
43.00 5.92
44.00 6.19
45.00 6.47
46.00 6.75
47.00 7.02
48.00 7.30
49.00 7.58
50.00 7.85
51.00 8.13
52.00 8.40
53.00 8.68
54.00 8.96
55.00 9.24
56.00 9.52
57.00 9.80
58.00 10.08
59.00 10.37
60.00 10.65
61.00 10.94
62.00 11.22
63.00 11.51
64.00 11.79
65.00 12.08
66.00 12.37
67.00 12.65
68.00 12.93
69.00 13.21
70.00 13.50
71.00 13.78
72.00 14.07
73.00 14.36
74.00 14.65
75.00 14.94
76.00 15.25
77.00 15.56
78.00 15.87
79.00 16.20
80.00 16.54
81.00 16.89
82.00 17.25
83.00 17.62
84.00 18.01
85.00 18.41
86.00 18.83
87.00 19.26
88.00 19.70
89.00 20.15
90.00 20.61
91.00 21.07
92.00 21.54
93.00 22.01
94.00 22.48
95.00 22.93
96.00 23.38
97.00 23.80
98.00 24.22
99.00 24.61
100.00 24.98
101.00 25.33
102.00 25.67
103.00 25.99
104.00 26.31
105.00 26.62
106.00 26.93
107.00 27.25
108.00 27.58
109.00 27.93
110.00 28.30
111.00 28.68
112.00 29.08
113.00 29.49
114.00 29.91
115.00 30.33
116.00 30.73
117.00 31.11
118.00 31.44
119.00 31.72
120.00 31.93
121.00 32.07
122.00 32.13
123.00 32.14
124.00 32.11
125.00 32.04
126.00 31.96
127.00 31.88
128.00 31.82
129.00 31.78
130.00 31.77
131.00 31.81
132.00 31.88
133.00 32.00
134.00 32.16
135.00 32.37
136.00 32.62
137.00 32.90
138.00 33.23
139.00 33.58
140.00 33.96
141.00 34.35
142.00 34.76
143.00 35.16
144.00 35.56
145.00 35.95
146.00 36.33
147.00 36.69
148.00 37.03
149.00 37.36
150.00 37.66
151.00 37.96
152.00 38.23
153.00 38.48
154.00 38.70
155.00 38.86
156.00 38.98
157.00 39.01
158.00 38.96
159.00 38.82
160.00 38.61
161.00 38.34
162.00 38.03
163.00 37.69
164.00 37.37
165.00 37.06
166.00 36.78
167.00 36.54
168.00 36.35
169.00 36.21
170.00 36.13
171.00 36.09
172.00 36.10
173.00 36.14
174.00 36.21
175.00 36.30
176.00 36.37
177.00 36.43
178.00 36.45
179.00 36.41
180.00 36.32
181.00 36.16
182.00 35.94
183.00 35.69
184.00 35.42
185.00 35.15
186.00 34.90
187.00 34.68
188.00 34.51
189.00 34.39
190.00 34.33
191.00 34.35
192.00 34.45
193.00 34.63
194.00 34.88
195.00 35.23
196.00 35.64
197.00 36.11
198.00 36.61
199.00 37.10
200.00 37.49
201.00 37.71
202.00 37.68
203.00 37.35
204.00 36.78
205.00 36.03
206.00 35.21
207.00 34.37
208.00 33.56
209.00 32.81
210.00 32.12
211.00 31.51
212.00 30.96
213.00 30.49
214.00 30.08
215.00 29.74
216.00 29.44
217.00 29.21
218.00 29.02
219.00 28.87
220.00 28.75
221.00 28.67
222.00 28.61
223.00 28.56
224.00 28.52
225.00 28.47
226.00 28.43
227.00 28.37
228.00 28.29
229.00 28.20
230.00 28.08
231.00 27.95
232.00 27.80
233.00 27.63
234.00 27.46
235.00 27.29
236.00 27.11
237.00 26.95
238.00 26.79
239.00 26.64
240.00 26.52
241.00 26.41
242.00 26.32
243.00 26.25
244.00 26.21
245.00 26.19
246.00 26.19
247.00 26.21
248.00 26.25
249.00 26.30
250.00 26.38
251.00 26.47
252.00 26.57
253.00 26.68
254.00 26.81
255.00 26.93
256.00 27.06
257.00 27.19
258.00 27.31
259.00 27.42
260.00 27.52
261.00 27.60
262.00 27.66
263.00 27.70
264.00 27.71
265.00 27.69
266.00 27.62
267.00 27.52
268.00 27.37
269.00 27.18
270.00 26.95
271.00 26.67
272.00 26.36
273.00 26.01
274.00 25.62
275.00 25.20
276.00 24.76
277.00 24.30
278.00 23.83
279.00 23.34
280.00 22.85
281.00 22.35
282.00 21.85
283.00 21.35
284.00 20.85
285.00 20.35
286.00 19.86
287.00 19.37
288.00 18.89
289.00 18.41
290.00 17.94
291.00 17.47
292.00 17.01
293.00 16.55
294.00 16.10
295.00 15.65
296.00 15.20
297.00 14.77
298.00 14.34
299.00 13.90
300.00 13.48
301.00 13.06
302.00 12.64
303.00 12.23
304.00 11.82
305.00 11.41
306.00 11.01
307.00 10.61
308.00 10.22
309.00 9.83
310.00 9.45
311.00 9.07
312.00 8.70
313.00 8.34
314.00 7.98
315.00 7.63
316.00 7.28
317.00 6.94
318.00 6.61
319.00 6.29
320.00 5.97
321.00 5.66
322.00 5.37
323.00 5.08
324.00 4.80
325.00 4.52
326.00 4.26
327.00 4.01
328.00 3.76
329.00 3.53
330.00 3.30
331.00 3.09
332.00 2.88
333.00 2.68
334.00 2.50
335.00 2.32
336.00 2.15
337.00 1.99
338.00 1.84
339.00 1.70
340.00 1.56
341.00 1.43
342.00 1.31
343.00 1.20
344.00 1.10
345.00 1.00
346.00 0.91
347.00 0.82
348.00 0.74
349.00 0.66
350.00 0.59
351.00 0.53
352.00 0.46
353.00 0.41
354.00 0.35
355.00 0.30
356.00 0.25
357.00 0.21
358.00 0.17
359.00 0.13
VERTICAL 360
0.00 19.83
1.00 13.77
2.00 8.87
3.00 5.30
4.00 2.76
5.00 1.07
6.00 0.17
7.00 0.01
8.00 0.60
9.00 1.99
10.00 4.31
11.00 7.93
12.00 14.05
13.00 27.48
14.00 19.66
15.00 14.68
16.00 13.67
17.00 14.96
18.00 18.84
19.00 26.68
20.00 24.94
21.00 19.62
22.00 18.01
23.00 18.69
24.00 21.76
25.00 30.22
26.00 35.27
27.00 24.17
28.00 20.86
29.00 19.84
30.00 20.23
31.00 21.92
32.00 25.68
33.00 36.41
34.00 31.45
35.00 23.30
36.00 20.05
37.00 19.01
38.00 19.70
39.00 22.14
40.00 26.47
41.00 29.93
42.00 28.02
43.00 26.42
44.00 26.41
45.00 27.18
46.00 28.19
47.00 29.57
48.00 30.88
49.00 30.01
50.00 27.96
51.00 26.86
52.00 27.03
53.00 28.21
54.00 30.07
55.00 32.23
56.00 34.18
57.00 34.59
58.00 32.62
59.00 29.99
60.00 28.04
61.00 27.02
62.00 26.76
63.00 26.93
64.00 27.28
65.00 27.75
66.00 28.50
67.00 29.68
68.00 31.14
69.00 32.39
70.00 32.91
71.00 32.82
72.00 32.56
73.00 32.34
74.00 32.20
75.00 31.98
76.00 31.48
77.00 30.79
78.00 30.10
79.00 29.46
80.00 28.81
81.00 28.01
82.00 27.01
83.00 26.11
84.00 25.68
85.00 25.97
86.00 26.88
87.00 28.05
88.00 28.90
89.00 29.06
90.00 28.55
91.00 28.03
92.00 27.78
93.00 27.69
94.00 27.61
95.00 27.58
96.00 27.78
97.00 28.39
98.00 29.60
99.00 31.47
100.00 33.90
101.00 36.52
102.00 38.86
103.00 40.70
104.00 42.57
105.00 45.48
106.00 47.99
107.00 45.61
108.00 42.48
109.00 40.29
110.00 38.69
111.00 37.75
112.00 37.55
113.00 38.06
114.00 39.21
115.00 40.77
116.00 42.12
117.00 43.03
118.00 44.31
119.00 46.69
120.00 49.85
121.00 51.83
122.00 50.21
123.00 46.40
124.00 43.30
125.00 41.78
126.00 42.03
127.00 44.00
128.00 46.08
129.00 45.38
130.00 44.39
131.00 44.65
132.00 43.69
133.00 40.47
134.00 37.64
135.00 35.96
136.00 35.24
137.00 35.21
138.00 35.55
139.00 35.94
140.00 36.04
141.00 35.72
142.00 35.18
143.00 34.76
144.00 34.74
145.00 35.25
146.00 36.29
147.00 37.69
148.00 38.63
149.00 38.33
150.00 38.03
151.00 39.63
152.00 46.12
153.00 55.67
154.00 41.05
155.00 36.82
156.00 34.70
157.00 33.67
158.00 33.74
159.00 34.92
160.00 36.80
161.00 38.78
162.00 41.29
163.00 45.52
164.00 49.01
165.00 45.02
166.00 39.95
167.00 36.28
168.00 34.15
169.00 33.11
170.00 32.47
171.00 32.16
172.00 31.69
173.00 33.14
174.00 37.79
175.00 44.06
176.00 45.23
177.00 44.08
178.00 41.66
179.00 41.29
180.00 45.78
181.00 47.52
182.00 38.75
183.00 35.86
184.00 36.24
185.00 39.55
186.00 47.40
187.00 48.97
188.00 40.30
189.00 36.45
190.00 35.30
191.00 36.78
192.00 42.17
193.00 53.24
194.00 43.49
195.00 39.94
196.00 38.94
197.00 38.79
198.00 38.93
199.00 38.42
200.00 36.49
201.00 34.24
202.00 32.62
203.00 31.77
204.00 31.63
205.00 32.11
206.00 33.20
207.00 34.92
208.00 37.46
209.00 41.62
210.00 48.63
211.00 45.66
212.00 39.54
213.00 36.43
214.00 34.85
215.00 34.31
216.00 34.73
217.00 36.28
218.00 39.18
219.00 43.02
220.00 45.07
221.00 45.46
222.00 48.14
223.00 50.99
224.00 46.36
225.00 44.04
226.00 45.59
227.00 52.35
228.00 52.85
229.00 48.11
230.00 50.97
231.00 66.34
232.00 45.81
233.00 41.53
234.00 41.11
235.00 44.16
236.00 51.55
237.00 46.27
238.00 40.47
239.00 37.76
240.00 36.58
241.00 36.50
242.00 37.57
243.00 40.23
244.00 45.99
245.00 61.58
246.00 48.27
247.00 43.29
248.00 41.17
249.00 39.91
250.00 38.79
251.00 37.62
252.00 36.67
253.00 36.13
254.00 35.88
255.00 35.55
256.00 34.76
257.00 33.41
258.00 32.05
259.00 31.29
260.00 31.39
261.00 32.27
262.00 33.73
263.00 35.06
264.00 34.35
265.00 32.09
266.00 30.55
267.00 30.28
268.00 30.98
269.00 31.96
270.00 32.48
271.00 32.23
272.00 31.67
273.00 31.82
274.00 33.42
275.00 37.00
276.00 42.87
277.00 49.23
278.00 49.27
279.00 45.24
280.00 42.72
281.00 41.79
282.00 41.20
283.00 41.07
284.00 42.84
285.00 47.32
286.00 46.22
287.00 40.63
288.00 36.91
289.00 33.80
290.00 30.78
291.00 28.03
292.00 25.81
293.00 24.22
294.00 23.22
295.00 22.70
296.00 22.55
297.00 22.74
298.00 23.34
299.00 24.44
300.00 26.12
301.00 28.16
302.00 30.01
303.00 31.36
304.00 32.85
305.00 34.81
306.00 33.76
307.00 29.49
308.00 26.23
309.00 24.52
310.00 24.15
311.00 25.00
312.00 27.22
313.00 31.58
314.00 36.49
315.00 29.75
316.00 24.25
317.00 21.01
318.00 19.16
319.00 18.36
320.00 18.47
321.00 19.53
322.00 21.69
323.00 24.35
324.00 23.56
325.00 20.03
326.00 17.48
327.00 16.23
328.00 16.01
329.00 16.59
330.00 17.78
331.00 19.46
332.00 21.52
333.00 23.61
334.00 24.98
335.00 25.54
336.00 26.12
337.00 26.03
338.00 23.58
339.00 20.70
340.00 19.14
341.00 19.29
342.00 21.65
343.00 28.41
344.00 42.69
345.00 25.68
346.00 22.21
347.00 21.77
348.00 23.40
349.00 26.49
350.00 26.74
351.00 23.10
352.00 20.50
353.00 19.65
354.00 20.67
355.00 24.35
356.00 32.52
357.00 29.18
358.00 24.50
359.00 23.37
