NAME ATR4518R7_0880_X_CO_M45_00T
FREQUENCY 0880
GAIN 14.56 dBd
TILT	ELECTRICAL
COMMENT DATE 05.08.2013 -45 degrees polarized system Lever position 00T deg
HORIZONTAL 360
0.00 0.01
1.00 0.00
2.00 0.00
3.00 0.00
4.00 0.01
5.00 0.02
6.00 0.05
7.00 0.07
8.00 0.11
9.00 0.15
10.00 0.20
11.00 0.25
12.00 0.31
13.00 0.38
14.00 0.45
15.00 0.54
16.00 0.62
17.00 0.72
18.00 0.82
19.00 0.93
20.00 1.04
21.00 1.16
22.00 1.29
23.00 1.43
24.00 1.57
25.00 1.72
26.00 1.87
27.00 2.03
28.00 2.20
29.00 2.37
30.00 2.55
31.00 2.74
32.00 2.94
33.00 3.14
34.00 3.35
35.00 3.56
36.00 3.78
37.00 4.00
38.00 4.24
39.00 4.48
40.00 4.72
41.00 4.97
42.00 5.23
43.00 5.50
44.00 5.77
45.00 6.04
46.00 6.33
47.00 6.61
48.00 6.91
49.00 7.21
50.00 7.51
51.00 7.83
52.00 8.14
53.00 8.47
54.00 8.79
55.00 9.13
56.00 9.47
57.00 9.81
58.00 10.16
59.00 10.52
60.00 10.88
61.00 11.24
62.00 11.62
63.00 12.00
64.00 12.38
65.00 12.77
66.00 13.16
67.00 13.56
68.00 13.96
69.00 14.37
70.00 14.78
71.00 15.20
72.00 15.63
73.00 16.06
74.00 16.50
75.00 16.94
76.00 17.39
77.00 17.84
78.00 18.30
79.00 18.77
80.00 19.24
81.00 19.71
82.00 20.20
83.00 20.68
84.00 21.18
85.00 21.68
86.00 22.19
87.00 22.70
88.00 23.21
89.00 23.74
90.00 24.27
91.00 24.80
92.00 25.33
93.00 25.87
94.00 26.41
95.00 26.96
96.00 27.50
97.00 28.04
98.00 28.58
99.00 29.11
100.00 29.63
101.00 30.14
102.00 30.63
103.00 31.10
104.00 31.55
105.00 31.96
106.00 32.34
107.00 32.68
108.00 32.98
109.00 33.23
110.00 33.44
111.00 33.59
112.00 33.71
113.00 33.78
114.00 33.81
115.00 33.80
116.00 33.78
117.00 33.72
118.00 33.65
119.00 33.56
120.00 33.46
121.00 33.36
122.00 33.25
123.00 33.14
124.00 33.04
125.00 32.93
126.00 32.84
127.00 32.75
128.00 32.67
129.00 32.59
130.00 32.52
131.00 32.47
132.00 32.42
133.00 32.38
134.00 32.36
135.00 32.34
136.00 32.34
137.00 32.35
138.00 32.36
139.00 32.39
140.00 32.43
141.00 32.49
142.00 32.55
143.00 32.63
144.00 32.72
145.00 32.82
146.00 32.93
147.00 33.06
148.00 33.20
149.00 33.36
150.00 33.53
151.00 33.71
152.00 33.91
153.00 34.12
154.00 34.34
155.00 34.58
156.00 34.84
157.00 35.11
158.00 35.39
159.00 35.70
160.00 36.01
161.00 36.35
162.00 36.70
163.00 37.07
164.00 37.46
165.00 37.85
166.00 38.26
167.00 38.69
168.00 39.13
169.00 39.59
170.00 40.05
171.00 40.53
172.00 41.02
173.00 41.51
174.00 42.00
175.00 42.50
176.00 42.97
177.00 43.45
178.00 43.92
179.00 44.36
180.00 44.80
181.00 45.18
182.00 45.56
183.00 45.90
184.00 46.20
185.00 46.48
186.00 46.73
187.00 46.94
188.00 47.13
189.00 47.28
190.00 47.40
191.00 47.50
192.00 47.56
193.00 47.60
194.00 47.60
195.00 47.57
196.00 47.50
197.00 47.41
198.00 47.28
199.00 47.13
200.00 46.92
201.00 46.71
202.00 46.45
203.00 46.22
204.00 45.94
205.00 45.67
206.00 45.38
207.00 45.10
208.00 44.81
209.00 44.53
210.00 44.25
211.00 43.97
212.00 43.72
213.00 43.45
214.00 43.21
215.00 42.95
216.00 42.71
217.00 42.46
218.00 42.22
219.00 41.97
220.00 41.72
221.00 41.47
222.00 41.21
223.00 40.94
224.00 40.67
225.00 40.38
226.00 40.08
227.00 39.78
228.00 39.46
229.00 39.14
230.00 38.81
231.00 38.47
232.00 38.12
233.00 37.77
234.00 37.41
235.00 37.06
236.00 36.71
237.00 36.34
238.00 35.98
239.00 35.62
240.00 35.25
241.00 34.88
242.00 34.51
243.00 34.14
244.00 33.76
245.00 33.38
246.00 32.99
247.00 32.60
248.00 32.20
249.00 31.78
250.00 31.37
251.00 30.94
252.00 30.50
253.00 30.05
254.00 29.60
255.00 29.14
256.00 28.67
257.00 28.19
258.00 27.71
259.00 27.22
260.00 26.73
261.00 26.24
262.00 25.74
263.00 25.25
264.00 24.76
265.00 24.27
266.00 23.78
267.00 23.30
268.00 22.82
269.00 22.34
270.00 21.87
271.00 21.41
272.00 20.95
273.00 20.50
274.00 20.05
275.00 19.61
276.00 19.18
277.00 18.76
278.00 18.34
279.00 17.93
280.00 17.52
281.00 17.12
282.00 16.73
283.00 16.34
284.00 15.96
285.00 15.59
286.00 15.22
287.00 14.86
288.00 14.50
289.00 14.15
290.00 13.80
291.00 13.46
292.00 13.12
293.00 12.79
294.00 12.47
295.00 12.14
296.00 11.82
297.00 11.51
298.00 11.20
299.00 10.89
300.00 10.59
301.00 10.29
302.00 9.99
303.00 9.70
304.00 9.41
305.00 9.12
306.00 8.84
307.00 8.56
308.00 8.29
309.00 8.01
310.00 7.75
311.00 7.48
312.00 7.22
313.00 6.96
314.00 6.70
315.00 6.45
316.00 6.20
317.00 5.96
318.00 5.72
319.00 5.48
320.00 5.25
321.00 5.02
322.00 4.80
323.00 4.58
324.00 4.36
325.00 4.15
326.00 3.94
327.00 3.74
328.00 3.54
329.00 3.34
330.00 3.15
331.00 2.97
332.00 2.79
333.00 2.61
334.00 2.45
335.00 2.28
336.00 2.12
337.00 1.97
338.00 1.82
339.00 1.68
340.00 1.54
341.00 1.40
342.00 1.28
343.00 1.16
344.00 1.04
345.00 0.93
346.00 0.83
347.00 0.73
348.00 0.64
349.00 0.55
350.00 0.47
351.00 0.40
352.00 0.33
353.00 0.27
354.00 0.21
355.00 0.16
356.00 0.12
357.00 0.09
358.00 0.05
359.00 0.03
VERTICAL 360
0.00 0.00
1.00 0.13
2.00 0.62
3.00 1.49
4.00 2.78
5.00 4.56
6.00 6.90
7.00 9.96
8.00 14.06
9.00 19.98
10.00 30.68
11.00 32.03
12.00 26.92
13.00 26.91
14.00 30.23
15.00 32.18
16.00 26.27
17.00 22.27
18.00 20.17
19.00 19.37
20.00 19.62
21.00 20.90
22.00 23.35
23.00 27.59
24.00 35.67
25.00 37.21
26.00 30.54
27.00 28.15
28.00 28.17
29.00 30.64
30.00 34.68
31.00 28.72
32.00 22.80
33.00 18.92
34.00 16.20
35.00 14.23
36.00 12.82
37.00 11.85
38.00 11.30
39.00 11.13
40.00 11.32
41.00 11.86
42.00 12.71
43.00 13.83
44.00 15.19
45.00 16.81
46.00 18.75
47.00 21.14
48.00 24.15
49.00 27.93
50.00 32.23
51.00 35.61
52.00 36.81
53.00 37.00
54.00 36.65
55.00 35.57
56.00 34.17
57.00 33.16
58.00 33.14
59.00 34.50
60.00 37.58
61.00 42.41
62.00 45.11
63.00 42.21
64.00 38.92
65.00 36.56
66.00 35.40
67.00 35.27
68.00 35.58
69.00 35.71
70.00 35.71
71.00 36.10
72.00 37.31
73.00 39.90
74.00 45.73
75.00 53.80
76.00 41.35
77.00 35.93
78.00 32.84
79.00 31.35
80.00 31.47
81.00 33.32
82.00 35.65
83.00 34.01
84.00 31.04
85.00 29.28
86.00 28.48
87.00 28.37
88.00 29.06
89.00 31.04
90.00 34.97
91.00 41.83
92.00 49.81
93.00 48.93
94.00 41.33
95.00 35.78
96.00 32.97
97.00 31.96
98.00 32.07
99.00 32.79
100.00 34.15
101.00 36.67
102.00 40.11
103.00 40.64
104.00 38.99
105.00 38.72
106.00 39.88
107.00 41.70
108.00 43.82
109.00 45.94
110.00 45.98
111.00 44.97
112.00 45.70
113.00 48.81
114.00 51.14
115.00 48.22
116.00 45.18
117.00 42.91
118.00 41.60
119.00 41.44
120.00 42.17
121.00 42.87
122.00 42.22
123.00 40.04
124.00 37.48
125.00 35.43
126.00 34.12
127.00 33.34
128.00 32.83
129.00 32.42
130.00 32.06
131.00 31.69
132.00 31.32
133.00 31.06
134.00 31.12
135.00 31.59
136.00 32.48
137.00 33.70
138.00 35.16
139.00 36.80
140.00 38.95
141.00 42.59
142.00 48.36
143.00 44.74
144.00 39.88
145.00 37.60
146.00 36.95
147.00 37.51
148.00 39.12
149.00 41.66
150.00 44.71
151.00 47.03
152.00 47.08
153.00 44.61
154.00 40.92
155.00 37.44
156.00 34.72
157.00 32.94
158.00 32.21
159.00 32.66
160.00 34.49
161.00 37.60
162.00 38.45
163.00 35.22
164.00 32.57
165.00 31.12
166.00 30.37
167.00 29.83
168.00 29.31
169.00 29.02
170.00 29.26
171.00 30.23
172.00 31.90
173.00 33.73
174.00 34.47
175.00 33.97
176.00 33.61
177.00 35.36
178.00 37.97
179.00 41.44
180.00 45.74
181.00 49.38
182.00 47.27
183.00 41.53
184.00 37.51
185.00 34.86
186.00 33.12
187.00 31.93
188.00 31.09
189.00 30.41
190.00 30.48
191.00 30.70
192.00 31.00
193.00 31.32
194.00 31.64
195.00 32.03
196.00 32.57
197.00 33.23
198.00 33.92
199.00 34.62
200.00 35.28
201.00 35.89
202.00 36.49
203.00 37.29
204.00 38.74
205.00 41.59
206.00 47.89
207.00 60.13
208.00 46.71
209.00 43.52
210.00 43.43
211.00 44.92
212.00 45.79
213.00 43.96
214.00 40.92
215.00 38.28
216.00 36.62
217.00 36.04
218.00 36.34
219.00 37.08
220.00 37.51
221.00 36.98
222.00 35.74
223.00 34.75
224.00 34.73
225.00 36.06
226.00 38.96
227.00 42.78
228.00 44.32
229.00 43.99
230.00 44.48
231.00 45.52
232.00 45.82
233.00 44.49
234.00 42.38
235.00 41.12
236.00 41.56
237.00 43.98
238.00 46.13
239.00 43.30
240.00 40.61
241.00 39.56
242.00 39.23
243.00 38.10
244.00 36.10
245.00 34.46
246.00 33.80
247.00 34.21
248.00 35.62
249.00 37.73
250.00 39.70
251.00 40.09
252.00 38.65
253.00 36.67
254.00 35.02
255.00 34.04
256.00 33.89
257.00 34.60
258.00 35.80
259.00 36.10
260.00 34.66
261.00 32.84
262.00 31.56
263.00 31.05
264.00 31.49
265.00 33.30
266.00 37.36
267.00 45.65
268.00 41.19
269.00 35.95
270.00 33.80
271.00 33.31
272.00 34.08
273.00 36.23
274.00 40.49
275.00 50.77
276.00 49.13
277.00 42.10
278.00 40.30
279.00 41.46
280.00 46.87
281.00 58.30
282.00 43.60
283.00 39.48
284.00 38.04
285.00 37.83
286.00 38.09
287.00 38.36
288.00 38.19
289.00 36.92
290.00 34.78
291.00 32.56
292.00 30.65
293.00 29.14
294.00 28.03
295.00 27.27
296.00 26.78
297.00 26.45
298.00 26.30
299.00 26.46
300.00 27.17
301.00 28.79
302.00 31.89
303.00 37.66
304.00 37.76
305.00 30.76
306.00 26.20
307.00 22.87
308.00 20.18
309.00 17.98
310.00 16.21
311.00 14.87
312.00 13.93
313.00 13.35
314.00 13.07
315.00 12.99
316.00 13.05
317.00 13.23
318.00 13.55
319.00 14.13
320.00 15.08
321.00 16.51
322.00 18.57
323.00 21.40
324.00 25.17
325.00 30.11
326.00 36.34
327.00 42.30
328.00 42.02
329.00 38.22
330.00 34.80
331.00 32.07
332.00 29.84
333.00 27.96
334.00 26.41
335.00 25.10
336.00 23.92
337.00 22.83
338.00 21.95
339.00 21.48
340.00 21.63
341.00 22.67
342.00 25.04
343.00 29.96
344.00 41.48
345.00 30.93
346.00 25.65
347.00 23.55
348.00 23.69
349.00 26.95
350.00 32.65
351.00 21.37
352.00 14.72
353.00 10.35
354.00 7.19
355.00 4.81
356.00 3.02
357.00 1.69
358.00 0.77
359.00 0.21
