NAME ATR4518R7_0832_X_CO_M45_09T
FREQUENCY 0832
GAIN 14.63 dBd
TILT	ELECTRICAL
COMMENT DATE 05.08.2013 -45 degrees polarized system Lever position 09T deg
HORIZONTAL 360
0.00 0.00
1.00 0.01
2.00 0.03
3.00 0.05
4.00 0.08
5.00 0.11
6.00 0.15
7.00 0.20
8.00 0.25
9.00 0.31
10.00 0.38
11.00 0.45
12.00 0.53
13.00 0.61
14.00 0.70
15.00 0.79
16.00 0.89
17.00 1.00
18.00 1.12
19.00 1.24
20.00 1.36
21.00 1.50
22.00 1.63
23.00 1.78
24.00 1.93
25.00 2.09
26.00 2.25
27.00 2.42
28.00 2.60
29.00 2.78
30.00 2.97
31.00 3.16
32.00 3.36
33.00 3.57
34.00 3.79
35.00 4.01
36.00 4.23
37.00 4.46
38.00 4.70
39.00 4.95
40.00 5.20
41.00 5.46
42.00 5.72
43.00 5.99
44.00 6.26
45.00 6.55
46.00 6.83
47.00 7.13
48.00 7.43
49.00 7.73
50.00 8.05
51.00 8.37
52.00 8.69
53.00 9.02
54.00 9.35
55.00 9.70
56.00 10.04
57.00 10.39
58.00 10.75
59.00 11.11
60.00 11.48
61.00 11.85
62.00 12.23
63.00 12.61
64.00 13.00
65.00 13.40
66.00 13.79
67.00 14.20
68.00 14.60
69.00 15.01
70.00 15.43
71.00 15.85
72.00 16.27
73.00 16.70
74.00 17.12
75.00 17.56
76.00 17.99
77.00 18.43
78.00 18.86
79.00 19.30
80.00 19.74
81.00 20.18
82.00 20.62
83.00 21.05
84.00 21.49
85.00 21.92
86.00 22.35
87.00 22.77
88.00 23.19
89.00 23.60
90.00 24.00
91.00 24.40
92.00 24.78
93.00 25.16
94.00 25.52
95.00 25.88
96.00 26.22
97.00 26.55
98.00 26.88
99.00 27.19
100.00 27.50
101.00 27.80
102.00 28.09
103.00 28.38
104.00 28.67
105.00 28.96
106.00 29.25
107.00 29.54
108.00 29.83
109.00 30.14
110.00 30.46
111.00 30.78
112.00 31.12
113.00 31.48
114.00 31.85
115.00 32.25
116.00 32.67
117.00 33.11
118.00 33.59
119.00 34.09
120.00 34.63
121.00 35.22
122.00 35.84
123.00 36.52
124.00 37.25
125.00 38.05
126.00 38.92
127.00 39.88
128.00 40.94
129.00 42.14
130.00 43.48
131.00 45.03
132.00 46.85
133.00 49.03
134.00 51.74
135.00 55.15
136.00 58.77
137.00 58.91
138.00 55.73
139.00 52.82
140.00 50.60
141.00 48.91
142.00 47.59
143.00 46.53
144.00 45.68
145.00 44.99
146.00 44.44
147.00 43.99
148.00 43.64
149.00 43.38
150.00 43.18
151.00 43.06
152.00 42.98
153.00 42.95
154.00 42.95
155.00 42.99
156.00 43.05
157.00 43.11
158.00 43.17
159.00 43.21
160.00 43.20
161.00 43.13
162.00 43.00
163.00 42.80
164.00 42.52
165.00 42.18
166.00 41.78
167.00 41.32
168.00 40.84
169.00 40.33
170.00 39.82
171.00 39.31
172.00 38.81
173.00 38.32
174.00 37.86
175.00 37.42
176.00 37.00
177.00 36.61
178.00 36.24
179.00 35.90
180.00 35.59
181.00 35.31
182.00 35.05
183.00 34.82
184.00 34.62
185.00 34.44
186.00 34.29
187.00 34.16
188.00 34.06
189.00 33.98
190.00 33.93
191.00 33.91
192.00 33.91
193.00 33.94
194.00 33.99
195.00 34.07
196.00 34.18
197.00 34.32
198.00 34.48
199.00 34.68
200.00 34.91
201.00 35.17
202.00 35.46
203.00 35.79
204.00 36.16
205.00 36.57
206.00 37.03
207.00 37.54
208.00 38.10
209.00 38.74
210.00 39.44
211.00 40.22
212.00 41.11
213.00 42.11
214.00 43.27
215.00 44.62
216.00 46.23
217.00 48.23
218.00 50.76
219.00 54.23
220.00 58.86
221.00 60.31
222.00 55.76
223.00 51.86
224.00 49.04
225.00 46.87
226.00 45.11
227.00 43.65
228.00 42.39
229.00 41.28
230.00 40.28
231.00 39.37
232.00 38.54
233.00 37.75
234.00 37.02
235.00 36.31
236.00 35.64
237.00 34.99
238.00 34.36
239.00 33.74
240.00 33.14
241.00 32.55
242.00 31.96
243.00 31.39
244.00 30.82
245.00 30.26
246.00 29.70
247.00 29.15
248.00 28.61
249.00 28.08
250.00 27.55
251.00 27.03
252.00 26.52
253.00 26.02
254.00 25.52
255.00 25.04
256.00 24.56
257.00 24.09
258.00 23.63
259.00 23.18
260.00 22.73
261.00 22.30
262.00 21.87
263.00 21.45
264.00 21.04
265.00 20.64
266.00 20.24
267.00 19.86
268.00 19.48
269.00 19.10
270.00 18.73
271.00 18.37
272.00 18.02
273.00 17.67
274.00 17.32
275.00 16.99
276.00 16.65
277.00 16.32
278.00 15.99
279.00 15.67
280.00 15.35
281.00 15.04
282.00 14.72
283.00 14.42
284.00 14.11
285.00 13.80
286.00 13.50
287.00 13.20
288.00 12.90
289.00 12.60
290.00 12.30
291.00 12.01
292.00 11.71
293.00 11.42
294.00 11.13
295.00 10.84
296.00 10.55
297.00 10.26
298.00 9.98
299.00 9.69
300.00 9.41
301.00 9.13
302.00 8.85
303.00 8.58
304.00 8.30
305.00 8.03
306.00 7.76
307.00 7.50
308.00 7.23
309.00 6.97
310.00 6.71
311.00 6.46
312.00 6.21
313.00 5.96
314.00 5.72
315.00 5.48
316.00 5.24
317.00 5.01
318.00 4.78
319.00 4.56
320.00 4.34
321.00 4.13
322.00 3.92
323.00 3.71
324.00 3.51
325.00 3.32
326.00 3.13
327.00 2.95
328.00 2.77
329.00 2.59
330.00 2.42
331.00 2.26
332.00 2.10
333.00 1.95
334.00 1.80
335.00 1.66
336.00 1.53
337.00 1.40
338.00 1.27
339.00 1.15
340.00 1.04
341.00 0.93
342.00 0.83
343.00 0.73
344.00 0.64
345.00 0.56
346.00 0.48
347.00 0.41
348.00 0.34
349.00 0.28
350.00 0.23
351.00 0.18
352.00 0.13
353.00 0.10
354.00 0.06
355.00 0.04
356.00 0.02
357.00 0.01
358.00 0.00
359.00 0.00
VERTICAL 360
0.00 18.70
1.00 13.19
2.00 9.38
3.00 6.53
4.00 4.37
5.00 2.72
6.00 1.50
7.00 0.66
8.00 0.17
9.00 0.00
10.00 0.15
11.00 0.62
12.00 1.42
13.00 2.59
14.00 4.17
15.00 6.21
16.00 8.86
17.00 12.35
18.00 17.23
19.00 25.45
20.00 40.76
21.00 26.04
22.00 23.03
23.00 22.61
24.00 23.90
25.00 27.06
26.00 33.60
27.00 36.55
28.00 28.92
29.00 25.28
30.00 23.58
31.00 23.09
32.00 23.59
33.00 25.06
34.00 27.68
35.00 32.01
36.00 40.40
37.00 45.26
38.00 36.23
39.00 33.05
40.00 31.93
41.00 32.23
42.00 34.00
43.00 37.58
44.00 39.30
45.00 34.26
46.00 30.13
47.00 27.49
48.00 25.82
49.00 24.81
50.00 24.24
51.00 23.99
52.00 23.99
53.00 24.22
54.00 24.73
55.00 25.60
56.00 27.00
57.00 29.18
58.00 32.66
59.00 38.76
60.00 43.70
61.00 36.52
62.00 32.66
63.00 30.71
64.00 29.78
65.00 29.45
66.00 29.44
67.00 29.47
68.00 29.37
69.00 29.12
70.00 28.88
71.00 28.83
72.00 29.09
73.00 29.69
74.00 30.60
75.00 31.83
76.00 33.45
77.00 35.65
78.00 38.70
79.00 43.04
80.00 50.44
81.00 58.78
82.00 43.83
83.00 37.60
84.00 33.65
85.00 31.04
86.00 29.40
87.00 28.50
88.00 28.15
89.00 28.21
90.00 28.52
91.00 28.96
92.00 29.43
93.00 29.91
94.00 30.45
95.00 31.14
96.00 32.09
97.00 33.40
98.00 35.08
99.00 37.13
100.00 39.52
101.00 42.10
102.00 44.24
103.00 44.99
104.00 44.64
105.00 44.06
106.00 43.30
107.00 42.06
108.00 40.58
109.00 39.30
110.00 38.40
111.00 37.84
112.00 37.49
113.00 37.26
114.00 37.15
115.00 37.21
116.00 37.46
117.00 37.90
118.00 38.56
119.00 39.46
120.00 40.64
121.00 42.12
122.00 43.92
123.00 46.08
124.00 48.57
125.00 50.60
126.00 49.92
127.00 47.13
128.00 44.43
129.00 42.32
130.00 40.80
131.00 39.76
132.00 39.12
133.00 38.85
134.00 38.96
135.00 39.51
136.00 40.68
137.00 42.80
138.00 46.69
139.00 55.11
140.00 52.13
141.00 44.90
142.00 41.32
143.00 39.38
144.00 38.44
145.00 38.10
146.00 37.99
147.00 37.68
148.00 36.89
149.00 35.74
150.00 34.52
151.00 33.50
152.00 32.88
153.00 32.81
154.00 33.39
155.00 34.74
156.00 37.04
157.00 40.53
158.00 45.65
159.00 51.92
160.00 51.81
161.00 48.14
162.00 44.61
163.00 41.44
164.00 38.90
165.00 37.01
166.00 35.73
167.00 34.95
168.00 34.62
169.00 34.69
170.00 35.13
171.00 35.90
172.00 36.32
173.00 36.98
174.00 37.80
175.00 38.66
176.00 39.38
177.00 39.73
178.00 39.43
179.00 39.12
180.00 38.49
181.00 37.90
182.00 37.58
183.00 37.68
184.00 38.23
185.00 39.17
186.00 40.31
187.00 41.28
188.00 41.64
189.00 41.21
190.00 40.37
191.00 39.60
192.00 39.18
193.00 39.07
194.00 38.92
195.00 38.38
196.00 37.46
197.00 36.47
198.00 35.66
199.00 35.14
200.00 34.93
201.00 35.10
202.00 35.77
203.00 37.03
204.00 38.99
205.00 41.82
206.00 45.54
207.00 46.58
208.00 42.15
209.00 38.17
210.00 35.52
211.00 33.97
212.00 33.29
213.00 33.34
214.00 33.94
215.00 34.84
216.00 35.72
217.00 36.24
218.00 36.26
219.00 35.95
220.00 35.61
221.00 35.50
222.00 35.74
223.00 36.26
224.00 36.79
225.00 36.83
226.00 36.15
227.00 35.04
228.00 33.95
229.00 33.18
230.00 32.81
231.00 32.86
232.00 33.23
233.00 33.75
234.00 34.13
235.00 34.11
236.00 33.67
237.00 33.07
238.00 32.62
239.00 32.52
240.00 32.91
241.00 33.88
242.00 35.55
243.00 38.11
244.00 41.88
245.00 45.98
246.00 44.88
247.00 41.69
248.00 39.76
249.00 38.90
250.00 38.70
251.00 38.85
252.00 39.12
253.00 39.46
254.00 39.88
255.00 40.36
256.00 40.93
257.00 41.76
258.00 43.11
259.00 45.04
260.00 46.77
261.00 46.66
262.00 45.28
263.00 43.91
264.00 42.58
265.00 41.10
266.00 39.73
267.00 38.83
268.00 38.57
269.00 38.88
270.00 39.42
271.00 39.59
272.00 39.15
273.00 38.51
274.00 38.14
275.00 38.20
276.00 38.58
277.00 38.95
278.00 38.84
279.00 38.13
280.00 37.17
281.00 36.38
282.00 36.00
283.00 36.09
284.00 36.65
285.00 37.59
286.00 38.68
287.00 39.49
288.00 39.68
289.00 39.41
290.00 39.20
291.00 39.47
292.00 40.55
293.00 42.78
294.00 46.89
295.00 55.97
296.00 58.89
297.00 49.85
298.00 46.70
299.00 45.08
300.00 43.29
301.00 40.71
302.00 37.94
303.00 35.65
304.00 34.07
305.00 33.25
306.00 33.24
307.00 34.13
308.00 36.15
309.00 39.72
310.00 43.21
311.00 39.08
312.00 34.26
313.00 30.83
314.00 28.28
315.00 26.35
316.00 24.92
317.00 23.95
318.00 23.48
319.00 23.53
320.00 24.20
321.00 25.65
322.00 28.27
323.00 33.20
324.00 50.07
325.00 35.66
326.00 28.86
327.00 25.23
328.00 22.87
329.00 21.28
330.00 20.27
331.00 19.82
332.00 19.95
333.00 20.78
334.00 22.52
335.00 25.71
336.00 32.01
337.00 43.23
338.00 30.61
339.00 26.28
340.00 24.56
341.00 24.47
342.00 25.90
343.00 29.36
344.00 35.02
345.00 31.21
346.00 26.00
347.00 23.11
348.00 21.69
349.00 21.38
350.00 22.16
351.00 24.23
352.00 28.23
353.00 33.76
354.00 30.08
355.00 26.00
356.00 24.59
357.00 25.90
358.00 33.46
359.00 28.75
