NAME ATR4518R7_2350_X_CO_P45_08T_yL
FREQUENCY 2350
GAIN 15.01 dBd
TILT	ELECTRICAL
COMMENT DATE 05.08.2013 +45 degrees polarized system Lever position 08T deg
HORIZONTAL 360
0.00 0.01
1.00 0.00
2.00 0.00
3.00 0.01
4.00 0.02
5.00 0.05
6.00 0.08
7.00 0.12
8.00 0.16
9.00 0.21
10.00 0.27
11.00 0.33
12.00 0.40
13.00 0.47
14.00 0.54
15.00 0.62
16.00 0.71
17.00 0.80
18.00 0.90
19.00 1.00
20.00 1.10
21.00 1.21
22.00 1.33
23.00 1.45
24.00 1.58
25.00 1.71
26.00 1.84
27.00 1.98
28.00 2.13
29.00 2.28
30.00 2.43
31.00 2.59
32.00 2.76
33.00 2.92
34.00 3.09
35.00 3.27
36.00 3.45
37.00 3.64
38.00 3.83
39.00 4.03
40.00 4.23
41.00 4.44
42.00 4.66
43.00 4.88
44.00 5.11
45.00 5.35
46.00 5.60
47.00 5.85
48.00 6.11
49.00 6.39
50.00 6.67
51.00 6.95
52.00 7.25
53.00 7.56
54.00 7.88
55.00 8.20
56.00 8.54
57.00 8.89
58.00 9.24
59.00 9.61
60.00 9.98
61.00 10.37
62.00 10.77
63.00 11.18
64.00 11.60
65.00 12.02
66.00 12.46
67.00 12.91
68.00 13.36
69.00 13.82
70.00 14.28
71.00 14.74
72.00 15.21
73.00 15.67
74.00 16.13
75.00 16.58
76.00 17.02
77.00 17.45
78.00 17.86
79.00 18.25
80.00 18.62
81.00 18.96
82.00 19.28
83.00 19.58
84.00 19.84
85.00 20.08
86.00 20.30
87.00 20.49
88.00 20.66
89.00 20.82
90.00 20.96
91.00 21.09
92.00 21.22
93.00 21.34
94.00 21.47
95.00 21.60
96.00 21.74
97.00 21.89
98.00 22.05
99.00 22.22
100.00 22.41
101.00 22.61
102.00 22.82
103.00 23.05
104.00 23.29
105.00 23.54
106.00 23.80
107.00 24.05
108.00 24.30
109.00 24.54
110.00 24.76
111.00 24.97
112.00 25.15
113.00 25.31
114.00 25.44
115.00 25.55
116.00 25.65
117.00 25.73
118.00 25.80
119.00 25.88
120.00 25.96
121.00 26.06
122.00 26.17
123.00 26.30
124.00 26.45
125.00 26.62
126.00 26.80
127.00 26.99
128.00 27.19
129.00 27.38
130.00 27.55
131.00 27.70
132.00 27.83
133.00 27.93
134.00 28.00
135.00 28.04
136.00 28.07
137.00 28.09
138.00 28.12
139.00 28.15
140.00 28.21
141.00 28.29
142.00 28.40
143.00 28.53
144.00 28.70
145.00 28.90
146.00 29.12
147.00 29.37
148.00 29.62
149.00 29.90
150.00 30.19
151.00 30.50
152.00 30.83
153.00 31.19
154.00 31.59
155.00 32.05
156.00 32.58
157.00 33.18
158.00 33.87
159.00 34.62
160.00 35.40
161.00 36.09
162.00 36.57
163.00 36.65
164.00 36.28
165.00 35.53
166.00 34.60
167.00 33.62
168.00 32.71
169.00 31.91
170.00 31.25
171.00 30.72
172.00 30.34
173.00 30.11
174.00 30.03
175.00 30.11
176.00 30.35
177.00 30.75
178.00 31.36
179.00 32.17
180.00 33.23
181.00 34.59
182.00 36.29
183.00 38.36
184.00 40.59
185.00 41.97
186.00 41.25
187.00 39.24
188.00 37.21
189.00 35.52
190.00 34.19
191.00 33.18
192.00 32.44
193.00 31.93
194.00 31.62
195.00 31.50
196.00 31.56
197.00 31.78
198.00 32.18
199.00 32.73
200.00 33.46
201.00 34.32
202.00 35.32
203.00 36.38
204.00 37.41
205.00 38.23
206.00 38.70
207.00 38.74
208.00 38.49
209.00 38.11
210.00 37.77
211.00 37.56
212.00 37.56
213.00 37.79
214.00 38.29
215.00 39.07
216.00 40.11
217.00 41.24
218.00 41.95
219.00 41.51
220.00 39.91
221.00 37.85
222.00 35.84
223.00 34.05
224.00 32.49
225.00 31.16
226.00 30.02
227.00 29.03
228.00 28.20
229.00 27.48
230.00 26.89
231.00 26.39
232.00 25.98
233.00 25.65
234.00 25.40
235.00 25.21
236.00 25.09
237.00 25.02
238.00 25.01
239.00 25.03
240.00 25.09
241.00 25.18
242.00 25.28
243.00 25.40
244.00 25.51
245.00 25.61
246.00 25.69
247.00 25.74
248.00 25.75
249.00 25.72
250.00 25.64
251.00 25.51
252.00 25.35
253.00 25.15
254.00 24.93
255.00 24.68
256.00 24.42
257.00 24.15
258.00 23.88
259.00 23.60
260.00 23.31
261.00 23.02
262.00 22.72
263.00 22.41
264.00 22.10
265.00 21.77
266.00 21.43
267.00 21.08
268.00 20.72
269.00 20.35
270.00 19.97
271.00 19.59
272.00 19.20
273.00 18.82
274.00 18.45
275.00 18.08
276.00 17.72
277.00 17.37
278.00 17.04
279.00 16.73
280.00 16.43
281.00 16.15
282.00 15.88
283.00 15.63
284.00 15.39
285.00 15.17
286.00 14.96
287.00 14.76
288.00 14.56
289.00 14.38
290.00 14.19
291.00 14.00
292.00 13.80
293.00 13.60
294.00 13.38
295.00 13.16
296.00 12.92
297.00 12.67
298.00 12.40
299.00 12.11
300.00 11.81
301.00 11.49
302.00 11.17
303.00 10.83
304.00 10.49
305.00 10.13
306.00 9.78
307.00 9.43
308.00 9.07
309.00 8.72
310.00 8.36
311.00 8.02
312.00 7.68
313.00 7.34
314.00 7.00
315.00 6.68
316.00 6.36
317.00 6.04
318.00 5.74
319.00 5.44
320.00 5.15
321.00 4.87
322.00 4.60
323.00 4.34
324.00 4.09
325.00 3.86
326.00 3.63
327.00 3.42
328.00 3.22
329.00 3.03
330.00 2.86
331.00 2.70
332.00 2.56
333.00 2.42
334.00 2.29
335.00 2.18
336.00 2.07
337.00 1.96
338.00 1.87
339.00 1.77
340.00 1.68
341.00 1.58
342.00 1.49
343.00 1.39
344.00 1.29
345.00 1.19
346.00 1.09
347.00 0.98
348.00 0.88
349.00 0.77
350.00 0.67
351.00 0.57
352.00 0.47
353.00 0.38
354.00 0.30
355.00 0.23
356.00 0.17
357.00 0.11
358.00 0.07
359.00 0.04
VERTICAL 360
0.00 34.81
1.00 28.84
2.00 21.96
3.00 13.96
4.00 8.22
5.00 4.30
6.00 1.76
7.00 0.35
8.00 0.00
9.00 0.73
10.00 2.71
11.00 6.46
12.00 13.88
13.00 29.23
14.00 14.27
15.00 11.83
16.00 12.72
17.00 16.24
18.00 20.42
19.00 17.93
20.00 15.55
21.00 15.63
22.00 18.50
23.00 25.81
24.00 22.64
25.00 17.29
26.00 15.73
27.00 16.73
28.00 20.52
29.00 30.53
30.00 29.16
31.00 21.83
32.00 19.39
33.00 19.13
34.00 20.42
35.00 21.57
36.00 19.91
37.00 17.43
38.00 15.87
39.00 15.29
40.00 15.52
41.00 16.42
42.00 17.74
43.00 19.20
44.00 20.82
45.00 23.26
46.00 27.52
47.00 32.61
48.00 30.42
49.00 27.93
50.00 26.48
51.00 24.75
52.00 23.23
53.00 22.78
54.00 23.79
55.00 26.55
56.00 31.23
57.00 35.10
58.00 33.88
59.00 32.43
60.00 31.09
61.00 29.68
62.00 28.72
63.00 28.29
64.00 28.10
65.00 27.97
66.00 28.00
67.00 28.44
68.00 29.37
69.00 30.63
70.00 32.07
71.00 33.73
72.00 35.44
73.00 36.64
74.00 36.83
75.00 36.44
76.00 36.48
77.00 37.68
78.00 40.20
79.00 43.22
80.00 43.86
81.00 41.68
82.00 39.35
83.00 37.76
84.00 36.78
85.00 36.15
86.00 35.70
87.00 35.51
88.00 35.77
89.00 36.69
90.00 38.26
91.00 39.97
92.00 40.95
93.00 40.81
94.00 39.44
95.00 37.60
96.00 36.36
97.00 36.02
98.00 36.43
99.00 37.53
100.00 39.24
101.00 40.53
102.00 40.13
103.00 39.15
104.00 38.75
105.00 39.41
106.00 41.70
107.00 46.28
108.00 52.54
109.00 57.28
110.00 52.17
111.00 46.21
112.00 44.49
113.00 46.46
114.00 51.43
115.00 49.45
116.00 45.84
117.00 43.71
118.00 42.25
119.00 42.16
120.00 44.66
121.00 50.61
122.00 46.18
123.00 41.76
124.00 40.40
125.00 40.10
126.00 39.62
127.00 39.93
128.00 43.05
129.00 55.21
130.00 47.57
131.00 42.10
132.00 41.55
133.00 44.30
134.00 50.67
135.00 47.33
136.00 41.68
137.00 38.61
138.00 36.96
139.00 36.25
140.00 36.16
141.00 36.20
142.00 35.93
143.00 35.47
144.00 35.39
145.00 36.27
146.00 38.55
147.00 42.28
148.00 46.39
149.00 49.98
150.00 56.11
151.00 52.15
152.00 44.11
153.00 38.89
154.00 35.65
155.00 34.10
156.00 33.97
157.00 34.94
158.00 36.89
159.00 40.15
160.00 44.55
161.00 46.96
162.00 50.22
163.00 52.17
164.00 41.83
165.00 37.34
166.00 35.56
167.00 35.64
168.00 37.67
169.00 43.07
170.00 46.60
171.00 39.36
172.00 36.29
173.00 34.97
174.00 35.13
175.00 36.55
176.00 38.41
177.00 37.60
178.00 35.14
179.00 33.80
180.00 33.83
181.00 34.77
182.00 36.04
183.00 37.47
184.00 39.73
185.00 43.70
186.00 40.40
187.00 34.44
188.00 31.41
189.00 30.73
190.00 32.23
191.00 36.27
192.00 42.53
193.00 40.00
194.00 35.71
195.00 33.41
196.00 32.72
197.00 33.63
198.00 35.97
199.00 37.44
200.00 35.55
201.00 33.62
202.00 33.04
203.00 33.89
204.00 36.27
205.00 40.77
206.00 49.55
207.00 50.40
208.00 45.59
209.00 45.26
210.00 45.83
211.00 44.66
212.00 44.49
213.00 47.31
214.00 50.31
215.00 46.25
216.00 42.67
217.00 39.90
218.00 37.82
219.00 36.43
220.00 35.27
221.00 34.09
222.00 33.14
223.00 32.52
224.00 32.16
225.00 32.11
226.00 32.34
227.00 32.43
228.00 32.07
229.00 31.54
230.00 31.26
231.00 31.24
232.00 31.29
233.00 31.26
234.00 31.31
235.00 31.62
236.00 32.25
237.00 33.21
238.00 34.47
239.00 35.91
240.00 37.44
241.00 39.24
242.00 41.83
243.00 45.04
244.00 43.80
245.00 39.86
246.00 37.31
247.00 35.98
248.00 35.34
249.00 35.03
250.00 34.90
251.00 35.12
252.00 36.02
253.00 37.83
254.00 40.18
255.00 41.97
256.00 42.72
257.00 43.01
258.00 42.91
259.00 42.66
260.00 43.25
261.00 46.23
262.00 56.56
263.00 50.21
264.00 43.94
265.00 41.94
266.00 41.55
267.00 41.17
268.00 39.67
269.00 37.25
270.00 35.09
271.00 33.95
272.00 33.97
273.00 34.95
274.00 36.32
275.00 36.98
276.00 35.82
277.00 33.72
278.00 32.09
279.00 31.29
280.00 31.07
281.00 31.09
282.00 31.12
283.00 31.01
284.00 30.64
285.00 29.86
286.00 28.63
287.00 27.19
288.00 25.80
289.00 24.57
290.00 23.47
291.00 22.36
292.00 21.16
293.00 19.87
294.00 18.56
295.00 17.32
296.00 16.13
297.00 15.04
298.00 14.11
299.00 13.44
300.00 13.19
301.00 13.49
302.00 14.40
303.00 15.94
304.00 18.24
305.00 21.65
306.00 27.45
307.00 36.29
308.00 24.42
309.00 19.78
310.00 17.57
311.00 16.78
312.00 17.31
313.00 19.50
314.00 24.38
315.00 29.83
316.00 23.52
317.00 20.09
318.00 19.16
319.00 20.07
320.00 22.94
321.00 27.25
322.00 24.08
323.00 19.38
324.00 17.06
325.00 16.83
326.00 19.00
327.00 26.13
328.00 30.34
329.00 19.42
330.00 15.87
331.00 14.98
332.00 16.28
333.00 20.70
334.00 33.05
335.00 21.97
336.00 17.30
337.00 16.20
338.00 17.44
339.00 20.50
340.00 22.75
341.00 21.73
342.00 21.63
343.00 24.70
344.00 30.85
345.00 23.11
346.00 18.37
347.00 16.77
348.00 17.76
349.00 22.32
350.00 33.34
351.00 21.93
352.00 17.80
353.00 16.92
354.00 18.14
355.00 21.02
356.00 23.97
357.00 24.90
358.00 26.80
359.00 34.06
