NAME ATR4518R7_2140_X_CO_M45_09T_yyR
FREQUENCY 2140
GAIN 15.16 dBd
TILT	ELECTRICAL
COMMENT DATE 05.08.2013 -45 degrees polarized system Lever position 09T deg
HORIZONTAL 360
0.00 0.00
1.00 0.00
2.00 0.01
3.00 0.02
4.00 0.04
5.00 0.06
6.00 0.09
7.00 0.13
8.00 0.18
9.00 0.23
10.00 0.29
11.00 0.35
12.00 0.43
13.00 0.51
14.00 0.60
15.00 0.69
16.00 0.80
17.00 0.91
18.00 1.04
19.00 1.17
20.00 1.31
21.00 1.46
22.00 1.63
23.00 1.80
24.00 1.99
25.00 2.19
26.00 2.40
27.00 2.62
28.00 2.86
29.00 3.11
30.00 3.37
31.00 3.65
32.00 3.94
33.00 4.24
34.00 4.57
35.00 4.90
36.00 5.26
37.00 5.63
38.00 6.01
39.00 6.42
40.00 6.83
41.00 7.27
42.00 7.72
43.00 8.19
44.00 8.68
45.00 9.18
46.00 9.70
47.00 10.23
48.00 10.78
49.00 11.35
50.00 11.92
51.00 12.51
52.00 13.11
53.00 13.72
54.00 14.33
55.00 14.96
56.00 15.58
57.00 16.21
58.00 16.83
59.00 17.46
60.00 18.08
61.00 18.69
62.00 19.29
63.00 19.89
64.00 20.47
65.00 21.04
66.00 21.60
67.00 22.15
68.00 22.69
69.00 23.22
70.00 23.74
71.00 24.24
72.00 24.74
73.00 25.24
74.00 25.72
75.00 26.19
76.00 26.65
77.00 27.09
78.00 27.52
79.00 27.94
80.00 28.33
81.00 28.70
82.00 29.05
83.00 29.37
84.00 29.67
85.00 29.94
86.00 30.20
87.00 30.44
88.00 30.67
89.00 30.89
90.00 31.10
91.00 31.31
92.00 31.53
93.00 31.75
94.00 31.98
95.00 32.22
96.00 32.47
97.00 32.74
98.00 33.01
99.00 33.30
100.00 33.59
101.00 33.87
102.00 34.16
103.00 34.42
104.00 34.67
105.00 34.89
106.00 35.08
107.00 35.23
108.00 35.34
109.00 35.42
110.00 35.47
111.00 35.50
112.00 35.52
113.00 35.55
114.00 35.59
115.00 35.67
116.00 35.79
117.00 35.96
118.00 36.21
119.00 36.53
120.00 36.96
121.00 37.51
122.00 38.19
123.00 39.04
124.00 40.09
125.00 41.39
126.00 42.97
127.00 44.84
128.00 46.79
129.00 47.97
130.00 47.33
131.00 45.40
132.00 43.30
133.00 41.46
134.00 39.92
135.00 38.67
136.00 37.64
137.00 36.83
138.00 36.19
139.00 35.71
140.00 35.39
141.00 35.21
142.00 35.17
143.00 35.28
144.00 35.53
145.00 35.96
146.00 36.56
147.00 37.38
148.00 38.44
149.00 39.84
150.00 41.67
151.00 44.14
152.00 47.54
153.00 51.53
154.00 51.06
155.00 46.93
156.00 43.58
157.00 41.13
158.00 39.28
159.00 37.85
160.00 36.74
161.00 35.86
162.00 35.20
163.00 34.70
164.00 34.36
165.00 34.17
166.00 34.11
167.00 34.17
168.00 34.36
169.00 34.66
170.00 35.07
171.00 35.59
172.00 36.19
173.00 36.84
174.00 37.47
175.00 38.00
176.00 38.30
177.00 38.29
178.00 37.95
179.00 37.36
180.00 36.62
181.00 35.83
182.00 35.06
183.00 34.34
184.00 33.70
185.00 33.15
186.00 32.67
187.00 32.28
188.00 31.95
189.00 31.69
190.00 31.49
191.00 31.33
192.00 31.22
193.00 31.15
194.00 31.10
195.00 31.07
196.00 31.06
197.00 31.04
198.00 31.03
199.00 31.01
200.00 30.98
201.00 30.95
202.00 30.91
203.00 30.88
204.00 30.86
205.00 30.85
206.00 30.86
207.00 30.90
208.00 30.99
209.00 31.11
210.00 31.29
211.00 31.53
212.00 31.83
213.00 32.21
214.00 32.67
215.00 33.23
216.00 33.89
217.00 34.68
218.00 35.61
219.00 36.72
220.00 38.04
221.00 39.59
222.00 41.42
223.00 43.42
224.00 45.13
225.00 45.49
226.00 44.15
227.00 42.14
228.00 40.18
229.00 38.46
230.00 36.99
231.00 35.72
232.00 34.62
233.00 33.64
234.00 32.78
235.00 32.01
236.00 31.31
237.00 30.67
238.00 30.09
239.00 29.55
240.00 29.06
241.00 28.61
242.00 28.19
243.00 27.80
244.00 27.45
245.00 27.13
246.00 26.83
247.00 26.56
248.00 26.32
249.00 26.10
250.00 25.90
251.00 25.72
252.00 25.55
253.00 25.39
254.00 25.23
255.00 25.07
256.00 24.91
257.00 24.73
258.00 24.53
259.00 24.31
260.00 24.06
261.00 23.79
262.00 23.48
263.00 23.15
264.00 22.80
265.00 22.42
266.00 22.02
267.00 21.61
268.00 21.20
269.00 20.77
270.00 20.35
271.00 19.92
272.00 19.50
273.00 19.09
274.00 18.68
275.00 18.28
276.00 17.89
277.00 17.50
278.00 17.13
279.00 16.76
280.00 16.39
281.00 16.04
282.00 15.69
283.00 15.34
284.00 15.00
285.00 14.66
286.00 14.32
287.00 13.99
288.00 13.67
289.00 13.34
290.00 13.02
291.00 12.70
292.00 12.38
293.00 12.06
294.00 11.75
295.00 11.45
296.00 11.14
297.00 10.85
298.00 10.56
299.00 10.26
300.00 9.98
301.00 9.71
302.00 9.44
303.00 9.17
304.00 8.91
305.00 8.66
306.00 8.41
307.00 8.17
308.00 7.93
309.00 7.70
310.00 7.47
311.00 7.25
312.00 7.03
313.00 6.81
314.00 6.60
315.00 6.39
316.00 6.18
317.00 5.97
318.00 5.76
319.00 5.56
320.00 5.36
321.00 5.15
322.00 4.95
323.00 4.75
324.00 4.54
325.00 4.34
326.00 4.14
327.00 3.94
328.00 3.74
329.00 3.54
330.00 3.34
331.00 3.15
332.00 2.96
333.00 2.77
334.00 2.58
335.00 2.40
336.00 2.22
337.00 2.05
338.00 1.88
339.00 1.72
340.00 1.57
341.00 1.42
342.00 1.28
343.00 1.14
344.00 1.01
345.00 0.89
346.00 0.78
347.00 0.67
348.00 0.58
349.00 0.49
350.00 0.41
351.00 0.33
352.00 0.27
353.00 0.21
354.00 0.16
355.00 0.11
356.00 0.08
357.00 0.05
358.00 0.03
359.00 0.01
VERTICAL 360
0.00 21.89
1.00 21.74
2.00 18.79
3.00 14.78
4.00 10.73
5.00 7.11
6.00 4.17
7.00 2.01
8.00 0.63
9.00 0.01
10.00 0.19
11.00 1.24
12.00 3.39
13.00 7.17
14.00 14.45
15.00 29.31
16.00 15.97
17.00 13.12
18.00 13.44
19.00 15.75
20.00 19.14
21.00 19.84
22.00 17.28
23.00 15.66
24.00 15.97
25.00 18.84
26.00 26.79
27.00 28.52
28.00 20.82
29.00 18.56
30.00 18.64
31.00 20.46
32.00 24.53
33.00 29.84
34.00 24.89
35.00 20.49
36.00 18.73
37.00 18.67
38.00 19.73
39.00 21.04
40.00 21.60
41.00 21.35
42.00 20.93
43.00 20.59
44.00 20.40
45.00 20.52
46.00 21.09
47.00 22.22
48.00 23.94
49.00 26.10
50.00 28.10
51.00 29.15
52.00 29.89
53.00 31.58
54.00 34.65
55.00 37.39
56.00 37.37
57.00 37.02
58.00 37.54
59.00 38.16
60.00 38.12
61.00 37.75
62.00 37.79
63.00 38.34
64.00 38.94
65.00 39.26
66.00 39.51
67.00 39.81
68.00 39.86
69.00 38.94
70.00 36.99
71.00 34.95
72.00 33.41
73.00 32.38
74.00 31.57
75.00 30.70
76.00 29.76
77.00 28.88
78.00 28.20
79.00 27.74
80.00 27.40
81.00 27.01
82.00 26.53
83.00 26.09
84.00 25.82
85.00 25.81
86.00 26.32
87.00 27.56
88.00 29.39
89.00 30.77
90.00 30.65
91.00 29.49
92.00 28.06
93.00 26.87
94.00 26.23
95.00 26.16
96.00 26.50
97.00 27.07
98.00 27.70
99.00 28.30
100.00 29.01
101.00 30.07
102.00 31.55
103.00 33.23
104.00 34.73
105.00 35.75
106.00 36.17
107.00 36.19
108.00 36.23
109.00 36.74
110.00 38.00
111.00 39.90
112.00 42.33
113.00 46.06
114.00 51.02
115.00 48.79
116.00 45.86
117.00 45.55
118.00 45.94
119.00 45.06
120.00 43.40
121.00 41.71
122.00 40.03
123.00 38.73
124.00 38.24
125.00 38.15
126.00 37.54
127.00 36.80
128.00 37.27
129.00 39.93
130.00 46.49
131.00 52.36
132.00 42.94
133.00 38.66
134.00 36.75
135.00 36.53
136.00 37.74
137.00 40.19
138.00 43.56
139.00 47.21
140.00 50.78
141.00 57.57
142.00 60.86
143.00 46.94
144.00 41.39
145.00 38.87
146.00 38.84
147.00 41.57
148.00 46.36
149.00 45.88
150.00 45.24
151.00 50.03
152.00 47.99
153.00 41.69
154.00 38.76
155.00 36.23
156.00 34.13
157.00 33.77
158.00 35.91
159.00 38.98
160.00 36.65
161.00 34.13
162.00 34.04
163.00 35.74
164.00 38.16
165.00 39.59
166.00 39.21
167.00 37.97
168.00 36.71
169.00 35.80
170.00 35.60
171.00 36.26
172.00 37.49
173.00 38.89
174.00 40.18
175.00 40.41
176.00 38.43
177.00 35.65
178.00 33.91
179.00 33.85
180.00 35.27
181.00 36.58
182.00 36.49
183.00 36.78
184.00 38.52
185.00 41.42
186.00 43.83
187.00 42.71
188.00 41.31
189.00 42.85
190.00 49.11
191.00 66.73
192.00 49.05
193.00 40.39
194.00 35.42
195.00 32.92
196.00 32.22
197.00 32.79
198.00 33.98
199.00 35.13
200.00 36.93
201.00 40.73
202.00 40.47
203.00 36.16
204.00 35.03
205.00 36.54
206.00 38.41
207.00 38.08
208.00 37.67
209.00 38.01
210.00 39.03
211.00 40.95
212.00 41.30
213.00 39.93
214.00 39.95
215.00 38.78
216.00 35.51
217.00 33.76
218.00 34.24
219.00 36.74
220.00 39.78
221.00 40.07
222.00 39.38
223.00 40.31
224.00 43.62
225.00 48.99
226.00 48.60
227.00 47.02
228.00 49.52
229.00 46.55
230.00 40.19
231.00 36.74
232.00 34.76
233.00 33.44
234.00 32.82
235.00 33.30
236.00 35.15
237.00 38.05
238.00 39.77
239.00 38.48
240.00 36.36
241.00 34.68
242.00 33.85
243.00 34.08
244.00 35.16
245.00 36.13
246.00 36.07
247.00 35.76
248.00 36.31
249.00 38.18
250.00 41.60
251.00 45.33
252.00 42.98
253.00 38.28
254.00 34.99
255.00 32.92
256.00 31.63
257.00 30.68
258.00 29.76
259.00 28.83
260.00 28.04
261.00 27.53
262.00 27.24
263.00 26.96
264.00 26.47
265.00 25.73
266.00 24.90
267.00 24.22
268.00 23.83
269.00 23.72
270.00 23.73
271.00 23.58
272.00 23.00
273.00 22.05
274.00 21.09
275.00 20.46
276.00 20.24
277.00 20.31
278.00 20.42
279.00 20.38
280.00 20.11
281.00 19.64
282.00 19.08
283.00 18.58
284.00 18.20
285.00 17.96
286.00 17.83
287.00 17.77
288.00 17.74
289.00 17.74
290.00 17.80
291.00 17.95
292.00 18.25
293.00 18.69
294.00 19.21
295.00 19.73
296.00 20.25
297.00 20.89
298.00 21.81
299.00 23.15
300.00 24.93
301.00 26.97
302.00 28.87
303.00 30.14
304.00 30.54
305.00 30.37
306.00 30.17
307.00 29.80
308.00 28.18
309.00 25.42
310.00 22.93
311.00 21.31
312.00 20.53
313.00 20.45
314.00 21.00
315.00 22.46
316.00 25.82
317.00 37.00
318.00 33.81
319.00 25.02
320.00 22.18
321.00 21.92
322.00 23.95
323.00 29.47
324.00 31.86
325.00 23.59
326.00 19.19
327.00 16.87
328.00 15.96
329.00 16.37
330.00 18.18
331.00 20.54
332.00 19.62
333.00 16.93
334.00 14.58
335.00 13.10
336.00 12.64
337.00 13.23
338.00 14.88
339.00 17.78
340.00 22.53
341.00 30.28
342.00 27.38
343.00 22.51
344.00 20.77
345.00 19.92
346.00 19.41
347.00 19.54
348.00 20.46
349.00 21.64
350.00 22.23
351.00 22.61
352.00 23.91
353.00 26.93
354.00 30.20
355.00 26.35
356.00 21.97
357.00 19.77
358.00 19.33
359.00 20.30
