NAME ATR4518R7_0894_X_CO_M45_06T
FREQUENCY 0894
GAIN 15.03 dBd
TILT	ELECTRICAL
COMMENT DATE 05.08.2013 -45 degrees polarized system Lever position 06T deg
HORIZONTAL 360
0.00 0.01
1.00 0.00
2.00 0.00
3.00 0.00
4.00 0.02
5.00 0.03
6.00 0.06
7.00 0.09
8.00 0.13
9.00 0.17
10.00 0.23
11.00 0.28
12.00 0.35
13.00 0.42
14.00 0.50
15.00 0.59
16.00 0.68
17.00 0.78
18.00 0.89
19.00 1.00
20.00 1.12
21.00 1.25
22.00 1.38
23.00 1.53
24.00 1.67
25.00 1.83
26.00 1.99
27.00 2.16
28.00 2.34
29.00 2.52
30.00 2.71
31.00 2.91
32.00 3.12
33.00 3.33
34.00 3.55
35.00 3.77
36.00 4.01
37.00 4.25
38.00 4.50
39.00 4.75
40.00 5.01
41.00 5.28
42.00 5.56
43.00 5.84
44.00 6.13
45.00 6.43
46.00 6.73
47.00 7.04
48.00 7.37
49.00 7.69
50.00 8.02
51.00 8.36
52.00 8.71
53.00 9.07
54.00 9.43
55.00 9.80
56.00 10.17
57.00 10.55
58.00 10.94
59.00 11.34
60.00 11.74
61.00 12.15
62.00 12.57
63.00 12.99
64.00 13.42
65.00 13.85
66.00 14.30
67.00 14.75
68.00 15.20
69.00 15.66
70.00 16.12
71.00 16.59
72.00 17.06
73.00 17.54
74.00 18.02
75.00 18.50
76.00 18.98
77.00 19.46
78.00 19.94
79.00 20.42
80.00 20.89
81.00 21.36
82.00 21.83
83.00 22.28
84.00 22.73
85.00 23.17
86.00 23.60
87.00 24.01
88.00 24.41
89.00 24.80
90.00 25.17
91.00 25.53
92.00 25.87
93.00 26.20
94.00 26.52
95.00 26.82
96.00 27.11
97.00 27.39
98.00 27.66
99.00 27.93
100.00 28.18
101.00 28.43
102.00 28.68
103.00 28.93
104.00 29.17
105.00 29.41
106.00 29.66
107.00 29.90
108.00 30.14
109.00 30.39
110.00 30.63
111.00 30.88
112.00 31.13
113.00 31.38
114.00 31.62
115.00 31.87
116.00 32.11
117.00 32.35
118.00 32.59
119.00 32.82
120.00 33.04
121.00 33.25
122.00 33.45
123.00 33.63
124.00 33.81
125.00 33.96
126.00 34.09
127.00 34.21
128.00 34.31
129.00 34.39
130.00 34.44
131.00 34.48
132.00 34.49
133.00 34.49
134.00 34.46
135.00 34.42
136.00 34.36
137.00 34.29
138.00 34.20
139.00 34.10
140.00 33.99
141.00 33.88
142.00 33.76
143.00 33.63
144.00 33.50
145.00 33.37
146.00 33.23
147.00 33.10
148.00 32.97
149.00 32.84
150.00 32.71
151.00 32.59
152.00 32.48
153.00 32.37
154.00 32.26
155.00 32.16
156.00 32.07
157.00 31.98
158.00 31.90
159.00 31.83
160.00 31.77
161.00 31.72
162.00 31.68
163.00 31.64
164.00 31.62
165.00 31.60
166.00 31.60
167.00 31.60
168.00 31.62
169.00 31.64
170.00 31.68
171.00 31.73
172.00 31.79
173.00 31.87
174.00 31.95
175.00 32.05
176.00 32.16
177.00 32.29
178.00 32.43
179.00 32.58
180.00 32.75
181.00 32.94
182.00 33.14
183.00 33.36
184.00 33.60
185.00 33.85
186.00 34.12
187.00 34.41
188.00 34.73
189.00 35.06
190.00 35.42
191.00 35.80
192.00 36.21
193.00 36.64
194.00 37.10
195.00 37.59
196.00 38.11
197.00 38.66
198.00 39.24
199.00 39.86
200.00 40.52
201.00 41.22
202.00 41.96
203.00 42.74
204.00 43.58
205.00 44.46
206.00 45.40
207.00 46.40
208.00 47.44
209.00 48.55
210.00 49.67
211.00 50.82
212.00 51.94
213.00 52.94
214.00 53.69
215.00 54.13
216.00 54.15
217.00 53.73
218.00 53.03
219.00 52.17
220.00 51.21
221.00 50.23
222.00 49.24
223.00 48.25
224.00 47.29
225.00 46.35
226.00 45.43
227.00 44.55
228.00 43.68
229.00 42.84
230.00 42.02
231.00 41.24
232.00 40.48
233.00 39.74
234.00 39.02
235.00 38.33
236.00 37.66
237.00 37.02
238.00 36.39
239.00 35.78
240.00 35.19
241.00 34.62
242.00 34.06
243.00 33.51
244.00 32.98
245.00 32.46
246.00 31.95
247.00 31.44
248.00 30.95
249.00 30.46
250.00 29.98
251.00 29.50
252.00 29.02
253.00 28.55
254.00 28.09
255.00 27.62
256.00 27.16
257.00 26.70
258.00 26.25
259.00 25.79
260.00 25.34
261.00 24.89
262.00 24.44
263.00 24.00
264.00 23.56
265.00 23.12
266.00 22.69
267.00 22.26
268.00 21.83
269.00 21.40
270.00 20.99
271.00 20.57
272.00 20.16
273.00 19.76
274.00 19.36
275.00 18.96
276.00 18.57
277.00 18.19
278.00 17.80
279.00 17.43
280.00 17.06
281.00 16.69
282.00 16.33
283.00 15.97
284.00 15.62
285.00 15.27
286.00 14.93
287.00 14.59
288.00 14.25
289.00 13.92
290.00 13.59
291.00 13.26
292.00 12.94
293.00 12.63
294.00 12.31
295.00 12.00
296.00 11.70
297.00 11.39
298.00 11.09
299.00 10.79
300.00 10.49
301.00 10.20
302.00 9.91
303.00 9.62
304.00 9.34
305.00 9.06
306.00 8.78
307.00 8.50
308.00 8.23
309.00 7.96
310.00 7.70
311.00 7.43
312.00 7.17
313.00 6.91
314.00 6.66
315.00 6.41
316.00 6.16
317.00 5.92
318.00 5.68
319.00 5.44
320.00 5.21
321.00 4.98
322.00 4.75
323.00 4.53
324.00 4.32
325.00 4.10
326.00 3.90
327.00 3.69
328.00 3.49
329.00 3.30
330.00 3.11
331.00 2.93
332.00 2.75
333.00 2.57
334.00 2.40
335.00 2.24
336.00 2.08
337.00 1.93
338.00 1.78
339.00 1.63
340.00 1.50
341.00 1.37
342.00 1.24
343.00 1.12
344.00 1.00
345.00 0.90
346.00 0.80
347.00 0.70
348.00 0.61
349.00 0.52
350.00 0.44
351.00 0.37
352.00 0.31
353.00 0.25
354.00 0.19
355.00 0.15
356.00 0.11
357.00 0.07
358.00 0.04
359.00 0.02
VERTICAL 360
0.00 7.18
1.00 4.76
2.00 2.93
3.00 1.60
4.00 0.69
5.00 0.16
6.00 0.00
7.00 0.20
8.00 0.76
9.00 1.71
10.00 3.08
11.00 4.92
12.00 7.34
13.00 10.50
14.00 14.73
15.00 20.80
16.00 30.22
17.00 29.23
18.00 25.98
19.00 26.19
20.00 29.48
21.00 39.81
22.00 34.04
23.00 27.03
24.00 24.03
25.00 22.83
26.00 22.85
27.00 23.99
28.00 26.46
29.00 31.17
30.00 42.78
31.00 35.40
32.00 29.32
33.00 26.80
34.00 26.07
35.00 26.83
36.00 29.43
37.00 35.96
38.00 40.87
39.00 29.82
40.00 25.03
41.00 22.20
42.00 20.41
43.00 19.31
44.00 18.78
45.00 18.75
46.00 19.23
47.00 20.20
48.00 21.66
49.00 23.61
50.00 26.05
51.00 29.11
52.00 33.35
53.00 40.74
54.00 42.86
55.00 35.11
56.00 31.36
57.00 29.36
58.00 28.38
59.00 28.14
60.00 28.43
61.00 29.03
62.00 29.75
63.00 30.49
64.00 31.39
65.00 32.66
66.00 34.42
67.00 36.03
68.00 35.41
69.00 33.09
70.00 31.29
71.00 30.65
72.00 31.12
73.00 32.37
74.00 33.33
75.00 32.40
76.00 30.11
77.00 27.94
78.00 26.47
79.00 25.82
80.00 25.90
81.00 26.38
82.00 26.60
83.00 26.55
84.00 26.38
85.00 26.04
86.00 25.61
87.00 25.63
88.00 26.24
89.00 26.48
90.00 26.55
91.00 26.57
92.00 26.55
93.00 26.38
94.00 25.77
95.00 25.80
96.00 26.42
97.00 27.49
98.00 28.74
99.00 29.81
100.00 30.41
101.00 30.54
102.00 30.49
103.00 30.68
104.00 31.35
105.00 32.52
106.00 34.03
107.00 35.48
108.00 36.29
109.00 36.08
110.00 35.29
111.00 34.63
112.00 34.38
113.00 34.58
114.00 35.18
115.00 36.06
116.00 36.96
117.00 37.35
118.00 37.02
119.00 36.36
120.00 35.91
121.00 35.98
122.00 36.71
123.00 37.90
124.00 38.90
125.00 38.99
126.00 38.51
127.00 38.22
128.00 38.42
129.00 39.09
130.00 39.77
131.00 39.62
132.00 38.66
133.00 37.89
134.00 37.93
135.00 38.91
136.00 40.65
137.00 42.68
138.00 44.37
139.00 45.73
140.00 47.81
141.00 52.85
142.00 72.14
143.00 50.30
144.00 45.14
145.00 42.93
146.00 42.28
147.00 42.54
148.00 43.11
149.00 43.36
150.00 42.89
151.00 41.90
152.00 40.85
153.00 39.89
154.00 38.93
155.00 37.83
156.00 36.66
157.00 35.67
158.00 35.11
159.00 35.18
160.00 36.01
161.00 37.44
162.00 38.76
163.00 38.96
164.00 38.27
165.00 37.70
166.00 37.71
167.00 38.30
168.00 39.02
169.00 38.76
170.00 37.39
171.00 35.91
172.00 34.79
173.00 33.96
174.00 33.14
175.00 32.67
176.00 31.98
177.00 31.26
178.00 30.81
179.00 30.85
180.00 30.99
181.00 31.63
182.00 32.68
183.00 34.01
184.00 35.53
185.00 37.11
186.00 38.49
187.00 38.95
188.00 38.01
189.00 36.24
190.00 34.43
191.00 32.87
192.00 31.62
193.00 30.76
194.00 30.35
195.00 30.42
196.00 31.00
197.00 32.04
198.00 33.52
199.00 35.49
200.00 38.12
201.00 41.91
202.00 47.22
203.00 46.88
204.00 42.39
205.00 39.83
206.00 38.76
207.00 38.63
208.00 38.80
209.00 38.52
210.00 37.49
211.00 36.16
212.00 34.99
213.00 34.19
214.00 33.74
215.00 33.57
216.00 33.56
217.00 33.68
218.00 34.04
219.00 34.83
220.00 36.30
221.00 38.68
222.00 41.97
223.00 44.46
224.00 43.43
225.00 41.36
226.00 39.83
227.00 38.83
228.00 38.14
229.00 37.57
230.00 37.05
231.00 36.72
232.00 36.79
233.00 37.41
234.00 38.68
235.00 40.79
236.00 44.33
237.00 51.45
238.00 60.07
239.00 48.12
240.00 43.75
241.00 41.24
242.00 39.65
243.00 38.74
244.00 38.31
245.00 38.01
246.00 37.55
247.00 36.94
248.00 36.31
249.00 35.70
250.00 35.22
251.00 35.06
252.00 35.34
253.00 35.95
254.00 36.57
255.00 36.81
256.00 36.55
257.00 36.07
258.00 35.80
259.00 36.02
260.00 36.74
261.00 37.65
262.00 38.17
263.00 37.97
264.00 37.30
265.00 36.77
266.00 36.92
267.00 38.10
268.00 40.41
269.00 43.45
270.00 46.06
271.00 48.68
272.00 51.05
273.00 46.26
274.00 41.68
275.00 39.19
276.00 38.14
277.00 38.08
278.00 38.61
279.00 39.34
280.00 40.18
281.00 41.49
282.00 43.22
283.00 42.82
284.00 39.69
285.00 36.87
286.00 34.97
287.00 33.73
288.00 32.96
289.00 32.64
290.00 32.70
291.00 32.86
292.00 32.64
293.00 31.96
294.00 31.12
295.00 30.39
296.00 29.96
297.00 29.99
298.00 30.63
299.00 31.97
300.00 33.94
301.00 36.31
302.00 38.56
303.00 40.09
304.00 40.42
305.00 39.26
306.00 36.93
307.00 34.47
308.00 32.68
309.00 31.91
310.00 32.41
311.00 34.54
312.00 39.66
313.00 57.75
314.00 38.32
315.00 32.02
316.00 28.12
317.00 25.23
318.00 22.97
319.00 21.27
320.00 20.10
321.00 19.48
322.00 19.43
323.00 19.94
324.00 21.04
325.00 22.77
326.00 25.26
327.00 28.80
328.00 34.29
329.00 47.00
330.00 40.98
331.00 34.16
332.00 31.11
333.00 29.66
334.00 29.38
335.00 30.19
336.00 32.22
337.00 35.83
338.00 41.53
339.00 43.50
340.00 37.99
341.00 33.12
342.00 28.92
343.00 25.47
344.00 22.91
345.00 21.27
346.00 20.54
347.00 20.82
348.00 22.30
349.00 25.61
350.00 33.37
351.00 38.81
352.00 27.90
353.00 24.53
354.00 23.96
355.00 26.02
356.00 28.28
357.00 20.92
358.00 14.71
359.00 10.38
