NAME ATR4518R7_0806_X_CO_P45_00T
FREQUENCY 0806
GAIN 14.25 dBd
TILT	ELECTRICAL
COMMENT DATE 05.08.2013 +45 degrees polarized system Lever position 00T deg
HORIZONTAL 360
0.00 0.00
1.00 0.01
2.00 0.02
3.00 0.04
4.00 0.06
5.00 0.09
6.00 0.13
7.00 0.17
8.00 0.22
9.00 0.27
10.00 0.33
11.00 0.39
12.00 0.46
13.00 0.54
14.00 0.62
15.00 0.70
16.00 0.80
17.00 0.89
18.00 1.00
19.00 1.10
20.00 1.22
21.00 1.34
22.00 1.47
23.00 1.60
24.00 1.73
25.00 1.87
26.00 2.02
27.00 2.18
28.00 2.33
29.00 2.50
30.00 2.67
31.00 2.84
32.00 3.02
33.00 3.21
34.00 3.40
35.00 3.60
36.00 3.80
37.00 4.01
38.00 4.22
39.00 4.43
40.00 4.66
41.00 4.88
42.00 5.12
43.00 5.35
44.00 5.60
45.00 5.84
46.00 6.10
47.00 6.35
48.00 6.61
49.00 6.88
50.00 7.15
51.00 7.43
52.00 7.71
53.00 7.99
54.00 8.28
55.00 8.57
56.00 8.87
57.00 9.17
58.00 9.47
59.00 9.78
60.00 10.09
61.00 10.41
62.00 10.73
63.00 11.06
64.00 11.39
65.00 11.72
66.00 12.06
67.00 12.39
68.00 12.74
69.00 13.09
70.00 13.44
71.00 13.80
72.00 14.16
73.00 14.52
74.00 14.89
75.00 15.27
76.00 15.65
77.00 16.03
78.00 16.42
79.00 16.82
80.00 17.22
81.00 17.63
82.00 18.04
83.00 18.46
84.00 18.89
85.00 19.32
86.00 19.77
87.00 20.22
88.00 20.68
89.00 21.15
90.00 21.62
91.00 22.11
92.00 22.60
93.00 23.11
94.00 23.62
95.00 24.15
96.00 24.68
97.00 25.21
98.00 25.76
99.00 26.30
100.00 26.85
101.00 27.40
102.00 27.93
103.00 28.45
104.00 28.96
105.00 29.43
106.00 29.87
107.00 30.26
108.00 30.61
109.00 30.89
110.00 31.11
111.00 31.27
112.00 31.36
113.00 31.40
114.00 31.38
115.00 31.32
116.00 31.23
117.00 31.11
118.00 30.97
119.00 30.82
120.00 30.66
121.00 30.50
122.00 30.35
123.00 30.20
124.00 30.05
125.00 29.92
126.00 29.79
127.00 29.68
128.00 29.58
129.00 29.49
130.00 29.41
131.00 29.34
132.00 29.28
133.00 29.24
134.00 29.20
135.00 29.18
136.00 29.17
137.00 29.16
138.00 29.17
139.00 29.19
140.00 29.21
141.00 29.25
142.00 29.29
143.00 29.34
144.00 29.41
145.00 29.47
146.00 29.55
147.00 29.63
148.00 29.72
149.00 29.82
150.00 29.92
151.00 30.03
152.00 30.15
153.00 30.27
154.00 30.40
155.00 30.54
156.00 30.68
157.00 30.82
158.00 30.98
159.00 31.14
160.00 31.30
161.00 31.47
162.00 31.64
163.00 31.83
164.00 32.01
165.00 32.20
166.00 32.40
167.00 32.61
168.00 32.82
169.00 33.04
170.00 33.26
171.00 33.50
172.00 33.73
173.00 33.99
174.00 34.24
175.00 34.51
176.00 34.78
177.00 35.07
178.00 35.37
179.00 35.68
180.00 36.00
181.00 36.34
182.00 36.69
183.00 37.05
184.00 37.43
185.00 37.83
186.00 38.25
187.00 38.69
188.00 39.16
189.00 39.64
190.00 40.15
191.00 40.68
192.00 41.24
193.00 41.82
194.00 42.43
195.00 43.04
196.00 43.67
197.00 44.29
198.00 44.88
199.00 45.42
200.00 45.87
201.00 46.20
202.00 46.37
203.00 46.37
204.00 46.22
205.00 45.91
206.00 45.52
207.00 45.02
208.00 44.52
209.00 44.00
210.00 43.48
211.00 42.98
212.00 42.51
213.00 42.07
214.00 41.66
215.00 41.29
216.00 40.95
217.00 40.66
218.00 40.40
219.00 40.18
220.00 39.99
221.00 39.85
222.00 39.74
223.00 39.67
224.00 39.63
225.00 39.63
226.00 39.67
227.00 39.73
228.00 39.81
229.00 39.94
230.00 40.06
231.00 40.18
232.00 40.29
233.00 40.35
234.00 40.35
235.00 40.24
236.00 40.03
237.00 39.67
238.00 39.17
239.00 38.54
240.00 37.82
241.00 37.02
242.00 36.18
243.00 35.31
244.00 34.44
245.00 33.57
246.00 32.72
247.00 31.89
248.00 31.09
249.00 30.30
250.00 29.55
251.00 28.82
252.00 28.12
253.00 27.44
254.00 26.78
255.00 26.15
256.00 25.54
257.00 24.95
258.00 24.38
259.00 23.83
260.00 23.29
261.00 22.77
262.00 22.27
263.00 21.78
264.00 21.31
265.00 20.85
266.00 20.40
267.00 19.97
268.00 19.55
269.00 19.13
270.00 18.73
271.00 18.34
272.00 17.95
273.00 17.58
274.00 17.21
275.00 16.85
276.00 16.50
277.00 16.15
278.00 15.81
279.00 15.47
280.00 15.14
281.00 14.82
282.00 14.50
283.00 14.18
284.00 13.87
285.00 13.56
286.00 13.25
287.00 12.95
288.00 12.64
289.00 12.35
290.00 12.05
291.00 11.76
292.00 11.46
293.00 11.18
294.00 10.89
295.00 10.60
296.00 10.32
297.00 10.04
298.00 9.75
299.00 9.48
300.00 9.20
301.00 8.93
302.00 8.66
303.00 8.38
304.00 8.12
305.00 7.85
306.00 7.59
307.00 7.33
308.00 7.07
309.00 6.82
310.00 6.57
311.00 6.32
312.00 6.07
313.00 5.83
314.00 5.60
315.00 5.36
316.00 5.13
317.00 4.91
318.00 4.69
319.00 4.47
320.00 4.26
321.00 4.05
322.00 3.85
323.00 3.65
324.00 3.45
325.00 3.26
326.00 3.08
327.00 2.90
328.00 2.72
329.00 2.55
330.00 2.39
331.00 2.23
332.00 2.08
333.00 1.93
334.00 1.78
335.00 1.65
336.00 1.51
337.00 1.39
338.00 1.26
339.00 1.15
340.00 1.04
341.00 0.93
342.00 0.83
343.00 0.74
344.00 0.65
345.00 0.57
346.00 0.49
347.00 0.42
348.00 0.35
349.00 0.29
350.00 0.24
351.00 0.19
352.00 0.15
353.00 0.11
354.00 0.08
355.00 0.05
356.00 0.03
357.00 0.01
358.00 0.00
359.00 0.00
VERTICAL 360
0.00 0.00
1.00 0.10
2.00 0.50
3.00 1.22
4.00 2.29
5.00 3.75
6.00 5.68
7.00 8.19
8.00 11.52
9.00 16.12
10.00 23.10
11.00 31.07
12.00 26.11
13.00 23.99
14.00 24.61
15.00 27.88
16.00 35.90
17.00 32.02
18.00 25.30
19.00 21.93
20.00 20.17
21.00 19.49
22.00 19.72
23.00 20.90
24.00 23.27
25.00 27.53
26.00 34.88
27.00 32.19
28.00 26.96
29.00 24.49
30.00 23.60
31.00 23.89
32.00 25.37
33.00 28.33
34.00 32.04
35.00 28.99
36.00 23.90
37.00 20.31
38.00 17.80
39.00 16.03
40.00 14.82
41.00 14.04
42.00 13.62
43.00 13.50
44.00 13.64
45.00 14.01
46.00 14.57
47.00 15.32
48.00 16.28
49.00 17.45
50.00 18.88
51.00 20.56
52.00 22.49
53.00 24.59
54.00 26.71
55.00 28.64
56.00 30.11
57.00 31.02
58.00 31.63
59.00 32.37
60.00 33.45
61.00 34.73
62.00 35.81
63.00 36.54
64.00 36.86
65.00 36.23
66.00 34.75
67.00 33.45
68.00 33.03
69.00 33.70
70.00 35.45
71.00 37.86
72.00 39.67
73.00 39.25
74.00 36.81
75.00 33.82
76.00 31.27
77.00 29.46
78.00 28.41
79.00 27.96
80.00 27.98
81.00 28.30
82.00 28.75
83.00 29.23
84.00 29.67
85.00 30.03
86.00 30.34
87.00 30.72
88.00 31.34
89.00 32.40
90.00 33.97
91.00 35.50
92.00 35.54
93.00 34.03
94.00 32.50
95.00 31.55
96.00 31.14
97.00 31.07
98.00 31.11
99.00 31.18
100.00 31.24
101.00 31.36
102.00 31.69
103.00 32.44
104.00 33.91
105.00 36.38
106.00 40.26
107.00 46.12
108.00 53.07
109.00 52.98
110.00 49.64
111.00 45.59
112.00 42.22
113.00 40.00
114.00 38.81
115.00 38.55
116.00 39.19
117.00 40.76
118.00 43.09
119.00 44.64
120.00 43.55
121.00 41.69
122.00 40.51
123.00 40.12
124.00 40.38
125.00 41.10
126.00 42.06
127.00 43.24
128.00 45.23
129.00 50.08
130.00 60.05
131.00 45.49
132.00 39.65
133.00 36.32
134.00 34.29
135.00 33.09
136.00 32.47
137.00 32.31
138.00 32.62
139.00 33.49
140.00 35.20
141.00 38.34
142.00 44.88
143.00 54.54
144.00 41.65
145.00 37.16
146.00 35.00
147.00 34.11
148.00 34.15
149.00 35.05
150.00 36.91
151.00 40.05
152.00 45.51
153.00 59.09
154.00 48.57
155.00 41.86
156.00 38.03
157.00 35.57
158.00 34.16
159.00 33.70
160.00 34.11
161.00 35.28
162.00 36.95
163.00 38.37
164.00 38.78
165.00 38.60
166.00 38.88
167.00 40.25
168.00 43.17
169.00 47.26
170.00 46.95
171.00 43.71
172.00 41.72
173.00 40.71
174.00 40.06
175.00 39.46
176.00 38.80
177.00 38.04
178.00 37.18
179.00 36.40
180.00 35.84
181.00 35.56
182.00 35.36
183.00 35.14
184.00 34.99
185.00 34.99
186.00 35.14
187.00 35.41
188.00 35.88
189.00 36.82
190.00 38.41
191.00 40.50
192.00 41.46
193.00 40.14
194.00 38.37
195.00 37.20
196.00 36.67
197.00 36.57
198.00 36.68
199.00 36.78
200.00 36.73
201.00 36.51
202.00 36.30
203.00 36.33
204.00 36.76
205.00 37.63
206.00 38.85
207.00 40.24
208.00 41.60
209.00 42.90
210.00 44.48
211.00 47.06
212.00 51.69
213.00 52.80
214.00 46.98
215.00 43.57
216.00 42.24
217.00 42.55
218.00 44.42
219.00 47.64
220.00 50.51
221.00 49.86
222.00 47.26
223.00 44.23
224.00 41.47
225.00 39.43
226.00 38.19
227.00 37.65
228.00 37.63
229.00 37.94
230.00 38.31
231.00 38.33
232.00 37.71
233.00 36.66
234.00 35.62
235.00 34.86
236.00 34.39
237.00 34.15
238.00 34.09
239.00 34.21
240.00 34.60
241.00 35.35
242.00 36.49
243.00 38.03
244.00 39.85
245.00 41.68
246.00 43.07
247.00 43.56
248.00 43.15
249.00 42.43
250.00 41.95
251.00 41.96
252.00 42.37
253.00 42.77
254.00 42.79
255.00 42.53
256.00 42.44
257.00 42.74
258.00 43.45
259.00 44.58
260.00 46.25
261.00 47.43
262.00 44.94
263.00 41.19
264.00 38.62
265.00 37.43
266.00 37.50
267.00 38.59
268.00 40.04
269.00 40.85
270.00 41.36
271.00 42.86
272.00 44.91
273.00 42.98
274.00 39.53
275.00 37.65
276.00 37.32
277.00 38.09
278.00 39.04
279.00 39.17
280.00 38.91
281.00 39.20
282.00 40.27
283.00 41.73
284.00 42.83
285.00 43.21
286.00 42.77
287.00 41.61
288.00 40.42
289.00 39.70
290.00 39.27
291.00 38.31
292.00 36.43
293.00 34.13
294.00 31.84
295.00 29.62
296.00 27.44
297.00 25.34
298.00 23.39
299.00 21.66
300.00 20.17
301.00 18.93
302.00 17.90
303.00 17.04
304.00 16.32
305.00 15.70
306.00 15.18
307.00 14.76
308.00 14.49
309.00 14.41
310.00 14.53
311.00 14.87
312.00 15.44
313.00 16.20
314.00 17.12
315.00 18.17
316.00 19.35
317.00 20.72
318.00 22.40
319.00 24.52
320.00 27.26
321.00 30.80
322.00 35.19
323.00 39.95
324.00 44.02
325.00 48.65
326.00 58.18
327.00 50.35
328.00 45.47
329.00 42.90
330.00 39.22
331.00 34.68
332.00 30.82
333.00 28.01
334.00 26.15
335.00 25.16
336.00 24.97
337.00 25.59
338.00 27.16
339.00 30.13
340.00 36.43
341.00 47.95
342.00 31.88
343.00 26.33
344.00 23.11
345.00 21.18
346.00 20.34
347.00 20.69
348.00 22.76
349.00 27.90
350.00 25.67
351.00 17.74
352.00 12.68
353.00 9.10
354.00 6.40
355.00 4.33
356.00 2.73
357.00 1.54
358.00 0.71
359.00 0.20
