NAME ATR4518R7_1880_X_CO_P45_09T_yL
FREQUENCY 1880
GAIN 14.59 dBd
TILT	ELECTRICAL
COMMENT DATE 05.08.2013 +45 degrees polarized system Lever position 09T deg
HORIZONTAL 360
0.00 0.09
1.00 0.07
2.00 0.05
3.00 0.03
4.00 0.02
5.00 0.01
6.00 0.00
7.00 0.00
8.00 0.01
9.00 0.02
10.00 0.03
11.00 0.05
12.00 0.08
13.00 0.11
14.00 0.15
15.00 0.20
16.00 0.26
17.00 0.32
18.00 0.39
19.00 0.46
20.00 0.55
21.00 0.64
22.00 0.73
23.00 0.84
24.00 0.95
25.00 1.07
26.00 1.19
27.00 1.32
28.00 1.46
29.00 1.60
30.00 1.75
31.00 1.91
32.00 2.07
33.00 2.24
34.00 2.42
35.00 2.61
36.00 2.80
37.00 3.00
38.00 3.20
39.00 3.41
40.00 3.63
41.00 3.85
42.00 4.08
43.00 4.32
44.00 4.56
45.00 4.80
46.00 5.05
47.00 5.30
48.00 5.56
49.00 5.82
50.00 6.08
51.00 6.35
52.00 6.61
53.00 6.88
54.00 7.15
55.00 7.42
56.00 7.69
57.00 7.97
58.00 8.24
59.00 8.52
60.00 8.79
61.00 9.07
62.00 9.35
63.00 9.63
64.00 9.92
65.00 10.20
66.00 10.49
67.00 10.78
68.00 11.08
69.00 11.38
70.00 11.68
71.00 11.98
72.00 12.29
73.00 12.61
74.00 12.93
75.00 13.25
76.00 13.58
77.00 13.91
78.00 14.26
79.00 14.60
80.00 14.95
81.00 15.30
82.00 15.66
83.00 16.03
84.00 16.41
85.00 16.80
86.00 17.19
87.00 17.60
88.00 18.01
89.00 18.45
90.00 18.90
91.00 19.36
92.00 19.85
93.00 20.36
94.00 20.90
95.00 21.46
96.00 22.06
97.00 22.69
98.00 23.35
99.00 24.06
100.00 24.80
101.00 25.59
102.00 26.41
103.00 27.28
104.00 28.17
105.00 29.09
106.00 30.01
107.00 30.91
108.00 31.75
109.00 32.51
110.00 33.14
111.00 33.63
112.00 33.99
113.00 34.23
114.00 34.40
115.00 34.54
116.00 34.69
117.00 34.88
118.00 35.13
119.00 35.46
120.00 35.89
121.00 36.40
122.00 37.00
123.00 37.65
124.00 38.32
125.00 38.91
126.00 39.31
127.00 39.40
128.00 39.12
129.00 38.52
130.00 37.74
131.00 36.88
132.00 36.02
133.00 35.21
134.00 34.49
135.00 33.85
136.00 33.29
137.00 32.83
138.00 32.45
139.00 32.15
140.00 31.93
141.00 31.78
142.00 31.69
143.00 31.68
144.00 31.73
145.00 31.85
146.00 32.03
147.00 32.27
148.00 32.57
149.00 32.94
150.00 33.38
151.00 33.88
152.00 34.45
153.00 35.08
154.00 35.79
155.00 36.56
156.00 37.40
157.00 38.31
158.00 39.29
159.00 40.33
160.00 41.42
161.00 42.56
162.00 43.74
163.00 44.96
164.00 46.21
165.00 47.51
166.00 48.87
167.00 50.23
168.00 51.43
169.00 52.01
170.00 51.48
171.00 49.96
172.00 48.02
173.00 46.09
174.00 44.31
175.00 42.72
176.00 41.33
177.00 40.11
178.00 39.06
179.00 38.14
180.00 37.37
181.00 36.72
182.00 36.19
183.00 35.78
184.00 35.48
185.00 35.30
186.00 35.23
187.00 35.28
188.00 35.45
189.00 35.76
190.00 36.21
191.00 36.83
192.00 37.64
193.00 38.66
194.00 39.96
195.00 41.60
196.00 43.62
197.00 45.93
198.00 47.69
199.00 47.20
200.00 44.95
201.00 42.54
202.00 40.49
203.00 38.82
204.00 37.45
205.00 36.33
206.00 35.43
207.00 34.69
208.00 34.11
209.00 33.66
210.00 33.33
211.00 33.11
212.00 33.00
213.00 32.99
214.00 33.08
215.00 33.26
216.00 33.55
217.00 33.94
218.00 34.43
219.00 35.02
220.00 35.70
221.00 36.46
222.00 37.24
223.00 37.99
224.00 38.56
225.00 38.81
226.00 38.65
227.00 38.08
228.00 37.24
229.00 36.27
230.00 35.29
231.00 34.34
232.00 33.47
233.00 32.68
234.00 31.97
235.00 31.34
236.00 30.79
237.00 30.32
238.00 29.91
239.00 29.57
240.00 29.28
241.00 29.05
242.00 28.87
243.00 28.74
244.00 28.65
245.00 28.59
246.00 28.57
247.00 28.55
248.00 28.54
249.00 28.52
250.00 28.48
251.00 28.39
252.00 28.25
253.00 28.04
254.00 27.75
255.00 27.39
256.00 26.97
257.00 26.48
258.00 25.95
259.00 25.40
260.00 24.83
261.00 24.26
262.00 23.70
263.00 23.15
264.00 22.62
265.00 22.11
266.00 21.63
267.00 21.17
268.00 20.74
269.00 20.33
270.00 19.94
271.00 19.57
272.00 19.22
273.00 18.89
274.00 18.56
275.00 18.25
276.00 17.95
277.00 17.66
278.00 17.37
279.00 17.08
280.00 16.79
281.00 16.50
282.00 16.21
283.00 15.92
284.00 15.63
285.00 15.34
286.00 15.05
287.00 14.76
288.00 14.47
289.00 14.18
290.00 13.90
291.00 13.63
292.00 13.36
293.00 13.10
294.00 12.85
295.00 12.61
296.00 12.38
297.00 12.15
298.00 11.94
299.00 11.73
300.00 11.53
301.00 11.34
302.00 11.15
303.00 10.96
304.00 10.78
305.00 10.59
306.00 10.40
307.00 10.20
308.00 10.00
309.00 9.79
310.00 9.57
311.00 9.33
312.00 9.09
313.00 8.83
314.00 8.57
315.00 8.29
316.00 8.00
317.00 7.71
318.00 7.41
319.00 7.10
320.00 6.79
321.00 6.48
322.00 6.17
323.00 5.86
324.00 5.55
325.00 5.25
326.00 4.95
327.00 4.65
328.00 4.36
329.00 4.08
330.00 3.80
331.00 3.54
332.00 3.28
333.00 3.03
334.00 2.79
335.00 2.57
336.00 2.35
337.00 2.14
338.00 1.95
339.00 1.76
340.00 1.59
341.00 1.44
342.00 1.29
343.00 1.15
344.00 1.03
345.00 0.91
346.00 0.81
347.00 0.71
348.00 0.63
349.00 0.55
350.00 0.48
351.00 0.42
352.00 0.37
353.00 0.32
354.00 0.28
355.00 0.24
356.00 0.20
357.00 0.17
358.00 0.14
359.00 0.11
VERTICAL 360
0.00 24.18
1.00 28.70
2.00 28.30
3.00 16.13
4.00 9.94
5.00 5.89
6.00 3.12
7.00 1.30
8.00 0.29
9.00 0.00
10.00 0.43
11.00 1.62
12.00 3.75
13.00 7.23
14.00 13.33
15.00 26.04
16.00 16.23
17.00 12.26
18.00 11.38
19.00 12.41
20.00 15.31
21.00 21.04
22.00 28.32
23.00 21.32
24.00 17.69
25.00 16.46
26.00 16.85
27.00 18.80
28.00 22.41
29.00 24.29
30.00 20.47
31.00 17.39
32.00 15.94
33.00 15.85
34.00 17.00
35.00 19.45
36.00 23.40
37.00 28.18
38.00 27.83
39.00 24.05
40.00 21.13
41.00 19.27
42.00 18.42
43.00 18.50
44.00 19.39
45.00 20.90
46.00 22.82
47.00 24.90
48.00 26.76
49.00 27.97
50.00 28.78
51.00 29.97
52.00 32.33
53.00 37.47
54.00 56.49
55.00 37.68
56.00 32.66
57.00 30.84
58.00 30.55
59.00 30.95
60.00 31.46
61.00 32.03
62.00 32.90
63.00 34.25
64.00 36.39
65.00 40.14
66.00 47.94
67.00 48.34
68.00 41.36
69.00 38.58
70.00 37.39
71.00 36.60
72.00 35.81
73.00 35.30
74.00 35.22
75.00 35.34
76.00 35.18
77.00 34.38
78.00 33.13
79.00 32.11
80.00 31.81
81.00 32.37
82.00 33.63
83.00 35.06
84.00 36.18
85.00 37.22
86.00 39.09
87.00 42.60
88.00 45.03
89.00 41.95
90.00 39.70
91.00 38.69
92.00 37.48
93.00 36.11
94.00 35.51
95.00 35.94
96.00 36.93
97.00 37.35
98.00 36.52
99.00 35.07
100.00 33.87
101.00 33.39
102.00 33.67
103.00 34.47
104.00 35.34
105.00 35.99
106.00 36.48
107.00 37.07
108.00 38.03
109.00 39.54
110.00 41.40
111.00 42.85
112.00 42.60
113.00 40.65
114.00 38.55
115.00 37.12
116.00 36.38
117.00 35.94
118.00 35.33
119.00 34.29
120.00 33.07
121.00 32.06
122.00 31.56
123.00 31.64
124.00 32.10
125.00 32.45
126.00 32.34
127.00 32.02
128.00 32.01
129.00 32.68
130.00 34.17
131.00 36.41
132.00 38.96
133.00 40.98
134.00 41.92
135.00 41.79
136.00 40.95
137.00 40.29
138.00 40.47
139.00 41.90
140.00 45.13
141.00 51.63
142.00 60.07
143.00 54.78
144.00 53.92
145.00 50.43
146.00 46.59
147.00 45.93
148.00 49.12
149.00 49.10
150.00 43.32
151.00 41.06
152.00 41.34
153.00 41.47
154.00 39.45
155.00 38.32
156.00 39.61
157.00 41.93
158.00 39.26
159.00 36.36
160.00 35.69
161.00 36.08
162.00 35.03
163.00 32.92
164.00 31.67
165.00 31.55
166.00 32.21
167.00 33.15
168.00 34.10
169.00 35.15
170.00 35.80
171.00 35.28
172.00 34.70
173.00 35.23
174.00 37.78
175.00 43.12
176.00 45.16
177.00 41.87
178.00 41.97
179.00 44.86
180.00 44.50
181.00 42.33
182.00 43.94
183.00 55.24
184.00 47.15
185.00 41.49
186.00 41.31
187.00 45.23
188.00 46.21
189.00 41.07
190.00 38.84
191.00 38.19
192.00 37.63
193.00 37.07
194.00 37.52
195.00 39.96
196.00 45.42
197.00 45.20
198.00 39.36
199.00 36.27
200.00 34.85
201.00 34.56
202.00 35.13
203.00 36.44
204.00 38.23
205.00 39.20
206.00 37.80
207.00 35.62
208.00 34.23
209.00 33.83
210.00 34.07
211.00 34.30
212.00 34.12
213.00 33.89
214.00 34.12
215.00 34.87
216.00 35.71
217.00 35.91
218.00 35.20
219.00 34.22
220.00 33.67
221.00 33.98
222.00 35.48
223.00 38.31
224.00 40.82
225.00 39.16
226.00 36.71
227.00 35.64
228.00 36.07
229.00 38.21
230.00 42.65
231.00 45.76
232.00 40.73
233.00 37.37
234.00 35.85
235.00 35.54
236.00 36.25
237.00 38.07
238.00 41.30
239.00 45.15
240.00 45.02
241.00 43.05
242.00 42.50
243.00 43.32
244.00 44.69
245.00 44.78
246.00 43.29
247.00 41.80
248.00 40.62
249.00 39.35
250.00 38.08
251.00 37.33
252.00 37.26
253.00 37.49
254.00 37.21
255.00 36.05
256.00 34.55
257.00 33.27
258.00 32.41
259.00 32.04
260.00 32.16
261.00 32.80
262.00 33.94
263.00 35.43
264.00 36.78
265.00 37.17
266.00 36.42
267.00 35.35
268.00 34.51
269.00 33.88
270.00 33.13
271.00 32.02
272.00 30.71
273.00 29.57
274.00 28.83
275.00 28.49
276.00 28.27
277.00 27.76
278.00 26.78
279.00 25.60
280.00 24.57
281.00 23.90
282.00 23.59
283.00 23.49
284.00 23.39
285.00 23.14
286.00 22.75
287.00 22.35
288.00 22.11
289.00 22.15
290.00 22.61
291.00 23.64
292.00 25.48
293.00 28.62
294.00 34.40
295.00 40.58
296.00 32.69
297.00 28.48
298.00 26.31
299.00 25.18
300.00 24.59
301.00 24.37
302.00 24.55
303.00 25.28
304.00 26.63
305.00 28.42
306.00 29.63
307.00 28.52
308.00 25.81
309.00 23.17
310.00 21.22
311.00 20.12
312.00 19.91
313.00 20.66
314.00 22.57
315.00 26.22
316.00 34.37
317.00 37.92
318.00 27.28
319.00 23.13
320.00 21.08
321.00 20.41
322.00 20.98
323.00 23.10
324.00 27.98
325.00 35.64
326.00 25.52
327.00 20.21
328.00 17.40
329.00 16.05
330.00 15.81
331.00 16.54
332.00 18.11
333.00 20.32
334.00 22.77
335.00 25.01
336.00 27.35
337.00 31.55
338.00 46.57
339.00 32.00
340.00 25.58
341.00 22.75
342.00 21.99
343.00 23.15
344.00 26.86
345.00 30.10
346.00 23.66
347.00 19.19
348.00 16.86
349.00 16.10
350.00 16.83
351.00 19.43
352.00 25.66
353.00 42.13
354.00 24.62
355.00 20.98
356.00 20.50
357.00 22.06
358.00 24.34
359.00 24.41
