NAME ATR4518R7_2655_X_CO_M45_05T_yL
FREQUENCY 2655
GAIN 16.15 dBd
TILT	ELECTRICAL
COMMENT DATE 05.08.2013 -45 degrees polarized system Lever position 05T deg
HORIZONTAL 360
0.00 0.09
1.00 0.16
2.00 0.24
3.00 0.33
4.00 0.43
5.00 0.54
6.00 0.64
7.00 0.75
8.00 0.85
9.00 0.94
10.00 1.03
11.00 1.11
12.00 1.19
13.00 1.25
14.00 1.32
15.00 1.39
16.00 1.46
17.00 1.53
18.00 1.61
19.00 1.70
20.00 1.81
21.00 1.92
22.00 2.06
23.00 2.20
24.00 2.36
25.00 2.54
26.00 2.73
27.00 2.93
28.00 3.14
29.00 3.36
30.00 3.58
31.00 3.81
32.00 4.04
33.00 4.27
34.00 4.49
35.00 4.71
36.00 4.93
37.00 5.14
38.00 5.34
39.00 5.54
40.00 5.73
41.00 5.91
42.00 6.10
43.00 6.28
44.00 6.46
45.00 6.63
46.00 6.82
47.00 7.00
48.00 7.19
49.00 7.38
50.00 7.59
51.00 7.79
52.00 8.00
53.00 8.21
54.00 8.44
55.00 8.67
56.00 8.90
57.00 9.14
58.00 9.39
59.00 9.64
60.00 9.90
61.00 10.17
62.00 10.44
63.00 10.73
64.00 11.02
65.00 11.33
66.00 11.65
67.00 11.98
68.00 12.33
69.00 12.69
70.00 13.08
71.00 13.49
72.00 13.92
73.00 14.37
74.00 14.86
75.00 15.37
76.00 15.92
77.00 16.50
78.00 17.13
79.00 17.79
80.00 18.50
81.00 19.25
82.00 20.06
83.00 20.91
84.00 21.81
85.00 22.76
86.00 23.76
87.00 24.78
88.00 25.81
89.00 26.82
90.00 27.75
91.00 28.55
92.00 29.15
93.00 29.54
94.00 29.73
95.00 29.74
96.00 29.65
97.00 29.50
98.00 29.34
99.00 29.20
100.00 29.09
101.00 29.01
102.00 28.97
103.00 28.96
104.00 28.97
105.00 29.00
106.00 29.03
107.00 29.06
108.00 29.09
109.00 29.13
110.00 29.16
111.00 29.21
112.00 29.28
113.00 29.39
114.00 29.54
115.00 29.74
116.00 30.02
117.00 30.37
118.00 30.81
119.00 31.36
120.00 32.01
121.00 32.77
122.00 33.65
123.00 34.64
124.00 35.75
125.00 36.96
126.00 38.22
127.00 39.49
128.00 40.71
129.00 41.84
130.00 42.86
131.00 43.84
132.00 44.81
133.00 45.72
134.00 46.26
135.00 45.84
136.00 44.29
137.00 42.18
138.00 40.02
139.00 38.06
140.00 36.35
141.00 34.88
142.00 33.63
143.00 32.58
144.00 31.70
145.00 30.99
146.00 30.43
147.00 30.01
148.00 29.71
149.00 29.53
150.00 29.46
151.00 29.50
152.00 29.63
153.00 29.83
154.00 30.11
155.00 30.44
156.00 30.80
157.00 31.18
158.00 31.56
159.00 31.92
160.00 32.25
161.00 32.54
162.00 32.79
163.00 33.01
164.00 33.20
165.00 33.37
166.00 33.52
167.00 33.62
168.00 33.68
169.00 33.67
170.00 33.57
171.00 33.37
172.00 33.09
173.00 32.74
174.00 32.36
175.00 31.96
176.00 31.59
177.00 31.26
178.00 30.99
179.00 30.79
180.00 30.68
181.00 30.66
182.00 30.74
183.00 30.92
184.00 31.20
185.00 31.59
186.00 32.10
187.00 32.72
188.00 33.48
189.00 34.37
190.00 35.40
191.00 36.57
192.00 37.85
193.00 39.17
194.00 40.37
195.00 41.19
196.00 41.40
197.00 41.02
198.00 40.29
199.00 39.46
200.00 38.69
201.00 38.05
202.00 37.56
203.00 37.25
204.00 37.11
205.00 37.14
206.00 37.37
207.00 37.79
208.00 38.45
209.00 39.37
210.00 40.63
211.00 42.33
212.00 44.66
213.00 48.02
214.00 52.80
215.00 54.64
216.00 49.78
217.00 45.91
218.00 43.27
219.00 41.42
220.00 40.07
221.00 39.12
222.00 38.47
223.00 38.11
224.00 37.99
225.00 38.11
226.00 38.47
227.00 39.08
228.00 39.95
229.00 41.12
230.00 42.60
231.00 44.37
232.00 46.19
233.00 47.36
234.00 47.06
235.00 45.67
236.00 44.04
237.00 42.66
238.00 41.57
239.00 40.76
240.00 40.19
241.00 39.83
242.00 39.61
243.00 39.48
244.00 39.35
245.00 39.16
246.00 38.83
247.00 38.33
248.00 37.69
249.00 36.94
250.00 36.14
251.00 35.36
252.00 34.64
253.00 33.99
254.00 33.44
255.00 32.98
256.00 32.63
257.00 32.38
258.00 32.24
259.00 32.20
260.00 32.27
261.00 32.45
262.00 32.73
263.00 33.11
264.00 33.58
265.00 34.10
266.00 34.60
267.00 34.98
268.00 35.08
269.00 34.78
270.00 34.07
271.00 33.07
272.00 31.93
273.00 30.76
274.00 29.64
275.00 28.59
276.00 27.63
277.00 26.77
278.00 26.00
279.00 25.32
280.00 24.71
281.00 24.16
282.00 23.66
283.00 23.21
284.00 22.78
285.00 22.37
286.00 21.96
287.00 21.54
288.00 21.11
289.00 20.65
290.00 20.17
291.00 19.66
292.00 19.13
293.00 18.59
294.00 18.03
295.00 17.48
296.00 16.92
297.00 16.38
298.00 15.84
299.00 15.31
300.00 14.80
301.00 14.29
302.00 13.80
303.00 13.31
304.00 12.82
305.00 12.34
306.00 11.85
307.00 11.36
308.00 10.86
309.00 10.36
310.00 9.86
311.00 9.35
312.00 8.85
313.00 8.35
314.00 7.85
315.00 7.37
316.00 6.90
317.00 6.45
318.00 6.01
319.00 5.60
320.00 5.20
321.00 4.83
322.00 4.49
323.00 4.17
324.00 3.87
325.00 3.60
326.00 3.35
327.00 3.12
328.00 2.91
329.00 2.72
330.00 2.55
331.00 2.40
332.00 2.27
333.00 2.15
334.00 2.04
335.00 1.94
336.00 1.84
337.00 1.76
338.00 1.67
339.00 1.59
340.00 1.51
341.00 1.42
342.00 1.32
343.00 1.22
344.00 1.12
345.00 1.01
346.00 0.89
347.00 0.77
348.00 0.65
349.00 0.53
350.00 0.42
351.00 0.32
352.00 0.22
353.00 0.14
354.00 0.08
355.00 0.03
356.00 0.01
357.00 0.00
358.00 0.01
359.00 0.04
VERTICAL 360
0.00 19.52
1.00 11.18
2.00 5.93
3.00 2.58
4.00 0.66
5.00 0.00
6.00 0.62
7.00 2.78
8.00 7.43
9.00 19.72
10.00 15.93
11.00 10.33
12.00 10.10
13.00 13.45
14.00 21.94
15.00 18.06
16.00 14.09
17.00 14.59
18.00 19.82
19.00 29.93
20.00 18.22
21.00 15.43
22.00 16.47
23.00 22.35
24.00 32.99
25.00 19.44
26.00 16.75
27.00 17.78
28.00 22.90
29.00 31.17
30.00 20.70
31.00 16.58
32.00 15.31
33.00 16.25
34.00 19.85
35.00 27.93
36.00 26.24
37.00 21.52
38.00 20.43
39.00 21.55
40.00 25.00
41.00 33.04
42.00 39.14
43.00 30.84
44.00 29.42
45.00 30.19
46.00 31.29
47.00 31.68
48.00 31.68
49.00 32.32
50.00 34.76
51.00 39.36
52.00 37.77
53.00 33.85
54.00 31.97
55.00 30.87
56.00 30.60
57.00 32.22
58.00 34.58
59.00 32.15
60.00 29.85
61.00 29.74
62.00 30.18
63.00 29.05
64.00 27.45
65.00 26.69
66.00 26.69
67.00 26.91
68.00 26.91
69.00 26.98
70.00 27.47
71.00 28.45
72.00 29.88
73.00 31.52
74.00 32.50
75.00 32.66
76.00 32.33
77.00 31.72
78.00 32.04
79.00 34.24
80.00 37.85
81.00 39.66
82.00 38.34
83.00 37.72
84.00 41.95
85.00 44.10
86.00 36.15
87.00 35.47
88.00 40.94
89.00 49.96
90.00 41.19
91.00 35.71
92.00 32.09
93.00 32.02
94.00 36.81
95.00 46.85
96.00 38.01
97.00 37.53
98.00 42.88
99.00 61.75
100.00 43.84
101.00 41.76
102.00 44.03
103.00 47.58
104.00 45.62
105.00 41.49
106.00 38.79
107.00 38.44
108.00 39.67
109.00 41.21
110.00 41.80
111.00 39.05
112.00 36.63
113.00 36.43
114.00 37.80
115.00 38.51
116.00 37.06
117.00 35.65
118.00 35.22
119.00 34.51
120.00 33.64
121.00 34.42
122.00 37.05
123.00 37.41
124.00 36.70
125.00 39.67
126.00 43.66
127.00 40.10
128.00 41.09
129.00 46.19
130.00 44.60
131.00 47.70
132.00 44.07
133.00 38.78
134.00 40.14
135.00 49.81
136.00 41.27
137.00 38.52
138.00 40.25
139.00 40.57
140.00 38.54
141.00 39.49
142.00 45.29
143.00 74.38
144.00 50.89
145.00 44.16
146.00 39.08
147.00 36.22
148.00 35.14
149.00 35.33
150.00 34.12
151.00 32.19
152.00 33.04
153.00 37.28
154.00 37.21
155.00 37.70
156.00 48.03
157.00 36.47
158.00 34.52
159.00 39.92
160.00 38.26
161.00 34.24
162.00 34.76
163.00 35.50
164.00 36.69
165.00 42.75
166.00 56.45
167.00 46.85
168.00 36.54
169.00 31.94
170.00 30.76
171.00 30.87
172.00 31.42
173.00 34.13
174.00 35.48
175.00 31.26
176.00 30.31
177.00 33.28
178.00 40.92
179.00 47.01
180.00 36.58
181.00 32.02
182.00 31.60
183.00 34.42
184.00 35.47
185.00 33.96
186.00 33.41
187.00 32.65
188.00 33.90
189.00 39.79
190.00 42.94
191.00 43.91
192.00 47.95
193.00 35.25
194.00 31.26
195.00 29.67
196.00 29.82
197.00 32.21
198.00 33.97
199.00 31.33
200.00 29.82
201.00 29.71
202.00 29.95
203.00 30.44
204.00 31.63
205.00 33.44
206.00 34.21
207.00 33.36
208.00 33.27
209.00 35.25
210.00 40.66
211.00 43.23
212.00 37.62
213.00 35.02
214.00 32.64
215.00 30.92
216.00 31.17
217.00 33.47
218.00 36.62
219.00 39.88
220.00 45.92
221.00 46.40
222.00 42.07
223.00 40.88
224.00 40.96
225.00 41.91
226.00 43.39
227.00 43.96
228.00 43.60
229.00 42.73
230.00 40.51
231.00 37.07
232.00 33.68
233.00 31.10
234.00 29.31
235.00 28.02
236.00 27.37
237.00 27.78
238.00 29.57
239.00 32.72
240.00 36.65
241.00 39.58
242.00 39.58
243.00 37.37
244.00 35.11
245.00 33.52
246.00 32.69
247.00 33.07
248.00 35.15
249.00 38.36
250.00 40.28
251.00 41.54
252.00 41.55
253.00 37.66
254.00 33.71
255.00 31.42
256.00 31.12
257.00 32.89
258.00 36.38
259.00 37.79
260.00 35.29
261.00 33.94
262.00 34.94
263.00 38.74
264.00 46.79
265.00 44.81
266.00 37.49
267.00 33.54
268.00 31.57
269.00 31.24
270.00 32.79
271.00 36.95
272.00 42.60
273.00 39.93
274.00 38.46
275.00 39.97
276.00 42.60
277.00 43.97
278.00 46.71
279.00 57.92
280.00 54.41
281.00 52.31
282.00 58.05
283.00 49.67
284.00 48.69
285.00 55.28
286.00 51.86
287.00 48.48
288.00 45.62
289.00 41.55
290.00 39.47
291.00 38.76
292.00 38.44
293.00 39.00
294.00 42.40
295.00 54.95
296.00 36.48
297.00 29.19
298.00 24.57
299.00 21.20
300.00 18.53
301.00 16.34
302.00 14.59
303.00 13.35
304.00 12.60
305.00 12.32
306.00 12.43
307.00 12.96
308.00 14.07
309.00 16.05
310.00 19.54
311.00 26.76
312.00 31.10
313.00 21.49
314.00 17.71
315.00 16.28
316.00 16.54
317.00 18.59
318.00 23.52
319.00 33.77
320.00 24.99
321.00 21.12
322.00 21.02
323.00 24.51
324.00 38.82
325.00 26.55
326.00 20.64
327.00 18.79
328.00 19.83
329.00 25.36
330.00 35.72
331.00 21.58
332.00 17.84
333.00 17.08
334.00 18.33
335.00 21.23
336.00 23.35
337.00 21.66
338.00 20.03
339.00 19.63
340.00 19.50
341.00 18.87
342.00 18.56
343.00 19.81
344.00 24.01
345.00 31.98
346.00 25.19
347.00 21.79
348.00 21.63
349.00 22.57
350.00 21.55
351.00 19.72
352.00 19.51
353.00 21.75
354.00 27.80
355.00 39.59
356.00 29.95
357.00 26.84
358.00 26.79
359.00 30.26
