NAME ATR4518R7_0806_X_CO_M45_07T
FREQUENCY 0806
GAIN 14.44 dBd
TILT	ELECTRICAL
COMMENT DATE 05.08.2013 -45 degrees polarized system Lever position 07T deg
HORIZONTAL 360
0.00 0.01
1.00 0.03
2.00 0.04
3.00 0.07
4.00 0.10
5.00 0.14
6.00 0.18
7.00 0.23
8.00 0.28
9.00 0.34
10.00 0.41
11.00 0.48
12.00 0.56
13.00 0.65
14.00 0.74
15.00 0.83
16.00 0.94
17.00 1.05
18.00 1.16
19.00 1.28
20.00 1.41
21.00 1.54
22.00 1.68
23.00 1.83
24.00 1.98
25.00 2.14
26.00 2.30
27.00 2.48
28.00 2.65
29.00 2.84
30.00 3.02
31.00 3.22
32.00 3.42
33.00 3.63
34.00 3.84
35.00 4.06
36.00 4.29
37.00 4.52
38.00 4.76
39.00 5.00
40.00 5.25
41.00 5.51
42.00 5.77
43.00 6.03
44.00 6.31
45.00 6.58
46.00 6.86
47.00 7.15
48.00 7.44
49.00 7.74
50.00 8.04
51.00 8.35
52.00 8.66
53.00 8.98
54.00 9.30
55.00 9.62
56.00 9.94
57.00 10.27
58.00 10.60
59.00 10.94
60.00 11.27
61.00 11.61
62.00 11.95
63.00 12.29
64.00 12.63
65.00 12.97
66.00 13.31
67.00 13.66
68.00 14.00
69.00 14.34
70.00 14.68
71.00 15.02
72.00 15.37
73.00 15.70
74.00 16.04
75.00 16.37
76.00 16.71
77.00 17.04
78.00 17.37
79.00 17.70
80.00 18.02
81.00 18.35
82.00 18.67
83.00 18.99
84.00 19.31
85.00 19.62
86.00 19.93
87.00 20.24
88.00 20.55
89.00 20.85
90.00 21.15
91.00 21.44
92.00 21.73
93.00 22.02
94.00 22.29
95.00 22.57
96.00 22.83
97.00 23.09
98.00 23.35
99.00 23.60
100.00 23.84
101.00 24.07
102.00 24.29
103.00 24.52
104.00 24.73
105.00 24.94
106.00 25.14
107.00 25.33
108.00 25.53
109.00 25.72
110.00 25.90
111.00 26.09
112.00 26.27
113.00 26.46
114.00 26.65
115.00 26.83
116.00 27.03
117.00 27.22
118.00 27.42
119.00 27.63
120.00 27.84
121.00 28.06
122.00 28.28
123.00 28.51
124.00 28.74
125.00 28.99
126.00 29.23
127.00 29.49
128.00 29.75
129.00 30.01
130.00 30.27
131.00 30.54
132.00 30.80
133.00 31.07
134.00 31.32
135.00 31.57
136.00 31.80
137.00 32.02
138.00 32.22
139.00 32.41
140.00 32.57
141.00 32.71
142.00 32.82
143.00 32.91
144.00 32.97
145.00 33.00
146.00 33.02
147.00 33.01
148.00 32.99
149.00 32.96
150.00 32.91
151.00 32.85
152.00 32.79
153.00 32.73
154.00 32.66
155.00 32.60
156.00 32.54
157.00 32.48
158.00 32.43
159.00 32.39
160.00 32.36
161.00 32.33
162.00 32.31
163.00 32.30
164.00 32.30
165.00 32.31
166.00 32.33
167.00 32.36
168.00 32.39
169.00 32.44
170.00 32.49
171.00 32.54
172.00 32.60
173.00 32.67
174.00 32.75
175.00 32.82
176.00 32.90
177.00 32.98
178.00 33.06
179.00 33.15
180.00 33.23
181.00 33.31
182.00 33.39
183.00 33.46
184.00 33.54
185.00 33.60
186.00 33.67
187.00 33.73
188.00 33.78
189.00 33.83
190.00 33.87
191.00 33.91
192.00 33.94
193.00 33.97
194.00 33.99
195.00 34.00
196.00 34.01
197.00 34.02
198.00 34.03
199.00 34.02
200.00 34.02
201.00 34.02
202.00 34.01
203.00 34.00
204.00 33.99
205.00 33.98
206.00 33.97
207.00 33.96
208.00 33.95
209.00 33.93
210.00 33.93
211.00 33.92
212.00 33.91
213.00 33.91
214.00 33.91
215.00 33.91
216.00 33.92
217.00 33.92
218.00 33.93
219.00 33.94
220.00 33.95
221.00 33.96
222.00 33.97
223.00 33.97
224.00 33.97
225.00 33.95
226.00 33.93
227.00 33.88
228.00 33.82
229.00 33.73
230.00 33.62
231.00 33.47
232.00 33.28
233.00 33.05
234.00 32.79
235.00 32.49
236.00 32.15
237.00 31.78
238.00 31.37
239.00 30.94
240.00 30.48
241.00 30.01
242.00 29.51
243.00 29.01
244.00 28.51
245.00 28.00
246.00 27.49
247.00 26.98
248.00 26.47
249.00 25.97
250.00 25.48
251.00 24.99
252.00 24.51
253.00 24.04
254.00 23.58
255.00 23.13
256.00 22.69
257.00 22.25
258.00 21.83
259.00 21.41
260.00 21.01
261.00 20.61
262.00 20.22
263.00 19.84
264.00 19.47
265.00 19.11
266.00 18.75
267.00 18.40
268.00 18.05
269.00 17.72
270.00 17.38
271.00 17.06
272.00 16.74
273.00 16.42
274.00 16.11
275.00 15.80
276.00 15.50
277.00 15.20
278.00 14.90
279.00 14.61
280.00 14.32
281.00 14.03
282.00 13.75
283.00 13.46
284.00 13.18
285.00 12.90
286.00 12.62
287.00 12.34
288.00 12.06
289.00 11.79
290.00 11.51
291.00 11.24
292.00 10.96
293.00 10.69
294.00 10.42
295.00 10.15
296.00 9.88
297.00 9.61
298.00 9.34
299.00 9.08
300.00 8.81
301.00 8.55
302.00 8.29
303.00 8.03
304.00 7.77
305.00 7.52
306.00 7.26
307.00 7.01
308.00 6.76
309.00 6.52
310.00 6.28
311.00 6.04
312.00 5.80
313.00 5.57
314.00 5.34
315.00 5.12
316.00 4.89
317.00 4.68
318.00 4.46
319.00 4.25
320.00 4.05
321.00 3.85
322.00 3.65
323.00 3.46
324.00 3.27
325.00 3.09
326.00 2.91
327.00 2.74
328.00 2.57
329.00 2.40
330.00 2.25
331.00 2.09
332.00 1.94
333.00 1.80
334.00 1.66
335.00 1.53
336.00 1.40
337.00 1.28
338.00 1.17
339.00 1.05
340.00 0.95
341.00 0.85
342.00 0.75
343.00 0.66
344.00 0.58
345.00 0.50
346.00 0.43
347.00 0.36
348.00 0.30
349.00 0.25
350.00 0.20
351.00 0.15
352.00 0.11
353.00 0.08
354.00 0.05
355.00 0.03
356.00 0.02
357.00 0.01
358.00 0.00
359.00 0.00
VERTICAL 360
0.00 8.92
1.00 6.25
2.00 4.20
3.00 2.63
4.00 1.47
5.00 0.66
6.00 0.18
7.00 0.00
8.00 0.12
9.00 0.55
10.00 1.29
11.00 2.36
12.00 3.83
13.00 5.75
14.00 8.26
15.00 11.58
16.00 16.28
17.00 24.24
18.00 40.37
19.00 24.86
20.00 21.65
21.00 21.05
22.00 22.10
23.00 24.74
24.00 29.08
25.00 30.12
26.00 25.68
27.00 22.45
28.00 20.59
29.00 19.68
30.00 19.52
31.00 20.02
32.00 21.20
33.00 23.15
34.00 26.08
35.00 30.18
36.00 33.45
37.00 31.25
38.00 28.42
39.00 26.86
40.00 26.40
41.00 26.87
42.00 28.07
43.00 29.28
44.00 28.84
45.00 26.65
46.00 24.30
47.00 22.46
48.00 21.18
49.00 20.40
50.00 20.05
51.00 20.08
52.00 20.46
53.00 21.16
54.00 22.17
55.00 23.50
56.00 25.16
57.00 27.18
58.00 29.54
59.00 32.08
60.00 33.99
61.00 34.02
62.00 32.59
63.00 30.99
64.00 29.72
65.00 28.85
66.00 28.37
67.00 28.21
68.00 28.34
69.00 28.70
70.00 29.21
71.00 29.81
72.00 30.46
73.00 31.12
74.00 31.85
75.00 32.73
76.00 33.94
77.00 35.68
78.00 38.17
79.00 40.93
80.00 40.46
81.00 36.87
82.00 33.62
83.00 31.20
84.00 29.44
85.00 28.19
86.00 27.33
87.00 26.79
88.00 26.51
89.00 26.41
90.00 26.43
91.00 26.55
92.00 26.77
93.00 27.11
94.00 27.61
95.00 28.30
96.00 29.18
97.00 30.22
98.00 31.39
99.00 32.67
100.00 34.05
101.00 35.53
102.00 37.02
103.00 38.36
104.00 39.36
105.00 40.05
106.00 40.49
107.00 40.52
108.00 39.83
109.00 38.64
110.00 37.42
111.00 36.51
112.00 36.03
113.00 35.97
114.00 36.33
115.00 37.05
116.00 38.09
117.00 39.38
118.00 40.71
119.00 41.67
120.00 41.99
121.00 41.88
122.00 41.82
123.00 42.05
124.00 42.58
125.00 43.22
126.00 43.77
127.00 44.31
128.00 45.15
129.00 46.79
130.00 49.83
131.00 54.27
132.00 52.48
133.00 47.53
134.00 44.36
135.00 42.54
136.00 41.76
137.00 41.98
138.00 43.36
139.00 46.49
140.00 52.13
141.00 48.73
142.00 42.44
143.00 38.45
144.00 35.73
145.00 33.78
146.00 32.38
147.00 31.42
148.00 30.86
149.00 30.71
150.00 31.02
151.00 31.87
152.00 33.46
153.00 36.21
154.00 41.31
155.00 59.15
156.00 43.92
157.00 37.77
158.00 34.84
159.00 33.31
160.00 32.69
161.00 32.74
162.00 33.29
163.00 34.12
164.00 34.76
165.00 34.69
166.00 33.88
167.00 32.82
168.00 31.92
169.00 31.35
170.00 31.18
171.00 31.42
172.00 32.06
173.00 33.10
174.00 33.74
175.00 34.56
176.00 35.18
177.00 34.99
178.00 34.76
179.00 34.18
180.00 33.73
181.00 33.68
182.00 34.14
183.00 35.25
184.00 37.20
185.00 40.49
186.00 46.80
187.00 54.88
188.00 43.59
189.00 38.52
190.00 35.40
191.00 33.20
192.00 31.53
193.00 30.23
194.00 29.23
195.00 28.50
196.00 28.06
197.00 27.90
198.00 28.06
199.00 28.54
200.00 29.38
201.00 30.57
202.00 32.12
203.00 33.95
204.00 35.84
205.00 37.25
206.00 37.66
207.00 37.26
208.00 36.68
209.00 36.33
210.00 36.40
211.00 36.99
212.00 38.15
213.00 39.84
214.00 41.59
215.00 41.96
216.00 40.44
217.00 38.45
218.00 36.84
219.00 35.74
220.00 35.07
221.00 34.70
222.00 34.49
223.00 34.34
224.00 34.18
225.00 34.03
226.00 33.99
227.00 34.17
228.00 34.63
229.00 35.43
230.00 36.60
231.00 38.15
232.00 40.01
233.00 42.03
234.00 43.82
235.00 44.79
236.00 44.75
237.00 43.95
238.00 42.63
239.00 40.98
240.00 39.22
241.00 37.59
242.00 36.21
243.00 35.12
244.00 34.33
245.00 33.83
246.00 33.68
247.00 33.92
248.00 34.66
249.00 36.01
250.00 38.06
251.00 40.53
252.00 41.89
253.00 40.81
254.00 39.06
255.00 37.85
256.00 37.30
257.00 37.26
258.00 37.55
259.00 38.01
260.00 38.49
261.00 38.83
262.00 38.91
263.00 38.69
264.00 38.31
265.00 37.98
266.00 37.81
267.00 37.80
268.00 37.87
269.00 37.85
270.00 37.63
271.00 37.10
272.00 36.26
273.00 35.25
274.00 34.24
275.00 33.42
276.00 32.89
277.00 32.69
278.00 32.80
279.00 33.15
280.00 33.62
281.00 34.06
282.00 34.33
283.00 34.38
284.00 34.24
285.00 34.03
286.00 33.89
287.00 33.92
288.00 34.16
289.00 34.51
290.00 34.80
291.00 34.80
292.00 34.38
293.00 33.61
294.00 32.70
295.00 31.82
296.00 31.08
297.00 30.55
298.00 30.30
299.00 30.37
300.00 30.83
301.00 31.79
302.00 33.42
303.00 36.14
304.00 41.22
305.00 50.66
306.00 39.93
307.00 33.89
308.00 30.14
309.00 27.47
310.00 25.48
311.00 23.97
312.00 22.86
313.00 22.12
314.00 21.72
315.00 21.65
316.00 21.92
317.00 22.54
318.00 23.55
319.00 25.04
320.00 27.16
321.00 30.08
322.00 33.45
323.00 33.87
324.00 30.80
325.00 28.03
326.00 26.21
327.00 25.23
328.00 24.99
329.00 25.52
330.00 26.91
331.00 29.37
332.00 32.94
333.00 34.82
334.00 32.04
335.00 29.36
336.00 28.05
337.00 28.07
338.00 29.60
339.00 33.69
340.00 46.79
341.00 34.86
342.00 28.11
343.00 24.59
344.00 22.57
345.00 21.58
346.00 21.49
347.00 22.33
348.00 24.38
349.00 28.29
350.00 33.55
351.00 29.48
352.00 24.97
353.00 22.78
354.00 22.45
355.00 24.37
356.00 30.46
357.00 25.76
358.00 17.54
359.00 12.49
