NAME ATR4518R7_0832_X_CO_P45_02T
FREQUENCY 0832
GAIN 14.37 dBd
TILT	ELECTRICAL
COMMENT DATE 05.08.2013 +45 degrees polarized system Lever position 02T deg
HORIZONTAL 360
0.00 0.00
1.00 0.00
2.00 0.01
3.00 0.02
4.00 0.04
5.00 0.07
6.00 0.10
7.00 0.13
8.00 0.17
9.00 0.22
10.00 0.27
11.00 0.33
12.00 0.40
13.00 0.47
14.00 0.54
15.00 0.62
16.00 0.71
17.00 0.80
18.00 0.90
19.00 1.00
20.00 1.11
21.00 1.23
22.00 1.35
23.00 1.48
24.00 1.61
25.00 1.75
26.00 1.89
27.00 2.04
28.00 2.19
29.00 2.35
30.00 2.52
31.00 2.69
32.00 2.86
33.00 3.04
34.00 3.23
35.00 3.42
36.00 3.62
37.00 3.82
38.00 4.03
39.00 4.24
40.00 4.46
41.00 4.69
42.00 4.92
43.00 5.15
44.00 5.39
45.00 5.63
46.00 5.88
47.00 6.14
48.00 6.40
49.00 6.66
50.00 6.93
51.00 7.21
52.00 7.48
53.00 7.76
54.00 8.05
55.00 8.34
56.00 8.64
57.00 8.94
58.00 9.24
59.00 9.55
60.00 9.86
61.00 10.18
62.00 10.50
63.00 10.82
64.00 11.14
65.00 11.47
66.00 11.81
67.00 12.14
68.00 12.48
69.00 12.82
70.00 13.16
71.00 13.51
72.00 13.86
73.00 14.21
74.00 14.56
75.00 14.91
76.00 15.26
77.00 15.62
78.00 15.98
79.00 16.34
80.00 16.70
81.00 17.07
82.00 17.43
83.00 17.80
84.00 18.16
85.00 18.53
86.00 18.90
87.00 19.27
88.00 19.65
89.00 20.02
90.00 20.39
91.00 20.77
92.00 21.15
93.00 21.53
94.00 21.91
95.00 22.29
96.00 22.67
97.00 23.05
98.00 23.44
99.00 23.82
100.00 24.20
101.00 24.59
102.00 24.97
103.00 25.35
104.00 25.73
105.00 26.10
106.00 26.47
107.00 26.84
108.00 27.21
109.00 27.56
110.00 27.91
111.00 28.25
112.00 28.58
113.00 28.90
114.00 29.21
115.00 29.50
116.00 29.78
117.00 30.06
118.00 30.31
119.00 30.56
120.00 30.79
121.00 31.01
122.00 31.22
123.00 31.42
124.00 31.60
125.00 31.78
126.00 31.96
127.00 32.12
128.00 32.29
129.00 32.45
130.00 32.61
131.00 32.77
132.00 32.93
133.00 33.09
134.00 33.26
135.00 33.43
136.00 33.61
137.00 33.79
138.00 33.98
139.00 34.17
140.00 34.37
141.00 34.58
142.00 34.80
143.00 35.03
144.00 35.26
145.00 35.51
146.00 35.76
147.00 36.01
148.00 36.28
149.00 36.56
150.00 36.84
151.00 37.13
152.00 37.43
153.00 37.74
154.00 38.05
155.00 38.37
156.00 38.71
157.00 39.04
158.00 39.39
159.00 39.74
160.00 40.09
161.00 40.47
162.00 40.86
163.00 41.25
164.00 41.66
165.00 42.07
166.00 42.48
167.00 42.90
168.00 43.35
169.00 43.77
170.00 44.21
171.00 44.63
172.00 45.04
173.00 45.43
174.00 45.75
175.00 46.00
176.00 46.18
177.00 46.24
178.00 46.18
179.00 46.03
180.00 45.75
181.00 45.39
182.00 44.94
183.00 44.48
184.00 43.96
185.00 43.42
186.00 42.89
187.00 42.34
188.00 41.82
189.00 41.32
190.00 40.83
191.00 40.36
192.00 39.91
193.00 39.50
194.00 39.09
195.00 38.72
196.00 38.36
197.00 38.03
198.00 37.71
199.00 37.42
200.00 37.15
201.00 36.89
202.00 36.65
203.00 36.43
204.00 36.22
205.00 36.04
206.00 35.86
207.00 35.71
208.00 35.56
209.00 35.43
210.00 35.32
211.00 35.21
212.00 35.12
213.00 35.04
214.00 34.96
215.00 34.90
216.00 34.85
217.00 34.81
218.00 34.77
219.00 34.74
220.00 34.72
221.00 34.70
222.00 34.68
223.00 34.66
224.00 34.65
225.00 34.63
226.00 34.61
227.00 34.58
228.00 34.53
229.00 34.48
230.00 34.41
231.00 34.32
232.00 34.21
233.00 34.07
234.00 33.90
235.00 33.70
236.00 33.46
237.00 33.19
238.00 32.89
239.00 32.54
240.00 32.18
241.00 31.78
242.00 31.36
243.00 30.92
244.00 30.46
245.00 29.99
246.00 29.51
247.00 29.02
248.00 28.52
249.00 28.02
250.00 27.53
251.00 27.03
252.00 26.54
253.00 26.06
254.00 25.58
255.00 25.10
256.00 24.64
257.00 24.18
258.00 23.73
259.00 23.29
260.00 22.86
261.00 22.43
262.00 22.02
263.00 21.61
264.00 21.22
265.00 20.83
266.00 20.45
267.00 20.07
268.00 19.71
269.00 19.35
270.00 19.00
271.00 18.65
272.00 18.32
273.00 17.98
274.00 17.66
275.00 17.33
276.00 17.02
277.00 16.70
278.00 16.39
279.00 16.09
280.00 15.78
281.00 15.49
282.00 15.19
283.00 14.89
284.00 14.60
285.00 14.30
286.00 14.01
287.00 13.72
288.00 13.43
289.00 13.15
290.00 12.85
291.00 12.57
292.00 12.28
293.00 11.99
294.00 11.70
295.00 11.41
296.00 11.12
297.00 10.83
298.00 10.54
299.00 10.25
300.00 9.97
301.00 9.68
302.00 9.40
303.00 9.11
304.00 8.83
305.00 8.55
306.00 8.27
307.00 7.99
308.00 7.71
309.00 7.44
310.00 7.17
311.00 6.91
312.00 6.65
313.00 6.39
314.00 6.13
315.00 5.88
316.00 5.63
317.00 5.39
318.00 5.15
319.00 4.91
320.00 4.68
321.00 4.46
322.00 4.24
323.00 4.02
324.00 3.81
325.00 3.61
326.00 3.40
327.00 3.21
328.00 3.02
329.00 2.84
330.00 2.66
331.00 2.49
332.00 2.32
333.00 2.16
334.00 2.00
335.00 1.85
336.00 1.71
337.00 1.57
338.00 1.44
339.00 1.31
340.00 1.19
341.00 1.08
342.00 0.97
343.00 0.87
344.00 0.77
345.00 0.68
346.00 0.59
347.00 0.51
348.00 0.44
349.00 0.37
350.00 0.31
351.00 0.25
352.00 0.20
353.00 0.15
354.00 0.11
355.00 0.08
356.00 0.05
357.00 0.03
358.00 0.02
359.00 0.01
VERTICAL 360
0.00 0.75
1.00 0.21
2.00 0.00
3.00 0.13
4.00 0.61
5.00 1.44
6.00 2.66
7.00 4.33
8.00 6.53
9.00 9.44
10.00 13.46
11.00 19.61
12.00 33.05
13.00 26.59
14.00 21.75
15.00 20.63
16.00 21.59
17.00 24.74
18.00 32.12
19.00 32.81
20.00 24.92
21.00 21.32
22.00 19.53
23.00 18.85
24.00 19.02
25.00 19.94
26.00 21.61
27.00 23.94
28.00 26.33
29.00 27.14
30.00 26.28
31.00 25.48
32.00 25.59
33.00 26.97
34.00 30.28
35.00 36.57
36.00 32.68
37.00 26.22
38.00 22.23
39.00 19.50
40.00 17.54
41.00 16.15
42.00 15.24
43.00 14.76
44.00 14.70
45.00 15.03
46.00 15.71
47.00 16.71
48.00 17.92
49.00 19.25
50.00 20.61
51.00 22.00
52.00 23.51
53.00 25.34
54.00 27.69
55.00 30.63
56.00 33.54
57.00 34.84
58.00 34.64
59.00 34.64
60.00 35.31
61.00 36.16
62.00 36.24
63.00 35.22
64.00 33.80
65.00 32.66
66.00 32.09
67.00 32.21
68.00 32.75
69.00 33.07
70.00 32.58
71.00 31.67
72.00 30.92
73.00 30.47
74.00 30.23
75.00 30.16
76.00 30.30
77.00 30.47
78.00 30.18
79.00 29.19
80.00 28.02
81.00 27.19
82.00 26.90
83.00 27.12
84.00 27.75
85.00 28.62
86.00 29.45
87.00 29.85
88.00 29.68
89.00 29.26
90.00 28.96
91.00 28.78
92.00 28.48
93.00 27.98
94.00 27.50
95.00 27.37
96.00 27.74
97.00 28.59
98.00 29.72
99.00 30.80
100.00 31.45
101.00 31.56
102.00 31.36
103.00 31.24
104.00 31.47
105.00 32.17
106.00 33.31
107.00 34.67
108.00 35.92
109.00 36.68
110.00 36.72
111.00 36.21
112.00 35.64
113.00 35.37
114.00 35.52
115.00 36.04
116.00 36.81
117.00 37.74
118.00 38.67
119.00 39.25
120.00 39.23
121.00 38.93
122.00 38.98
123.00 39.79
124.00 41.67
125.00 45.10
126.00 50.69
127.00 50.25
128.00 44.45
129.00 40.63
130.00 37.98
131.00 35.90
132.00 34.11
133.00 32.52
134.00 31.16
135.00 30.10
136.00 29.44
137.00 29.25
138.00 29.59
139.00 30.57
140.00 32.33
141.00 35.14
142.00 39.47
143.00 43.69
144.00 40.51
145.00 36.66
146.00 34.26
147.00 32.81
148.00 32.03
149.00 31.74
150.00 31.88
151.00 32.37
152.00 33.16
153.00 34.20
154.00 35.50
155.00 37.15
156.00 39.35
157.00 42.38
158.00 46.30
159.00 49.01
160.00 47.66
161.00 45.78
162.00 44.81
163.00 44.56
164.00 44.83
165.00 45.67
166.00 47.59
167.00 52.23
168.00 71.13
169.00 49.73
170.00 43.44
171.00 39.99
172.00 37.98
173.00 36.96
174.00 36.66
175.00 38.46
176.00 40.48
177.00 42.81
178.00 45.58
179.00 46.23
180.00 47.55
181.00 47.68
182.00 46.51
183.00 45.03
184.00 45.10
185.00 47.30
186.00 51.79
187.00 50.03
188.00 44.59
189.00 41.11
190.00 38.74
191.00 36.94
192.00 35.51
193.00 34.46
194.00 33.84
195.00 33.67
196.00 33.96
197.00 34.71
198.00 35.94
199.00 37.66
200.00 39.72
201.00 41.72
202.00 42.82
203.00 42.34
204.00 40.78
205.00 39.31
206.00 38.64
207.00 39.20
208.00 41.53
209.00 47.33
210.00 66.49
211.00 46.11
212.00 41.53
213.00 39.58
214.00 38.75
215.00 38.31
216.00 37.81
217.00 37.13
218.00 36.34
219.00 35.51
220.00 34.63
221.00 33.67
222.00 32.77
223.00 32.10
224.00 31.83
225.00 32.04
226.00 32.71
227.00 33.69
228.00 34.70
229.00 35.44
230.00 35.81
231.00 35.98
232.00 36.20
233.00 36.51
234.00 36.51
235.00 35.66
236.00 34.17
237.00 32.78
238.00 31.89
239.00 31.55
240.00 31.65
241.00 32.03
242.00 32.53
243.00 33.03
244.00 33.43
245.00 33.57
246.00 33.51
247.00 33.48
248.00 33.72
249.00 34.30
250.00 35.16
251.00 36.04
252.00 36.60
253.00 36.68
254.00 36.44
255.00 36.24
256.00 36.39
257.00 37.03
258.00 38.16
259.00 39.58
260.00 40.90
261.00 41.67
262.00 41.70
263.00 41.25
264.00 40.83
265.00 40.82
266.00 41.32
267.00 41.94
268.00 41.93
269.00 41.21
270.00 40.48
271.00 40.21
272.00 40.48
273.00 41.12
274.00 41.80
275.00 42.01
276.00 41.18
277.00 39.39
278.00 37.38
279.00 35.70
280.00 34.54
281.00 33.93
282.00 33.85
283.00 34.25
284.00 35.08
285.00 36.31
286.00 37.87
287.00 39.65
288.00 41.30
289.00 42.18
290.00 41.77
291.00 40.43
292.00 38.86
293.00 37.50
294.00 36.59
295.00 36.25
296.00 36.55
297.00 37.39
298.00 38.12
299.00 37.29
300.00 34.77
301.00 31.90
302.00 29.26
303.00 26.91
304.00 24.76
305.00 22.78
306.00 20.97
307.00 19.36
308.00 17.99
309.00 16.89
310.00 16.08
311.00 15.55
312.00 15.31
313.00 15.34
314.00 15.62
315.00 16.12
316.00 16.82
317.00 17.68
318.00 18.71
319.00 19.93
320.00 21.41
321.00 23.25
322.00 25.56
323.00 28.46
324.00 31.87
325.00 35.06
326.00 36.94
327.00 38.54
328.00 42.39
329.00 58.30
330.00 43.89
331.00 37.33
332.00 34.14
333.00 32.09
334.00 30.28
335.00 28.39
336.00 26.56
337.00 25.04
338.00 23.95
339.00 23.36
340.00 23.29
341.00 23.84
342.00 25.18
343.00 27.75
344.00 32.57
345.00 36.71
346.00 30.10
347.00 25.88
348.00 23.91
349.00 23.79
350.00 26.17
351.00 35.62
352.00 26.63
353.00 18.09
354.00 13.03
355.00 9.43
356.00 6.69
357.00 4.55
358.00 2.89
359.00 1.63
