NAME ATR4518R7_0832_X_CO_P45_10T
FREQUENCY 0832
GAIN 14.35 dBd
TILT	ELECTRICAL
COMMENT DATE 05.08.2013 +45 degrees polarized system Lever position 10T deg
HORIZONTAL 360
0.00 0.00
1.00 0.01
2.00 0.02
3.00 0.04
4.00 0.06
5.00 0.09
6.00 0.13
7.00 0.17
8.00 0.21
9.00 0.26
10.00 0.32
11.00 0.38
12.00 0.44
13.00 0.51
14.00 0.59
15.00 0.67
16.00 0.76
17.00 0.85
18.00 0.95
19.00 1.05
20.00 1.16
21.00 1.27
22.00 1.39
23.00 1.51
24.00 1.64
25.00 1.78
26.00 1.91
27.00 2.06
28.00 2.21
29.00 2.36
30.00 2.52
31.00 2.68
32.00 2.85
33.00 3.02
34.00 3.20
35.00 3.39
36.00 3.58
37.00 3.77
38.00 3.97
39.00 4.17
40.00 4.38
41.00 4.59
42.00 4.81
43.00 5.03
44.00 5.26
45.00 5.49
46.00 5.73
47.00 5.97
48.00 6.22
49.00 6.47
50.00 6.73
51.00 6.99
52.00 7.25
53.00 7.52
54.00 7.80
55.00 8.08
56.00 8.36
57.00 8.65
58.00 8.94
59.00 9.24
60.00 9.55
61.00 9.85
62.00 10.16
63.00 10.48
64.00 10.80
65.00 11.13
66.00 11.46
67.00 11.79
68.00 12.13
69.00 12.48
70.00 12.83
71.00 13.17
72.00 13.53
73.00 13.90
74.00 14.26
75.00 14.63
76.00 15.00
77.00 15.38
78.00 15.76
79.00 16.15
80.00 16.54
81.00 16.93
82.00 17.32
83.00 17.72
84.00 18.12
85.00 18.53
86.00 18.93
87.00 19.34
88.00 19.74
89.00 20.15
90.00 20.56
91.00 20.96
92.00 21.36
93.00 21.75
94.00 22.14
95.00 22.52
96.00 22.89
97.00 23.25
98.00 23.60
99.00 23.93
100.00 24.24
101.00 24.53
102.00 24.80
103.00 25.05
104.00 25.28
105.00 25.47
106.00 25.65
107.00 25.79
108.00 25.92
109.00 26.02
110.00 26.11
111.00 26.17
112.00 26.21
113.00 26.24
114.00 26.26
115.00 26.27
116.00 26.27
117.00 26.27
118.00 26.26
119.00 26.25
120.00 26.24
121.00 26.23
122.00 26.22
123.00 26.22
124.00 26.22
125.00 26.22
126.00 26.23
127.00 26.25
128.00 26.27
129.00 26.29
130.00 26.33
131.00 26.36
132.00 26.41
133.00 26.46
134.00 26.52
135.00 26.58
136.00 26.65
137.00 26.72
138.00 26.80
139.00 26.88
140.00 26.96
141.00 27.05
142.00 27.14
143.00 27.22
144.00 27.32
145.00 27.41
146.00 27.49
147.00 27.58
148.00 27.67
149.00 27.75
150.00 27.83
151.00 27.91
152.00 27.98
153.00 28.05
154.00 28.12
155.00 28.18
156.00 28.24
157.00 28.29
158.00 28.34
159.00 28.39
160.00 28.44
161.00 28.49
162.00 28.53
163.00 28.58
164.00 28.62
165.00 28.67
166.00 28.72
167.00 28.77
168.00 28.82
169.00 28.88
170.00 28.94
171.00 29.01
172.00 29.08
173.00 29.15
174.00 29.24
175.00 29.33
176.00 29.42
177.00 29.52
178.00 29.63
179.00 29.75
180.00 29.87
181.00 30.00
182.00 30.13
183.00 30.27
184.00 30.42
185.00 30.57
186.00 30.73
187.00 30.90
188.00 31.06
189.00 31.23
190.00 31.41
191.00 31.59
192.00 31.77
193.00 31.95
194.00 32.13
195.00 32.32
196.00 32.50
197.00 32.68
198.00 32.87
199.00 33.05
200.00 33.23
201.00 33.41
202.00 33.59
203.00 33.77
204.00 33.94
205.00 34.12
206.00 34.29
207.00 34.47
208.00 34.64
209.00 34.81
210.00 34.98
211.00 35.15
212.00 35.32
213.00 35.49
214.00 35.64
215.00 35.80
216.00 35.95
217.00 36.08
218.00 36.21
219.00 36.31
220.00 36.40
221.00 36.45
222.00 36.48
223.00 36.47
224.00 36.42
225.00 36.33
226.00 36.19
227.00 36.01
228.00 35.78
229.00 35.51
230.00 35.20
231.00 34.85
232.00 34.47
233.00 34.06
234.00 33.63
235.00 33.18
236.00 32.72
237.00 32.25
238.00 31.77
239.00 31.29
240.00 30.80
241.00 30.32
242.00 29.83
243.00 29.35
244.00 28.88
245.00 28.40
246.00 27.93
247.00 27.47
248.00 27.02
249.00 26.56
250.00 26.12
251.00 25.68
252.00 25.25
253.00 24.82
254.00 24.40
255.00 23.99
256.00 23.59
257.00 23.19
258.00 22.79
259.00 22.41
260.00 22.03
261.00 21.65
262.00 21.29
263.00 20.92
264.00 20.57
265.00 20.22
266.00 19.87
267.00 19.53
268.00 19.19
269.00 18.86
270.00 18.53
271.00 18.21
272.00 17.89
273.00 17.58
274.00 17.26
275.00 16.95
276.00 16.65
277.00 16.34
278.00 16.04
279.00 15.74
280.00 15.44
281.00 15.14
282.00 14.84
283.00 14.55
284.00 14.25
285.00 13.96
286.00 13.66
287.00 13.37
288.00 13.07
289.00 12.78
290.00 12.48
291.00 12.19
292.00 11.89
293.00 11.60
294.00 11.31
295.00 11.01
296.00 10.72
297.00 10.42
298.00 10.13
299.00 9.84
300.00 9.55
301.00 9.27
302.00 8.98
303.00 8.69
304.00 8.41
305.00 8.13
306.00 7.85
307.00 7.58
308.00 7.31
309.00 7.04
310.00 6.77
311.00 6.51
312.00 6.26
313.00 6.00
314.00 5.75
315.00 5.51
316.00 5.27
317.00 5.03
318.00 4.80
319.00 4.57
320.00 4.35
321.00 4.13
322.00 3.92
323.00 3.72
324.00 3.51
325.00 3.32
326.00 3.13
327.00 2.94
328.00 2.76
329.00 2.59
330.00 2.42
331.00 2.26
332.00 2.10
333.00 1.95
334.00 1.80
335.00 1.66
336.00 1.53
337.00 1.40
338.00 1.27
339.00 1.16
340.00 1.05
341.00 0.94
342.00 0.84
343.00 0.75
344.00 0.66
345.00 0.57
346.00 0.50
347.00 0.42
348.00 0.36
349.00 0.30
350.00 0.24
351.00 0.19
352.00 0.15
353.00 0.11
354.00 0.08
355.00 0.05
356.00 0.03
357.00 0.02
358.00 0.01
359.00 0.00
VERTICAL 360
0.00 23.92
1.00 16.75
2.00 12.10
3.00 8.70
4.00 6.09
5.00 4.07
6.00 2.53
7.00 1.39
8.00 0.61
9.00 0.15
10.00 0.00
11.00 0.16
12.00 0.63
13.00 1.41
14.00 2.54
15.00 4.06
16.00 6.04
17.00 8.61
18.00 12.00
19.00 16.78
20.00 24.78
21.00 41.54
22.00 25.84
23.00 22.74
24.00 22.29
25.00 23.47
26.00 26.27
27.00 31.53
28.00 39.76
29.00 33.00
30.00 28.43
31.00 26.24
32.00 25.32
33.00 25.30
34.00 26.08
35.00 27.64
36.00 29.95
37.00 32.36
38.00 32.82
39.00 31.31
40.00 29.93
41.00 29.46
42.00 30.03
43.00 31.79
44.00 35.15
45.00 39.97
46.00 38.22
47.00 33.33
48.00 30.08
49.00 27.94
50.00 26.51
51.00 25.63
52.00 25.22
53.00 25.26
54.00 25.75
55.00 26.69
56.00 28.07
57.00 29.84
58.00 31.88
59.00 34.08
60.00 36.35
61.00 38.80
62.00 41.42
63.00 42.45
64.00 40.05
65.00 37.00
66.00 34.77
67.00 33.47
68.00 33.04
69.00 33.40
70.00 34.45
71.00 36.02
72.00 37.61
73.00 38.59
74.00 38.69
75.00 38.41
76.00 38.38
77.00 39.15
78.00 41.38
79.00 46.00
80.00 46.31
81.00 39.95
82.00 35.95
83.00 33.53
84.00 32.08
85.00 31.21
86.00 30.66
87.00 30.24
88.00 29.79
89.00 29.26
90.00 28.67
91.00 28.10
92.00 27.64
93.00 27.36
94.00 27.31
95.00 27.52
96.00 27.98
97.00 28.71
98.00 29.70
99.00 30.92
100.00 32.33
101.00 33.85
102.00 35.37
103.00 36.81
104.00 38.24
105.00 39.71
106.00 41.01
107.00 41.45
108.00 40.59
109.00 39.06
110.00 37.59
111.00 36.49
112.00 35.89
113.00 35.82
114.00 36.29
115.00 37.23
116.00 38.42
117.00 39.43
118.00 39.77
119.00 39.37
120.00 38.58
121.00 37.74
122.00 36.95
123.00 36.16
124.00 35.32
125.00 34.44
126.00 33.60
127.00 32.94
128.00 32.50
129.00 32.30
130.00 32.30
131.00 32.44
132.00 32.61
133.00 32.71
134.00 32.69
135.00 32.49
136.00 32.16
137.00 31.75
138.00 31.30
139.00 30.82
140.00 30.35
141.00 29.88
142.00 29.45
143.00 29.09
144.00 28.81
145.00 28.62
146.00 28.50
147.00 28.47
148.00 28.50
149.00 28.60
150.00 28.80
151.00 29.14
152.00 29.69
153.00 30.50
154.00 31.61
155.00 33.05
156.00 34.80
157.00 36.70
158.00 38.38
159.00 39.34
160.00 39.63
161.00 39.74
162.00 39.66
163.00 38.67
164.00 36.67
165.00 34.48
166.00 32.68
167.00 31.38
168.00 30.53
169.00 30.04
170.00 29.81
171.00 29.69
172.00 29.80
173.00 30.18
174.00 30.92
175.00 32.16
176.00 34.05
177.00 36.79
178.00 40.50
179.00 44.63
180.00 46.54
181.00 46.05
182.00 45.06
183.00 43.23
184.00 40.75
185.00 38.48
186.00 36.74
187.00 35.53
188.00 34.72
189.00 34.24
190.00 34.05
191.00 34.13
192.00 34.52
193.00 35.17
194.00 35.96
195.00 36.67
196.00 37.08
197.00 37.27
198.00 37.55
199.00 38.26
200.00 39.72
201.00 42.34
202.00 47.22
203.00 54.44
204.00 46.21
205.00 40.68
206.00 37.29
207.00 34.97
208.00 33.31
209.00 32.09
210.00 31.20
211.00 30.59
212.00 30.23
213.00 30.13
214.00 30.31
215.00 30.78
216.00 31.56
217.00 32.64
218.00 34.03
219.00 35.76
220.00 37.88
221.00 40.46
222.00 43.41
223.00 45.39
224.00 44.03
225.00 40.96
226.00 38.12
227.00 35.83
228.00 34.08
229.00 32.83
230.00 32.03
231.00 31.63
232.00 31.54
233.00 31.65
234.00 31.83
235.00 31.92
236.00 31.82
237.00 31.55
238.00 31.25
239.00 31.06
240.00 31.07
241.00 31.27
242.00 31.54
243.00 31.69
244.00 31.55
245.00 31.04
246.00 30.31
247.00 29.56
248.00 28.96
249.00 28.60
250.00 28.48
251.00 28.54
252.00 28.68
253.00 28.80
254.00 28.82
255.00 28.74
256.00 28.63
257.00 28.57
258.00 28.63
259.00 28.82
260.00 29.10
261.00 29.38
262.00 29.53
263.00 29.52
264.00 29.36
265.00 29.19
266.00 29.17
267.00 29.39
268.00 29.91
269.00 30.70
270.00 31.62
271.00 32.49
272.00 33.10
273.00 33.36
274.00 33.39
275.00 33.44
276.00 33.71
277.00 34.30
278.00 35.15
279.00 36.00
280.00 36.48
281.00 36.48
282.00 36.25
283.00 36.05
284.00 36.01
285.00 36.11
286.00 36.24
287.00 36.20
288.00 35.86
289.00 35.30
290.00 34.77
291.00 34.49
292.00 34.58
293.00 35.08
294.00 36.01
295.00 37.36
296.00 39.12
297.00 41.34
298.00 43.89
299.00 45.51
300.00 43.87
301.00 40.68
302.00 37.85
303.00 35.72
304.00 34.22
305.00 33.30
306.00 32.91
307.00 33.01
308.00 33.60
309.00 34.63
310.00 35.87
311.00 36.48
312.00 35.30
313.00 32.83
314.00 30.27
315.00 28.07
316.00 26.33
317.00 25.04
318.00 24.20
319.00 23.79
320.00 23.87
321.00 24.47
322.00 25.75
323.00 27.89
324.00 30.94
325.00 32.27
326.00 28.86
327.00 25.17
328.00 22.49
329.00 20.65
330.00 19.49
331.00 18.90
332.00 18.85
333.00 19.36
334.00 20.51
335.00 22.47
336.00 25.69
337.00 31.33
338.00 39.05
339.00 31.25
340.00 26.83
341.00 24.77
342.00 24.10
343.00 24.61
344.00 26.40
345.00 29.91
346.00 34.72
347.00 32.17
348.00 27.83
349.00 25.48
350.00 24.68
351.00 25.28
352.00 27.55
353.00 32.76
354.00 40.05
355.00 31.42
356.00 27.50
357.00 26.78
358.00 29.71
359.00 38.92
