NAME ATR4518R7_0806_X_CO_P45_07T
FREQUENCY 0806
GAIN 14.26 dBd
TILT	ELECTRICAL
COMMENT DATE 05.08.2013 +45 degrees polarized system Lever position 07T deg
HORIZONTAL 360
0.00 0.00
1.00 0.01
2.00 0.01
3.00 0.03
4.00 0.05
5.00 0.07
6.00 0.10
7.00 0.13
8.00 0.17
9.00 0.22
10.00 0.27
11.00 0.33
12.00 0.39
13.00 0.46
14.00 0.53
15.00 0.60
16.00 0.69
17.00 0.78
18.00 0.87
19.00 0.97
20.00 1.07
21.00 1.18
22.00 1.30
23.00 1.42
24.00 1.54
25.00 1.67
26.00 1.81
27.00 1.95
28.00 2.10
29.00 2.25
30.00 2.40
31.00 2.57
32.00 2.73
33.00 2.90
34.00 3.08
35.00 3.26
36.00 3.45
37.00 3.64
38.00 3.83
39.00 4.03
40.00 4.24
41.00 4.45
42.00 4.66
43.00 4.88
44.00 5.11
45.00 5.33
46.00 5.57
47.00 5.80
48.00 6.04
49.00 6.29
50.00 6.54
51.00 6.80
52.00 7.05
53.00 7.32
54.00 7.58
55.00 7.86
56.00 8.13
57.00 8.41
58.00 8.69
59.00 8.98
60.00 9.26
61.00 9.56
62.00 9.85
63.00 10.15
64.00 10.46
65.00 10.77
66.00 11.08
67.00 11.39
68.00 11.71
69.00 12.03
70.00 12.36
71.00 12.69
72.00 13.02
73.00 13.36
74.00 13.70
75.00 14.04
76.00 14.39
77.00 14.75
78.00 15.11
79.00 15.47
80.00 15.84
81.00 16.21
82.00 16.59
83.00 16.97
84.00 17.36
85.00 17.76
86.00 18.16
87.00 18.57
88.00 18.98
89.00 19.41
90.00 19.84
91.00 20.27
92.00 20.72
93.00 21.17
94.00 21.62
95.00 22.09
96.00 22.55
97.00 23.03
98.00 23.50
99.00 23.98
100.00 24.45
101.00 24.92
102.00 25.38
103.00 25.83
104.00 26.26
105.00 26.67
106.00 27.05
107.00 27.40
108.00 27.71
109.00 27.97
110.00 28.18
111.00 28.34
112.00 28.45
113.00 28.52
114.00 28.54
115.00 28.53
116.00 28.48
117.00 28.40
118.00 28.31
119.00 28.20
120.00 28.08
121.00 27.96
122.00 27.84
123.00 27.72
124.00 27.60
125.00 27.49
126.00 27.39
127.00 27.30
128.00 27.23
129.00 27.16
130.00 27.11
131.00 27.07
132.00 27.04
133.00 27.02
134.00 27.02
135.00 27.03
136.00 27.06
137.00 27.10
138.00 27.15
139.00 27.22
140.00 27.29
141.00 27.39
142.00 27.50
143.00 27.62
144.00 27.75
145.00 27.90
146.00 28.06
147.00 28.24
148.00 28.43
149.00 28.63
150.00 28.85
151.00 29.08
152.00 29.33
153.00 29.60
154.00 29.88
155.00 30.18
156.00 30.49
157.00 30.82
158.00 31.17
159.00 31.53
160.00 31.92
161.00 32.33
162.00 32.75
163.00 33.21
164.00 33.68
165.00 34.18
166.00 34.71
167.00 35.26
168.00 35.84
169.00 36.45
170.00 37.10
171.00 37.77
172.00 38.47
173.00 39.21
174.00 39.95
175.00 40.69
176.00 41.42
177.00 42.10
178.00 42.67
179.00 43.12
180.00 43.37
181.00 43.41
182.00 43.25
183.00 42.92
184.00 42.46
185.00 41.93
186.00 41.36
187.00 40.78
188.00 40.22
189.00 39.67
190.00 39.16
191.00 38.67
192.00 38.22
193.00 37.80
194.00 37.41
195.00 37.05
196.00 36.73
197.00 36.43
198.00 36.16
199.00 35.91
200.00 35.69
201.00 35.50
202.00 35.32
203.00 35.17
204.00 35.05
205.00 34.94
206.00 34.86
207.00 34.79
208.00 34.74
209.00 34.71
210.00 34.71
211.00 34.72
212.00 34.75
213.00 34.79
214.00 34.86
215.00 34.94
216.00 35.04
217.00 35.16
218.00 35.29
219.00 35.44
220.00 35.60
221.00 35.78
222.00 35.97
223.00 36.16
224.00 36.36
225.00 36.55
226.00 36.75
227.00 36.92
228.00 37.07
229.00 37.19
230.00 37.26
231.00 37.27
232.00 37.21
233.00 37.07
234.00 36.85
235.00 36.54
236.00 36.17
237.00 35.73
238.00 35.23
239.00 34.68
240.00 34.10
241.00 33.50
242.00 32.89
243.00 32.27
244.00 31.65
245.00 31.03
246.00 30.41
247.00 29.81
248.00 29.22
249.00 28.64
250.00 28.07
251.00 27.51
252.00 26.96
253.00 26.43
254.00 25.91
255.00 25.40
256.00 24.90
257.00 24.42
258.00 23.94
259.00 23.48
260.00 23.03
261.00 22.58
262.00 22.15
263.00 21.73
264.00 21.31
265.00 20.91
266.00 20.51
267.00 20.12
268.00 19.74
269.00 19.36
270.00 18.99
271.00 18.63
272.00 18.27
273.00 17.92
274.00 17.58
275.00 17.24
276.00 16.90
277.00 16.57
278.00 16.24
279.00 15.92
280.00 15.59
281.00 15.27
282.00 14.96
283.00 14.65
284.00 14.33
285.00 14.03
286.00 13.72
287.00 13.41
288.00 13.11
289.00 12.81
290.00 12.50
291.00 12.21
292.00 11.91
293.00 11.61
294.00 11.31
295.00 11.02
296.00 10.72
297.00 10.43
298.00 10.14
299.00 9.85
300.00 9.57
301.00 9.28
302.00 9.00
303.00 8.72
304.00 8.44
305.00 8.16
306.00 7.89
307.00 7.62
308.00 7.36
309.00 7.09
310.00 6.83
311.00 6.57
312.00 6.32
313.00 6.07
314.00 5.82
315.00 5.58
316.00 5.35
317.00 5.11
318.00 4.88
319.00 4.66
320.00 4.44
321.00 4.23
322.00 4.02
323.00 3.81
324.00 3.61
325.00 3.42
326.00 3.23
327.00 3.04
328.00 2.86
329.00 2.69
330.00 2.52
331.00 2.35
332.00 2.20
333.00 2.04
334.00 1.90
335.00 1.75
336.00 1.62
337.00 1.49
338.00 1.36
339.00 1.24
340.00 1.13
341.00 1.02
342.00 0.91
343.00 0.82
344.00 0.72
345.00 0.64
346.00 0.56
347.00 0.48
348.00 0.41
349.00 0.35
350.00 0.29
351.00 0.23
352.00 0.19
353.00 0.14
354.00 0.11
355.00 0.08
356.00 0.05
357.00 0.03
358.00 0.02
359.00 0.01
VERTICAL 360
0.00 8.08
1.00 5.64
2.00 3.74
3.00 2.29
4.00 1.23
5.00 0.50
6.00 0.10
7.00 0.00
8.00 0.22
9.00 0.74
10.00 1.59
11.00 2.80
12.00 4.41
13.00 6.51
14.00 9.23
15.00 12.85
16.00 18.01
17.00 27.05
18.00 32.95
19.00 24.73
20.00 22.48
21.00 22.54
22.00 24.38
23.00 28.56
24.00 36.18
25.00 30.67
26.00 25.26
27.00 22.46
28.00 21.03
29.00 20.55
30.00 20.84
31.00 21.84
32.00 23.59
33.00 26.18
34.00 29.68
35.00 33.39
36.00 34.06
37.00 32.18
38.00 30.75
39.00 30.22
40.00 30.48
41.00 31.41
42.00 32.68
43.00 33.31
44.00 32.04
45.00 29.61
46.00 27.26
47.00 25.36
48.00 23.97
49.00 23.02
50.00 22.48
51.00 22.32
52.00 22.51
53.00 23.03
54.00 23.91
55.00 25.13
56.00 26.73
57.00 28.75
58.00 31.20
59.00 34.06
60.00 37.00
61.00 38.84
62.00 38.49
63.00 36.94
64.00 35.30
65.00 33.82
66.00 32.56
67.00 31.56
68.00 30.88
69.00 30.57
70.00 30.66
71.00 31.13
72.00 31.96
73.00 33.11
74.00 34.53
75.00 35.96
76.00 36.80
77.00 36.62
78.00 35.92
79.00 35.42
80.00 35.39
81.00 35.64
82.00 35.55
83.00 34.47
84.00 32.63
85.00 30.72
86.00 29.13
87.00 28.00
88.00 27.37
89.00 27.21
90.00 27.51
91.00 28.20
92.00 29.21
93.00 30.41
94.00 31.66
95.00 32.83
96.00 33.88
97.00 34.86
98.00 35.87
99.00 37.02
100.00 38.28
101.00 39.52
102.00 40.59
103.00 41.50
104.00 42.34
105.00 43.12
106.00 43.73
107.00 43.97
108.00 43.53
109.00 42.31
110.00 40.78
111.00 39.55
112.00 38.97
113.00 39.15
114.00 40.08
115.00 41.71
116.00 43.89
117.00 46.49
118.00 49.54
119.00 53.35
120.00 56.29
121.00 53.06
122.00 48.43
123.00 44.68
124.00 41.74
125.00 39.55
126.00 38.05
127.00 37.19
128.00 36.95
129.00 37.29
130.00 38.23
131.00 39.81
132.00 42.07
133.00 44.59
134.00 45.16
135.00 42.76
136.00 39.91
137.00 37.61
138.00 35.88
139.00 34.64
140.00 33.85
141.00 33.46
142.00 33.46
143.00 33.88
144.00 34.73
145.00 35.96
146.00 37.28
147.00 37.80
148.00 36.85
149.00 35.17
150.00 33.64
151.00 32.59
152.00 32.09
153.00 32.13
154.00 32.68
155.00 33.72
156.00 35.12
157.00 36.53
158.00 37.40
159.00 37.53
160.00 37.41
161.00 37.67
162.00 38.72
163.00 40.96
164.00 45.13
165.00 51.90
166.00 48.96
167.00 44.52
168.00 42.31
169.00 41.23
170.00 40.85
171.00 41.03
172.00 41.82
173.00 43.41
174.00 43.53
175.00 45.80
176.00 52.37
177.00 44.48
178.00 38.65
179.00 35.57
180.00 33.90
181.00 33.14
182.00 33.09
183.00 33.64
184.00 34.78
185.00 36.56
186.00 39.27
187.00 43.73
188.00 54.41
189.00 50.49
190.00 42.24
191.00 38.26
192.00 35.86
193.00 34.38
194.00 33.55
195.00 33.24
196.00 33.32
197.00 33.66
198.00 34.13
199.00 34.53
200.00 34.74
201.00 34.68
202.00 34.44
203.00 34.16
204.00 34.03
205.00 34.16
206.00 34.65
207.00 35.58
208.00 37.03
209.00 39.09
210.00 41.78
211.00 44.65
212.00 46.02
213.00 45.34
214.00 44.46
215.00 44.27
216.00 44.78
217.00 45.75
218.00 46.89
219.00 48.03
220.00 48.86
221.00 48.80
222.00 48.17
223.00 48.35
224.00 51.04
225.00 61.83
226.00 50.23
227.00 42.96
228.00 39.07
229.00 36.80
230.00 35.59
231.00 35.10
232.00 35.08
233.00 35.27
234.00 35.43
235.00 35.41
236.00 35.22
237.00 34.98
238.00 34.84
239.00 34.90
240.00 35.19
241.00 35.60
242.00 35.97
243.00 36.26
244.00 36.61
245.00 37.32
246.00 38.75
247.00 41.40
248.00 46.30
249.00 58.99
250.00 54.00
251.00 48.00
252.00 46.66
253.00 47.61
254.00 50.38
255.00 53.79
256.00 51.22
257.00 45.88
258.00 41.73
259.00 38.76
260.00 36.71
261.00 35.44
262.00 34.79
263.00 34.70
264.00 35.16
265.00 36.20
266.00 37.56
267.00 38.05
268.00 36.67
269.00 34.64
270.00 33.10
271.00 32.30
272.00 32.17
273.00 32.61
274.00 33.52
275.00 34.72
276.00 35.91
277.00 36.53
278.00 36.23
279.00 35.40
280.00 34.65
281.00 34.27
282.00 34.36
283.00 34.91
284.00 35.90
285.00 37.27
286.00 38.94
287.00 40.73
288.00 42.38
289.00 43.62
290.00 44.32
291.00 44.39
292.00 43.77
293.00 42.59
294.00 41.19
295.00 39.85
296.00 38.68
297.00 37.67
298.00 36.79
299.00 36.04
300.00 35.53
301.00 35.46
302.00 36.13
303.00 38.15
304.00 43.03
305.00 47.44
306.00 37.68
307.00 32.27
308.00 28.91
309.00 26.66
310.00 25.12
311.00 24.01
312.00 23.16
313.00 22.39
314.00 21.66
315.00 21.02
316.00 20.60
317.00 20.53
318.00 20.96
319.00 22.04
320.00 23.97
321.00 26.95
322.00 30.41
323.00 30.32
324.00 27.39
325.00 25.21
326.00 24.11
327.00 23.90
328.00 24.42
329.00 25.59
330.00 27.34
331.00 29.67
332.00 32.66
333.00 36.43
334.00 39.19
335.00 37.01
336.00 34.17
337.00 32.80
338.00 33.11
339.00 35.32
340.00 37.39
341.00 32.66
342.00 27.78
343.00 24.56
344.00 22.57
345.00 21.58
346.00 21.52
347.00 22.50
348.00 24.87
349.00 29.72
350.00 37.64
351.00 29.86
352.00 25.15
353.00 23.22
354.00 23.25
355.00 25.46
356.00 27.71
357.00 21.40
358.00 15.47
359.00 11.24
