NAME ATR4518R7_0832_X_CO_M45_04T
FREQUENCY 0832
GAIN 14.67 dBd
TILT	ELECTRICAL
COMMENT DATE 05.08.2013 -45 degrees polarized system Lever position 04T deg
HORIZONTAL 360
0.00 0.00
1.00 0.01
2.00 0.02
3.00 0.04
4.00 0.07
5.00 0.10
6.00 0.14
7.00 0.18
8.00 0.23
9.00 0.28
10.00 0.35
11.00 0.41
12.00 0.49
13.00 0.57
14.00 0.65
15.00 0.74
16.00 0.84
17.00 0.94
18.00 1.05
19.00 1.17
20.00 1.29
21.00 1.42
22.00 1.55
23.00 1.69
24.00 1.84
25.00 1.99
26.00 2.14
27.00 2.31
28.00 2.48
29.00 2.65
30.00 2.83
31.00 3.02
32.00 3.21
33.00 3.41
34.00 3.62
35.00 3.83
36.00 4.04
37.00 4.27
38.00 4.50
39.00 4.73
40.00 4.97
41.00 5.22
42.00 5.47
43.00 5.73
44.00 5.99
45.00 6.26
46.00 6.53
47.00 6.81
48.00 7.10
49.00 7.39
50.00 7.69
51.00 7.99
52.00 8.30
53.00 8.61
54.00 8.93
55.00 9.26
56.00 9.59
57.00 9.93
58.00 10.27
59.00 10.62
60.00 10.97
61.00 11.33
62.00 11.69
63.00 12.07
64.00 12.45
65.00 12.83
66.00 13.21
67.00 13.60
68.00 14.00
69.00 14.41
70.00 14.82
71.00 15.23
72.00 15.65
73.00 16.08
74.00 16.51
75.00 16.94
76.00 17.38
77.00 17.82
78.00 18.26
79.00 18.71
80.00 19.15
81.00 19.60
82.00 20.05
83.00 20.49
84.00 20.93
85.00 21.36
86.00 21.78
87.00 22.20
88.00 22.61
89.00 23.00
90.00 23.37
91.00 23.73
92.00 24.08
93.00 24.40
94.00 24.70
95.00 24.98
96.00 25.25
97.00 25.49
98.00 25.72
99.00 25.93
100.00 26.13
101.00 26.32
102.00 26.49
103.00 26.67
104.00 26.84
105.00 27.01
106.00 27.18
107.00 27.36
108.00 27.54
109.00 27.73
110.00 27.94
111.00 28.15
112.00 28.38
113.00 28.63
114.00 28.89
115.00 29.18
116.00 29.48
117.00 29.81
118.00 30.16
119.00 30.54
120.00 30.94
121.00 31.37
122.00 31.84
123.00 32.33
124.00 32.87
125.00 33.43
126.00 34.04
127.00 34.68
128.00 35.36
129.00 36.07
130.00 36.81
131.00 37.58
132.00 38.35
133.00 39.10
134.00 39.80
135.00 40.39
136.00 40.82
137.00 41.05
138.00 41.06
139.00 40.87
140.00 40.53
141.00 40.08
142.00 39.57
143.00 39.03
144.00 38.51
145.00 38.00
146.00 37.51
147.00 37.07
148.00 36.65
149.00 36.27
150.00 35.92
151.00 35.61
152.00 35.32
153.00 35.05
154.00 34.82
155.00 34.60
156.00 34.40
157.00 34.22
158.00 34.06
159.00 33.90
160.00 33.76
161.00 33.63
162.00 33.50
163.00 33.38
164.00 33.27
165.00 33.15
166.00 33.04
167.00 32.94
168.00 32.83
169.00 32.72
170.00 32.61
171.00 32.51
172.00 32.40
173.00 32.30
174.00 32.19
175.00 32.09
176.00 31.99
177.00 31.90
178.00 31.81
179.00 31.73
180.00 31.64
181.00 31.57
182.00 31.51
183.00 31.46
184.00 31.42
185.00 31.38
186.00 31.35
187.00 31.35
188.00 31.35
189.00 31.36
190.00 31.39
191.00 31.43
192.00 31.49
193.00 31.56
194.00 31.66
195.00 31.77
196.00 31.89
197.00 32.03
198.00 32.19
199.00 32.37
200.00 32.57
201.00 32.79
202.00 33.04
203.00 33.30
204.00 33.58
205.00 33.89
206.00 34.23
207.00 34.59
208.00 34.97
209.00 35.38
210.00 35.83
211.00 36.29
212.00 36.80
213.00 37.33
214.00 37.90
215.00 38.51
216.00 39.14
217.00 39.82
218.00 40.54
219.00 41.30
220.00 42.11
221.00 42.96
222.00 43.86
223.00 44.80
224.00 45.78
225.00 46.79
226.00 47.79
227.00 48.74
228.00 49.57
229.00 50.15
230.00 50.38
231.00 50.17
232.00 49.54
233.00 48.63
234.00 47.52
235.00 46.35
236.00 45.14
237.00 43.95
238.00 42.78
239.00 41.63
240.00 40.53
241.00 39.46
242.00 38.41
243.00 37.42
244.00 36.46
245.00 35.53
246.00 34.63
247.00 33.77
248.00 32.94
249.00 32.13
250.00 31.35
251.00 30.60
252.00 29.88
253.00 29.18
254.00 28.50
255.00 27.84
256.00 27.21
257.00 26.59
258.00 26.00
259.00 25.42
260.00 24.86
261.00 24.31
262.00 23.79
263.00 23.27
264.00 22.77
265.00 22.29
266.00 21.81
267.00 21.35
268.00 20.90
269.00 20.46
270.00 20.03
271.00 19.61
272.00 19.20
273.00 18.80
274.00 18.40
275.00 18.02
276.00 17.64
277.00 17.26
278.00 16.90
279.00 16.54
280.00 16.18
281.00 15.83
282.00 15.48
283.00 15.14
284.00 14.80
285.00 14.46
286.00 14.13
287.00 13.80
288.00 13.48
289.00 13.15
290.00 12.83
291.00 12.52
292.00 12.20
293.00 11.88
294.00 11.58
295.00 11.27
296.00 10.96
297.00 10.66
298.00 10.35
299.00 10.05
300.00 9.76
301.00 9.46
302.00 9.17
303.00 8.88
304.00 8.59
305.00 8.31
306.00 8.03
307.00 7.75
308.00 7.48
309.00 7.21
310.00 6.94
311.00 6.68
312.00 6.41
313.00 6.16
314.00 5.91
315.00 5.66
316.00 5.42
317.00 5.18
318.00 4.94
319.00 4.72
320.00 4.49
321.00 4.27
322.00 4.05
323.00 3.85
324.00 3.64
325.00 3.44
326.00 3.25
327.00 3.06
328.00 2.87
329.00 2.69
330.00 2.52
331.00 2.35
332.00 2.19
333.00 2.03
334.00 1.88
335.00 1.74
336.00 1.60
337.00 1.46
338.00 1.34
339.00 1.21
340.00 1.10
341.00 0.99
342.00 0.88
343.00 0.78
344.00 0.69
345.00 0.60
346.00 0.52
347.00 0.44
348.00 0.38
349.00 0.31
350.00 0.25
351.00 0.20
352.00 0.16
353.00 0.11
354.00 0.08
355.00 0.05
356.00 0.03
357.00 0.01
358.00 0.00
359.00 0.00
VERTICAL 360
0.00 3.08
1.00 1.74
2.00 0.80
3.00 0.23
4.00 0.00
5.00 0.10
6.00 0.54
7.00 1.34
8.00 2.53
9.00 4.16
10.00 6.33
11.00 9.19
12.00 13.05
13.00 18.57
14.00 26.01
15.00 24.74
16.00 21.50
17.00 20.67
18.00 21.65
19.00 24.52
20.00 29.81
21.00 29.91
22.00 24.41
23.00 21.15
24.00 19.41
25.00 18.71
26.00 18.82
27.00 19.69
28.00 21.37
29.00 24.11
30.00 28.61
31.00 37.29
32.00 37.60
33.00 31.02
34.00 28.68
35.00 28.57
36.00 30.63
37.00 36.66
38.00 39.21
39.00 29.20
40.00 24.25
41.00 21.18
42.00 19.13
43.00 17.76
44.00 16.88
45.00 16.37
46.00 16.18
47.00 16.27
48.00 16.64
49.00 17.31
50.00 18.30
51.00 19.66
52.00 21.43
53.00 23.67
54.00 26.43
55.00 29.79
56.00 33.88
57.00 38.94
58.00 42.76
59.00 39.75
60.00 36.27
61.00 34.05
62.00 32.76
63.00 32.27
64.00 32.63
65.00 34.11
66.00 37.22
67.00 42.86
68.00 44.65
69.00 39.90
70.00 37.70
71.00 37.36
72.00 38.02
73.00 38.55
74.00 37.58
75.00 35.11
76.00 32.36
77.00 30.11
78.00 28.58
79.00 27.77
80.00 27.56
81.00 27.71
82.00 27.90
83.00 27.83
84.00 27.42
85.00 26.83
86.00 26.30
87.00 26.04
88.00 26.15
89.00 26.67
90.00 27.52
91.00 28.47
92.00 29.23
93.00 29.53
94.00 29.35
95.00 28.96
96.00 28.70
97.00 28.83
98.00 29.48
99.00 30.65
100.00 32.20
101.00 33.89
102.00 35.41
103.00 36.61
104.00 37.43
105.00 37.95
106.00 38.41
107.00 39.01
108.00 39.64
109.00 39.91
110.00 39.75
111.00 39.49
112.00 39.36
113.00 39.29
114.00 39.10
115.00 38.74
116.00 38.33
117.00 38.04
118.00 38.03
119.00 38.33
120.00 38.71
121.00 38.63
122.00 37.83
123.00 36.73
124.00 35.77
125.00 35.07
126.00 34.59
127.00 34.21
128.00 33.83
129.00 33.47
130.00 33.17
131.00 33.11
132.00 33.45
133.00 34.32
134.00 35.81
135.00 37.97
136.00 40.79
137.00 44.23
138.00 48.17
139.00 52.36
140.00 53.35
141.00 49.00
142.00 45.01
143.00 42.39
144.00 40.95
145.00 40.42
146.00 40.24
147.00 39.49
148.00 37.81
149.00 35.88
150.00 34.29
151.00 33.23
152.00 32.70
153.00 32.65
154.00 33.10
155.00 34.07
156.00 35.62
157.00 37.86
158.00 40.96
159.00 44.78
160.00 46.73
161.00 44.88
162.00 42.95
163.00 42.05
164.00 41.95
165.00 42.26
166.00 42.43
167.00 41.83
168.00 40.16
169.00 37.90
170.00 35.74
171.00 34.02
172.00 32.82
173.00 32.09
174.00 31.73
175.00 31.63
176.00 31.68
177.00 31.75
178.00 31.90
179.00 32.19
180.00 32.71
181.00 33.53
182.00 34.66
183.00 36.11
184.00 37.81
185.00 39.84
186.00 42.39
187.00 45.76
188.00 48.50
189.00 45.95
190.00 42.05
191.00 39.17
192.00 37.18
193.00 35.85
194.00 35.06
195.00 34.70
196.00 34.66
197.00 34.83
198.00 35.08
199.00 35.30
200.00 35.44
201.00 35.55
202.00 35.72
203.00 36.09
204.00 36.74
205.00 37.72
206.00 39.01
207.00 40.44
208.00 41.64
209.00 42.08
210.00 41.65
211.00 41.02
212.00 40.85
213.00 41.40
214.00 42.37
215.00 42.70
216.00 41.86
217.00 40.98
218.00 41.03
219.00 42.47
220.00 45.69
221.00 50.63
222.00 49.94
223.00 45.58
224.00 42.62
225.00 40.56
226.00 38.91
227.00 37.46
228.00 36.11
229.00 34.88
230.00 33.87
231.00 33.19
232.00 32.85
233.00 32.86
234.00 33.15
235.00 33.69
236.00 34.45
237.00 35.40
238.00 36.48
239.00 37.63
240.00 39.01
241.00 40.88
242.00 43.71
243.00 48.27
244.00 55.73
245.00 53.62
246.00 48.09
247.00 44.97
248.00 43.00
249.00 41.60
250.00 40.52
251.00 39.70
252.00 39.14
253.00 38.76
254.00 38.35
255.00 37.73
256.00 37.05
257.00 36.63
258.00 36.65
259.00 37.14
260.00 38.04
261.00 39.46
262.00 41.80
263.00 45.93
264.00 51.22
265.00 47.55
266.00 43.93
267.00 42.74
268.00 43.34
269.00 45.51
270.00 49.80
271.00 61.86
272.00 53.46
273.00 45.21
274.00 41.06
275.00 38.73
276.00 37.60
277.00 37.31
278.00 37.52
279.00 37.84
280.00 37.92
281.00 37.66
282.00 37.24
283.00 36.98
284.00 37.16
285.00 37.87
286.00 39.05
287.00 40.42
288.00 41.47
289.00 41.51
290.00 40.07
291.00 37.76
292.00 35.46
293.00 33.56
294.00 32.14
295.00 31.17
296.00 30.66
297.00 30.63
298.00 31.12
299.00 32.08
300.00 33.43
301.00 35.12
302.00 37.42
303.00 41.73
304.00 58.66
305.00 40.63
306.00 33.15
307.00 28.66
308.00 25.49
309.00 23.16
310.00 21.44
311.00 20.19
312.00 19.30
313.00 18.70
314.00 18.34
315.00 18.20
316.00 18.32
317.00 18.74
318.00 19.56
319.00 20.89
320.00 22.90
321.00 25.77
322.00 29.57
323.00 32.74
324.00 32.07
325.00 30.36
326.00 29.59
327.00 29.85
328.00 30.95
329.00 32.70
330.00 34.52
331.00 34.65
332.00 32.41
333.00 29.73
334.00 27.69
335.00 26.58
336.00 26.54
337.00 27.83
338.00 30.89
339.00 33.47
340.00 28.98
341.00 24.67
342.00 22.06
343.00 20.71
344.00 20.41
345.00 21.19
346.00 23.28
347.00 27.49
348.00 35.04
349.00 30.24
350.00 25.17
351.00 23.16
352.00 23.44
353.00 27.09
354.00 35.14
355.00 21.51
356.00 14.79
357.00 10.43
358.00 7.27
359.00 4.89
