NAME ATR4518R7_0832_X_CO_M45_02T
FREQUENCY 0832
GAIN 14.47 dBd
TILT	ELECTRICAL
COMMENT DATE 05.08.2013 -45 degrees polarized system Lever position 02T deg
HORIZONTAL 360
0.00 0.00
1.00 0.01
2.00 0.03
3.00 0.05
4.00 0.07
5.00 0.10
6.00 0.14
7.00 0.18
8.00 0.23
9.00 0.29
10.00 0.35
11.00 0.42
12.00 0.49
13.00 0.57
14.00 0.66
15.00 0.75
16.00 0.85
17.00 0.95
18.00 1.06
19.00 1.17
20.00 1.29
21.00 1.42
22.00 1.55
23.00 1.69
24.00 1.84
25.00 1.99
26.00 2.14
27.00 2.31
28.00 2.47
29.00 2.65
30.00 2.83
31.00 3.01
32.00 3.20
33.00 3.40
34.00 3.61
35.00 3.81
36.00 4.03
37.00 4.25
38.00 4.48
39.00 4.71
40.00 4.94
41.00 5.19
42.00 5.44
43.00 5.69
44.00 5.95
45.00 6.22
46.00 6.49
47.00 6.77
48.00 7.05
49.00 7.33
50.00 7.63
51.00 7.93
52.00 8.23
53.00 8.54
54.00 8.86
55.00 9.18
56.00 9.50
57.00 9.84
58.00 10.17
59.00 10.51
60.00 10.87
61.00 11.22
62.00 11.57
63.00 11.94
64.00 12.31
65.00 12.69
66.00 13.07
67.00 13.46
68.00 13.85
69.00 14.25
70.00 14.65
71.00 15.06
72.00 15.47
73.00 15.90
74.00 16.32
75.00 16.75
76.00 17.18
77.00 17.62
78.00 18.06
79.00 18.51
80.00 18.96
81.00 19.41
82.00 19.86
83.00 20.30
84.00 20.75
85.00 21.19
86.00 21.63
87.00 22.05
88.00 22.47
89.00 22.88
90.00 23.27
91.00 23.65
92.00 24.00
93.00 24.34
94.00 24.65
95.00 24.94
96.00 25.21
97.00 25.46
98.00 25.69
99.00 25.89
100.00 26.08
101.00 26.25
102.00 26.41
103.00 26.56
104.00 26.71
105.00 26.85
106.00 26.99
107.00 27.12
108.00 27.26
109.00 27.41
110.00 27.57
111.00 27.73
112.00 27.91
113.00 28.11
114.00 28.31
115.00 28.53
116.00 28.77
117.00 29.03
118.00 29.32
119.00 29.61
120.00 29.94
121.00 30.29
122.00 30.66
123.00 31.06
124.00 31.49
125.00 31.94
126.00 32.43
127.00 32.94
128.00 33.48
129.00 34.06
130.00 34.66
131.00 35.30
132.00 35.94
133.00 36.60
134.00 37.26
135.00 37.91
136.00 38.51
137.00 39.04
138.00 39.46
139.00 39.74
140.00 39.86
141.00 39.82
142.00 39.65
143.00 39.37
144.00 39.01
145.00 38.60
146.00 38.17
147.00 37.74
148.00 37.32
149.00 36.92
150.00 36.54
151.00 36.18
152.00 35.86
153.00 35.55
154.00 35.27
155.00 35.02
156.00 34.79
157.00 34.58
158.00 34.39
159.00 34.21
160.00 34.06
161.00 33.92
162.00 33.79
163.00 33.67
164.00 33.56
165.00 33.46
166.00 33.37
167.00 33.29
168.00 33.21
169.00 33.14
170.00 33.07
171.00 33.00
172.00 32.94
173.00 32.88
174.00 32.83
175.00 32.77
176.00 32.73
177.00 32.68
178.00 32.64
179.00 32.60
180.00 32.57
181.00 32.54
182.00 32.52
183.00 32.51
184.00 32.50
185.00 32.51
186.00 32.52
187.00 32.54
188.00 32.57
189.00 32.62
190.00 32.67
191.00 32.75
192.00 32.83
193.00 32.93
194.00 33.04
195.00 33.17
196.00 33.32
197.00 33.48
198.00 33.67
199.00 33.87
200.00 34.09
201.00 34.33
202.00 34.59
203.00 34.88
204.00 35.19
205.00 35.52
206.00 35.88
207.00 36.26
208.00 36.67
209.00 37.11
210.00 37.57
211.00 38.06
212.00 38.59
213.00 39.14
214.00 39.72
215.00 40.34
216.00 40.97
217.00 41.64
218.00 42.32
219.00 43.04
220.00 43.75
221.00 44.47
222.00 45.15
223.00 45.79
224.00 46.38
225.00 46.90
226.00 47.26
227.00 47.50
228.00 47.56
229.00 47.43
230.00 47.18
231.00 46.73
232.00 46.17
233.00 45.49
234.00 44.72
235.00 43.88
236.00 42.99
237.00 42.06
238.00 41.11
239.00 40.16
240.00 39.21
241.00 38.26
242.00 37.33
243.00 36.42
244.00 35.54
245.00 34.67
246.00 33.83
247.00 33.01
248.00 32.21
249.00 31.44
250.00 30.69
251.00 29.97
252.00 29.27
253.00 28.59
254.00 27.93
255.00 27.30
256.00 26.68
257.00 26.08
258.00 25.50
259.00 24.94
260.00 24.39
261.00 23.86
262.00 23.34
263.00 22.84
264.00 22.35
265.00 21.88
266.00 21.41
267.00 20.96
268.00 20.52
269.00 20.09
270.00 19.67
271.00 19.26
272.00 18.86
273.00 18.47
274.00 18.08
275.00 17.70
276.00 17.33
277.00 16.97
278.00 16.61
279.00 16.25
280.00 15.90
281.00 15.56
282.00 15.22
283.00 14.89
284.00 14.55
285.00 14.22
286.00 13.90
287.00 13.58
288.00 13.26
289.00 12.95
290.00 12.63
291.00 12.32
292.00 12.01
293.00 11.70
294.00 11.40
295.00 11.09
296.00 10.79
297.00 10.49
298.00 10.20
299.00 9.91
300.00 9.61
301.00 9.32
302.00 9.04
303.00 8.75
304.00 8.47
305.00 8.19
306.00 7.92
307.00 7.64
308.00 7.37
309.00 7.10
310.00 6.84
311.00 6.58
312.00 6.33
313.00 6.07
314.00 5.83
315.00 5.58
316.00 5.34
317.00 5.11
318.00 4.88
319.00 4.65
320.00 4.43
321.00 4.21
322.00 4.00
323.00 3.79
324.00 3.59
325.00 3.39
326.00 3.20
327.00 3.01
328.00 2.83
329.00 2.65
330.00 2.48
331.00 2.32
332.00 2.16
333.00 2.00
334.00 1.86
335.00 1.71
336.00 1.57
337.00 1.44
338.00 1.32
339.00 1.20
340.00 1.08
341.00 0.97
342.00 0.87
343.00 0.77
344.00 0.68
345.00 0.59
346.00 0.51
347.00 0.44
348.00 0.37
349.00 0.31
350.00 0.25
351.00 0.20
352.00 0.15
353.00 0.11
354.00 0.08
355.00 0.05
356.00 0.03
357.00 0.02
358.00 0.01
359.00 0.00
VERTICAL 360
0.00 0.58
1.00 0.13
2.00 0.00
3.00 0.21
4.00 0.75
5.00 1.65
6.00 2.95
7.00 4.70
8.00 7.00
9.00 10.04
10.00 14.15
11.00 19.94
12.00 26.09
13.00 23.90
14.00 21.61
15.00 21.44
16.00 23.17
17.00 27.52
18.00 39.08
19.00 30.19
20.00 24.08
21.00 21.20
22.00 19.85
23.00 19.54
24.00 20.11
25.00 21.54
26.00 23.93
27.00 27.52
28.00 32.24
29.00 34.23
30.00 31.88
31.00 30.39
32.00 30.62
33.00 32.90
34.00 36.75
35.00 32.12
36.00 26.10
37.00 22.03
38.00 19.16
39.00 17.09
40.00 15.62
41.00 14.63
42.00 14.02
43.00 13.75
44.00 13.76
45.00 14.01
46.00 14.48
47.00 15.17
48.00 16.11
49.00 17.35
50.00 18.95
51.00 20.97
52.00 23.53
53.00 26.73
54.00 30.67
55.00 35.34
56.00 40.29
57.00 42.81
58.00 40.85
59.00 38.25
60.00 36.52
61.00 35.67
62.00 35.63
63.00 36.56
64.00 39.04
65.00 43.35
66.00 41.16
67.00 35.85
68.00 32.78
69.00 31.32
70.00 31.00
71.00 31.40
72.00 32.02
73.00 32.15
74.00 31.29
75.00 29.70
76.00 28.01
77.00 26.69
78.00 25.94
79.00 25.78
80.00 26.11
81.00 26.67
82.00 27.12
83.00 27.16
84.00 26.78
85.00 26.25
86.00 25.86
87.00 25.80
88.00 26.18
89.00 26.98
90.00 28.07
91.00 29.19
92.00 30.00
93.00 30.31
94.00 30.19
95.00 29.92
96.00 29.84
97.00 30.17
98.00 31.01
99.00 32.26
100.00 33.76
101.00 35.29
102.00 36.79
103.00 38.22
104.00 39.37
105.00 40.12
106.00 40.66
107.00 41.17
108.00 41.37
109.00 41.15
110.00 40.92
111.00 41.12
112.00 41.79
113.00 42.58
114.00 42.93
115.00 42.58
116.00 41.78
117.00 41.05
118.00 40.68
119.00 40.58
120.00 40.18
121.00 39.00
122.00 37.39
123.00 35.89
124.00 34.71
125.00 33.81
126.00 33.09
127.00 32.51
128.00 32.04
129.00 31.71
130.00 31.55
131.00 31.65
132.00 32.08
133.00 32.88
134.00 34.08
135.00 35.62
136.00 37.38
137.00 39.21
138.00 40.87
139.00 42.17
140.00 43.05
141.00 43.47
142.00 43.37
143.00 42.97
144.00 42.78
145.00 43.03
146.00 43.18
147.00 42.06
148.00 39.81
149.00 37.60
150.00 35.92
151.00 34.83
152.00 34.25
153.00 34.13
154.00 34.43
155.00 35.14
156.00 36.29
157.00 37.96
158.00 40.39
159.00 43.81
160.00 47.06
161.00 45.56
162.00 42.38
163.00 40.28
164.00 39.26
165.00 39.19
166.00 40.13
167.00 42.25
168.00 44.97
169.00 44.15
170.00 40.47
171.00 37.59
172.00 35.73
173.00 34.58
174.00 33.87
175.00 33.38
176.00 33.00
177.00 32.72
178.00 32.59
179.00 32.64
180.00 32.90
181.00 33.34
182.00 33.90
183.00 34.56
184.00 35.36
185.00 36.48
186.00 38.09
187.00 40.34
188.00 42.82
189.00 43.28
190.00 40.97
191.00 38.44
192.00 36.57
193.00 35.37
194.00 34.72
195.00 34.49
196.00 34.54
197.00 34.74
198.00 34.95
199.00 35.09
200.00 35.14
201.00 35.20
202.00 35.42
203.00 35.96
204.00 36.96
205.00 38.48
206.00 40.47
207.00 42.59
208.00 44.18
209.00 44.54
210.00 43.76
211.00 42.55
212.00 41.49
213.00 40.67
214.00 39.91
215.00 39.02
216.00 38.18
217.00 37.73
218.00 37.90
219.00 38.72
220.00 40.03
221.00 41.49
222.00 42.76
223.00 43.75
224.00 44.33
225.00 44.19
226.00 43.42
227.00 42.45
228.00 41.44
229.00 40.30
230.00 39.13
231.00 38.10
232.00 37.34
233.00 36.88
234.00 36.74
235.00 37.06
236.00 38.04
237.00 39.91
238.00 42.99
239.00 47.78
240.00 55.36
241.00 68.43
242.00 73.31
243.00 60.10
244.00 52.20
245.00 47.27
246.00 43.83
247.00 41.35
248.00 39.58
249.00 38.46
250.00 37.91
251.00 37.84
252.00 38.03
253.00 38.10
254.00 37.73
255.00 37.01
256.00 36.38
257.00 36.18
258.00 36.58
259.00 37.64
260.00 39.46
261.00 42.22
262.00 46.18
263.00 49.70
264.00 47.48
265.00 44.55
266.00 43.14
267.00 43.06
268.00 44.12
269.00 46.43
270.00 50.58
271.00 52.64
272.00 46.09
273.00 41.25
274.00 38.20
275.00 36.29
276.00 35.18
277.00 34.59
278.00 34.28
279.00 34.00
280.00 33.62
281.00 33.16
282.00 32.73
283.00 32.45
284.00 32.42
285.00 32.67
286.00 33.16
287.00 33.79
288.00 34.34
289.00 34.46
290.00 33.96
291.00 33.08
292.00 32.19
293.00 31.55
294.00 31.28
295.00 31.46
296.00 32.22
297.00 33.77
298.00 36.51
299.00 41.37
300.00 45.91
301.00 38.84
302.00 33.48
303.00 29.69
304.00 26.72
305.00 24.29
306.00 22.29
307.00 20.67
308.00 19.39
309.00 18.41
310.00 17.69
311.00 17.22
312.00 16.95
313.00 16.86
314.00 16.96
315.00 17.28
316.00 17.86
317.00 18.77
318.00 20.11
319.00 21.96
320.00 24.41
321.00 27.38
322.00 30.26
323.00 31.83
324.00 32.25
325.00 32.95
326.00 34.68
327.00 37.45
328.00 38.95
329.00 36.49
330.00 33.45
331.00 31.22
332.00 29.73
333.00 28.95
334.00 28.96
335.00 29.97
336.00 32.02
337.00 33.10
338.00 30.03
339.00 26.44
340.00 24.02
341.00 22.76
342.00 22.56
343.00 23.48
344.00 25.76
345.00 29.68
346.00 31.85
347.00 28.10
348.00 25.30
349.00 24.56
350.00 26.31
351.00 31.76
352.00 25.24
353.00 17.56
354.00 12.59
355.00 8.99
356.00 6.27
357.00 4.16
358.00 2.56
359.00 1.38
