NAME ATR4518R7_0847_X_CO_M45_03T
FREQUENCY 0847
GAIN 14.66 dBd
TILT	ELECTRICAL
COMMENT DATE 05.08.2013 -45 degrees polarized system Lever position 03T deg
HORIZONTAL 360
0.00 0.00
1.00 0.02
2.00 0.04
3.00 0.06
4.00 0.09
5.00 0.13
6.00 0.17
7.00 0.22
8.00 0.27
9.00 0.33
10.00 0.40
11.00 0.47
12.00 0.55
13.00 0.64
14.00 0.73
15.00 0.83
16.00 0.93
17.00 1.05
18.00 1.16
19.00 1.28
20.00 1.41
21.00 1.55
22.00 1.69
23.00 1.84
24.00 1.99
25.00 2.15
26.00 2.32
27.00 2.49
28.00 2.67
29.00 2.86
30.00 3.05
31.00 3.24
32.00 3.45
33.00 3.66
34.00 3.87
35.00 4.09
36.00 4.32
37.00 4.55
38.00 4.79
39.00 5.04
40.00 5.29
41.00 5.55
42.00 5.81
43.00 6.08
44.00 6.35
45.00 6.63
46.00 6.91
47.00 7.20
48.00 7.50
49.00 7.80
50.00 8.11
51.00 8.42
52.00 8.73
53.00 9.06
54.00 9.38
55.00 9.71
56.00 10.05
57.00 10.39
58.00 10.73
59.00 11.08
60.00 11.44
61.00 11.79
62.00 12.16
63.00 12.52
64.00 12.90
65.00 13.27
66.00 13.65
67.00 14.03
68.00 14.42
69.00 14.81
70.00 15.21
71.00 15.61
72.00 16.02
73.00 16.43
74.00 16.84
75.00 17.26
76.00 17.69
77.00 18.11
78.00 18.55
79.00 18.99
80.00 19.43
81.00 19.87
82.00 20.33
83.00 20.78
84.00 21.24
85.00 21.70
86.00 22.17
87.00 22.64
88.00 23.11
89.00 23.58
90.00 24.05
91.00 24.51
92.00 24.98
93.00 25.44
94.00 25.89
95.00 26.34
96.00 26.78
97.00 27.20
98.00 27.62
99.00 28.02
100.00 28.40
101.00 28.77
102.00 29.12
103.00 29.45
104.00 29.77
105.00 30.08
106.00 30.37
107.00 30.65
108.00 30.91
109.00 31.18
110.00 31.43
111.00 31.69
112.00 31.94
113.00 32.19
114.00 32.45
115.00 32.71
116.00 32.98
117.00 33.26
118.00 33.55
119.00 33.84
120.00 34.15
121.00 34.47
122.00 34.79
123.00 35.13
124.00 35.47
125.00 35.81
126.00 36.16
127.00 36.50
128.00 36.84
129.00 37.17
130.00 37.48
131.00 37.78
132.00 38.04
133.00 38.27
134.00 38.48
135.00 38.64
136.00 38.77
137.00 38.87
138.00 38.93
139.00 38.97
140.00 38.99
141.00 38.99
142.00 38.97
143.00 38.96
144.00 38.95
145.00 38.94
146.00 38.94
147.00 38.96
148.00 38.99
149.00 39.04
150.00 39.12
151.00 39.21
152.00 39.33
153.00 39.48
154.00 39.64
155.00 39.84
156.00 40.05
157.00 40.30
158.00 40.54
159.00 40.82
160.00 41.10
161.00 41.40
162.00 41.68
163.00 41.95
164.00 42.19
165.00 42.41
166.00 42.57
167.00 42.67
168.00 42.69
169.00 42.64
170.00 42.53
171.00 42.36
172.00 42.12
173.00 41.85
174.00 41.56
175.00 41.25
176.00 40.92
177.00 40.62
178.00 40.31
179.00 40.03
180.00 39.76
181.00 39.51
182.00 39.30
183.00 39.11
184.00 38.95
185.00 38.82
186.00 38.72
187.00 38.65
188.00 38.62
189.00 38.61
190.00 38.64
191.00 38.71
192.00 38.81
193.00 38.95
194.00 39.12
195.00 39.33
196.00 39.59
197.00 39.89
198.00 40.23
199.00 40.62
200.00 41.06
201.00 41.55
202.00 42.09
203.00 42.69
204.00 43.36
205.00 44.08
206.00 44.84
207.00 45.62
208.00 46.40
209.00 47.11
210.00 47.63
211.00 47.92
212.00 47.89
213.00 47.52
214.00 46.93
215.00 46.17
216.00 45.35
217.00 44.52
218.00 43.69
219.00 42.94
220.00 42.21
221.00 41.55
222.00 40.93
223.00 40.36
224.00 39.82
225.00 39.33
226.00 38.86
227.00 38.43
228.00 38.01
229.00 37.62
230.00 37.24
231.00 36.87
232.00 36.50
233.00 36.13
234.00 35.77
235.00 35.38
236.00 34.99
237.00 34.59
238.00 34.18
239.00 33.74
240.00 33.29
241.00 32.82
242.00 32.34
243.00 31.85
244.00 31.34
245.00 30.83
246.00 30.30
247.00 29.78
248.00 29.25
249.00 28.72
250.00 28.18
251.00 27.66
252.00 27.14
253.00 26.62
254.00 26.10
255.00 25.60
256.00 25.10
257.00 24.61
258.00 24.13
259.00 23.66
260.00 23.20
261.00 22.74
262.00 22.30
263.00 21.86
264.00 21.43
265.00 21.01
266.00 20.60
267.00 20.19
268.00 19.80
269.00 19.41
270.00 19.02
271.00 18.65
272.00 18.28
273.00 17.91
274.00 17.56
275.00 17.21
276.00 16.86
277.00 16.52
278.00 16.18
279.00 15.85
280.00 15.52
281.00 15.19
282.00 14.87
283.00 14.55
284.00 14.23
285.00 13.92
286.00 13.61
287.00 13.30
288.00 12.99
289.00 12.69
290.00 12.38
291.00 12.08
292.00 11.78
293.00 11.48
294.00 11.19
295.00 10.89
296.00 10.60
297.00 10.31
298.00 10.02
299.00 9.73
300.00 9.45
301.00 9.16
302.00 8.88
303.00 8.61
304.00 8.33
305.00 8.06
306.00 7.78
307.00 7.51
308.00 7.25
309.00 6.99
310.00 6.73
311.00 6.47
312.00 6.22
313.00 5.97
314.00 5.73
315.00 5.49
316.00 5.25
317.00 5.02
318.00 4.79
319.00 4.56
320.00 4.34
321.00 4.13
322.00 3.92
323.00 3.71
324.00 3.51
325.00 3.32
326.00 3.13
327.00 2.94
328.00 2.76
329.00 2.59
330.00 2.42
331.00 2.25
332.00 2.10
333.00 1.94
334.00 1.80
335.00 1.65
336.00 1.52
337.00 1.39
338.00 1.26
339.00 1.14
340.00 1.03
341.00 0.92
342.00 0.82
343.00 0.72
344.00 0.64
345.00 0.55
346.00 0.47
347.00 0.40
348.00 0.33
349.00 0.27
350.00 0.22
351.00 0.17
352.00 0.13
353.00 0.09
354.00 0.06
355.00 0.04
356.00 0.02
357.00 0.01
358.00 0.00
359.00 0.00
VERTICAL 360
0.00 1.86
1.00 0.86
2.00 0.25
3.00 0.00
4.00 0.10
5.00 0.56
6.00 1.39
7.00 2.64
8.00 4.35
9.00 6.64
10.00 9.72
11.00 14.00
12.00 20.63
13.00 31.62
14.00 25.00
15.00 21.70
16.00 21.43
17.00 23.39
18.00 28.49
19.00 35.35
20.00 26.36
21.00 21.70
22.00 19.30
23.00 18.16
24.00 17.92
25.00 18.47
26.00 19.83
27.00 22.16
28.00 25.94
29.00 32.71
30.00 44.94
31.00 33.71
32.00 30.44
33.00 30.33
34.00 33.18
35.00 43.32
36.00 34.74
37.00 27.01
38.00 22.71
39.00 19.85
40.00 17.86
41.00 16.49
42.00 15.62
43.00 15.16
44.00 15.08
45.00 15.30
46.00 15.78
47.00 16.48
48.00 17.40
49.00 18.58
50.00 20.11
51.00 22.13
52.00 24.82
53.00 28.44
54.00 33.49
55.00 41.14
56.00 55.11
57.00 44.16
58.00 38.43
59.00 34.90
60.00 32.69
61.00 31.49
62.00 31.18
63.00 31.80
64.00 33.72
65.00 37.52
66.00 40.92
67.00 36.84
68.00 33.48
69.00 32.04
70.00 31.83
71.00 32.17
72.00 32.28
73.00 31.59
74.00 30.26
75.00 28.87
76.00 27.81
77.00 27.18
78.00 26.92
79.00 26.81
80.00 26.62
81.00 26.26
82.00 25.84
83.00 25.57
84.00 25.58
85.00 25.87
86.00 26.35
87.00 26.83
88.00 27.16
89.00 27.29
90.00 27.34
91.00 27.46
92.00 27.77
93.00 28.27
94.00 28.81
95.00 29.18
96.00 29.22
97.00 29.00
98.00 28.80
99.00 28.84
100.00 29.26
101.00 30.00
102.00 30.93
103.00 31.83
104.00 32.59
105.00 33.30
106.00 34.19
107.00 35.49
108.00 37.22
109.00 39.02
110.00 40.16
111.00 40.16
112.00 39.46
113.00 38.83
114.00 38.69
115.00 39.01
116.00 39.49
117.00 40.04
118.00 40.73
119.00 40.80
120.00 39.13
121.00 36.88
122.00 35.23
123.00 34.31
124.00 33.89
125.00 33.63
126.00 33.26
127.00 32.59
128.00 31.77
129.00 31.13
130.00 30.90
131.00 31.17
132.00 31.89
133.00 32.98
134.00 34.38
135.00 36.05
136.00 37.88
137.00 39.94
138.00 42.43
139.00 45.26
140.00 47.12
141.00 47.08
142.00 45.80
143.00 43.62
144.00 41.40
145.00 39.87
146.00 39.16
147.00 39.33
148.00 40.61
149.00 43.51
150.00 47.30
151.00 44.76
152.00 40.94
153.00 38.94
154.00 38.12
155.00 37.70
156.00 37.18
157.00 36.54
158.00 36.08
159.00 36.14
160.00 37.06
161.00 39.26
162.00 42.98
163.00 45.24
164.00 42.81
165.00 40.93
166.00 40.46
167.00 40.64
168.00 40.68
169.00 40.38
170.00 40.04
171.00 39.83
172.00 39.65
173.00 39.44
174.00 39.26
175.00 39.21
176.00 39.45
177.00 40.03
178.00 40.61
179.00 41.09
180.00 41.35
181.00 41.57
182.00 42.08
183.00 42.94
184.00 44.07
185.00 45.05
186.00 45.21
187.00 44.57
188.00 43.64
189.00 42.97
190.00 42.66
191.00 42.57
192.00 42.55
193.00 42.52
194.00 42.54
195.00 42.72
196.00 43.22
197.00 44.17
198.00 45.67
199.00 47.63
200.00 49.72
201.00 51.78
202.00 54.90
203.00 60.78
204.00 56.72
205.00 50.59
206.00 46.97
207.00 44.43
208.00 42.46
209.00 41.09
210.00 40.47
211.00 40.66
212.00 41.50
213.00 42.65
214.00 43.46
215.00 43.35
216.00 42.29
217.00 40.80
218.00 39.40
219.00 38.40
220.00 38.02
221.00 38.31
222.00 39.20
223.00 40.39
224.00 41.72
225.00 43.91
226.00 48.92
227.00 53.03
228.00 44.56
229.00 40.45
230.00 38.58
231.00 37.87
232.00 37.71
233.00 37.72
234.00 37.60
235.00 37.07
236.00 36.30
237.00 35.91
238.00 36.37
239.00 37.79
240.00 39.72
241.00 41.20
242.00 41.95
243.00 42.86
244.00 44.51
245.00 46.51
246.00 45.99
247.00 42.37
248.00 39.33
249.00 37.73
250.00 37.47
251.00 38.31
252.00 39.75
253.00 40.95
254.00 40.98
255.00 39.74
256.00 38.20
257.00 37.20
258.00 36.97
259.00 37.34
260.00 38.00
261.00 38.76
262.00 39.35
263.00 39.04
264.00 37.68
265.00 36.23
266.00 35.28
267.00 34.92
268.00 35.20
269.00 36.28
270.00 38.44
271.00 41.91
272.00 47.14
273.00 50.80
274.00 43.60
275.00 38.32
276.00 35.31
277.00 33.94
278.00 33.82
279.00 34.57
280.00 35.73
281.00 37.06
282.00 38.54
283.00 39.70
284.00 39.83
285.00 39.79
286.00 40.97
287.00 44.31
288.00 50.57
289.00 49.31
290.00 43.56
291.00 39.91
292.00 37.64
293.00 36.46
294.00 36.01
295.00 35.55
296.00 34.46
297.00 32.97
298.00 31.71
299.00 31.08
300.00 31.33
301.00 32.86
302.00 36.51
303.00 45.00
304.00 40.30
305.00 33.37
306.00 29.47
307.00 26.68
308.00 24.36
309.00 22.32
310.00 20.54
311.00 19.08
312.00 17.99
313.00 17.28
314.00 16.93
315.00 16.88
316.00 17.07
317.00 17.47
318.00 18.04
319.00 18.82
320.00 19.87
321.00 21.28
322.00 23.12
323.00 25.39
324.00 27.99
325.00 30.51
326.00 32.55
327.00 34.12
328.00 35.49
329.00 36.23
330.00 35.49
331.00 33.89
332.00 32.68
333.00 32.34
334.00 32.87
335.00 33.58
336.00 32.81
337.00 30.24
338.00 27.37
339.00 24.86
340.00 22.82
341.00 21.27
342.00 20.29
343.00 19.99
344.00 20.54
345.00 22.27
346.00 25.94
347.00 33.67
348.00 31.52
349.00 25.33
350.00 22.85
351.00 22.78
352.00 25.77
353.00 42.71
354.00 23.60
355.00 15.83
356.00 11.12
357.00 7.75
358.00 5.21
359.00 3.29
