NAME ATR4518R7_2535_X_CO_P45_02T_yyR
FREQUENCY 2535
GAIN 15.61 dBd
TILT	ELECTRICAL
COMMENT DATE 05.08.2013 +45 degrees polarized system Lever position 02T deg
HORIZONTAL 360
0.00 0.01
1.00 0.02
2.00 0.05
3.00 0.08
4.00 0.13
5.00 0.18
6.00 0.24
7.00 0.30
8.00 0.38
9.00 0.46
10.00 0.55
11.00 0.64
12.00 0.74
13.00 0.84
14.00 0.95
15.00 1.06
16.00 1.17
17.00 1.28
18.00 1.39
19.00 1.51
20.00 1.63
21.00 1.74
22.00 1.86
23.00 1.98
24.00 2.10
25.00 2.22
26.00 2.34
27.00 2.47
28.00 2.60
29.00 2.74
30.00 2.88
31.00 3.03
32.00 3.20
33.00 3.36
34.00 3.55
35.00 3.74
36.00 3.94
37.00 4.16
38.00 4.38
39.00 4.63
40.00 4.88
41.00 5.15
42.00 5.44
43.00 5.73
44.00 6.05
45.00 6.37
46.00 6.72
47.00 7.07
48.00 7.45
49.00 7.83
50.00 8.24
51.00 8.66
52.00 9.10
53.00 9.56
54.00 10.04
55.00 10.55
56.00 11.07
57.00 11.62
58.00 12.19
59.00 12.79
60.00 13.43
61.00 14.09
62.00 14.79
63.00 15.52
64.00 16.28
65.00 17.08
66.00 17.92
67.00 18.79
68.00 19.70
69.00 20.65
70.00 21.63
71.00 22.64
72.00 23.67
73.00 24.74
74.00 25.83
75.00 26.95
76.00 28.11
77.00 29.32
78.00 30.60
79.00 31.98
80.00 33.50
81.00 35.21
82.00 37.12
83.00 39.14
84.00 40.76
85.00 41.01
86.00 39.69
87.00 37.78
88.00 35.94
89.00 34.36
90.00 33.04
91.00 31.95
92.00 31.06
93.00 30.34
94.00 29.77
95.00 29.35
96.00 29.05
97.00 28.86
98.00 28.79
99.00 28.83
100.00 28.96
101.00 29.19
102.00 29.50
103.00 29.89
104.00 30.35
105.00 30.84
106.00 31.37
107.00 31.89
108.00 32.37
109.00 32.78
110.00 33.12
111.00 33.37
112.00 33.57
113.00 33.75
114.00 33.95
115.00 34.20
116.00 34.57
117.00 35.07
118.00 35.74
119.00 36.62
120.00 37.70
121.00 38.95
122.00 40.15
123.00 40.86
124.00 40.55
125.00 39.33
126.00 37.75
127.00 36.21
128.00 34.86
129.00 33.74
130.00 32.85
131.00 32.17
132.00 31.69
133.00 31.40
134.00 31.30
135.00 31.39
136.00 31.68
137.00 32.18
138.00 32.93
139.00 33.98
140.00 35.42
141.00 37.38
142.00 40.19
143.00 44.70
144.00 55.15
145.00 52.60
146.00 43.95
147.00 39.87
148.00 37.28
149.00 35.47
150.00 34.18
151.00 33.25
152.00 32.61
153.00 32.21
154.00 32.03
155.00 32.04
156.00 32.24
157.00 32.59
158.00 33.10
159.00 33.71
160.00 34.38
161.00 35.01
162.00 35.47
163.00 35.62
164.00 35.42
165.00 34.93
166.00 34.29
167.00 33.63
168.00 33.02
169.00 32.53
170.00 32.17
171.00 31.96
172.00 31.90
173.00 32.01
174.00 32.28
175.00 32.74
176.00 33.40
177.00 34.26
178.00 35.39
179.00 36.81
180.00 38.59
181.00 40.81
182.00 43.44
183.00 45.83
184.00 46.13
185.00 44.25
186.00 42.09
187.00 40.33
188.00 39.02
189.00 38.06
190.00 37.41
191.00 37.01
192.00 36.82
193.00 36.81
194.00 36.96
195.00 37.23
196.00 37.58
197.00 37.96
198.00 38.30
199.00 38.55
200.00 38.64
201.00 38.55
202.00 38.31
203.00 37.97
204.00 37.59
205.00 37.24
206.00 36.94
207.00 36.72
208.00 36.59
209.00 36.56
210.00 36.63
211.00 36.79
212.00 37.03
213.00 37.32
214.00 37.63
215.00 37.92
216.00 38.13
217.00 38.20
218.00 38.10
219.00 37.83
220.00 37.40
221.00 36.88
222.00 36.30
223.00 35.72
224.00 35.16
225.00 34.65
226.00 34.18
227.00 33.78
228.00 33.45
229.00 33.17
230.00 32.95
231.00 32.80
232.00 32.69
233.00 32.64
234.00 32.64
235.00 32.67
236.00 32.76
237.00 32.88
238.00 33.03
239.00 33.22
240.00 33.44
241.00 33.68
242.00 33.95
243.00 34.24
244.00 34.54
245.00 34.86
246.00 35.20
247.00 35.55
248.00 35.91
249.00 36.28
250.00 36.66
251.00 37.03
252.00 37.39
253.00 37.71
254.00 37.97
255.00 38.15
256.00 38.19
257.00 38.06
258.00 37.74
259.00 37.24
260.00 36.57
261.00 35.78
262.00 34.91
263.00 33.98
264.00 33.05
265.00 32.12
266.00 31.21
267.00 30.34
268.00 29.50
269.00 28.69
270.00 27.93
271.00 27.20
272.00 26.51
273.00 25.85
274.00 25.22
275.00 24.63
276.00 24.06
277.00 23.52
278.00 23.00
279.00 22.51
280.00 22.03
281.00 21.57
282.00 21.12
283.00 20.68
284.00 20.25
285.00 19.83
286.00 19.41
287.00 19.01
288.00 18.60
289.00 18.19
290.00 17.78
291.00 17.37
292.00 16.96
293.00 16.55
294.00 16.13
295.00 15.71
296.00 15.29
297.00 14.86
298.00 14.43
299.00 13.99
300.00 13.56
301.00 13.12
302.00 12.68
303.00 12.23
304.00 11.79
305.00 11.35
306.00 10.92
307.00 10.48
308.00 10.05
309.00 9.62
310.00 9.20
311.00 8.78
312.00 8.37
313.00 7.97
314.00 7.58
315.00 7.20
316.00 6.82
317.00 6.46
318.00 6.11
319.00 5.76
320.00 5.43
321.00 5.11
322.00 4.80
323.00 4.50
324.00 4.21
325.00 3.94
326.00 3.68
327.00 3.42
328.00 3.18
329.00 2.95
330.00 2.74
331.00 2.53
332.00 2.33
333.00 2.15
334.00 1.97
335.00 1.80
336.00 1.65
337.00 1.50
338.00 1.36
339.00 1.23
340.00 1.11
341.00 0.99
342.00 0.88
343.00 0.78
344.00 0.69
345.00 0.60
346.00 0.51
347.00 0.44
348.00 0.37
349.00 0.30
350.00 0.24
351.00 0.19
352.00 0.14
353.00 0.10
354.00 0.06
355.00 0.04
356.00 0.02
357.00 0.00
358.00 0.00
359.00 0.00
VERTICAL 360
0.00 2.24
1.00 0.52
2.00 0.00
3.00 0.74
4.00 2.98
5.00 7.54
6.00 19.11
7.00 20.37
8.00 12.44
9.00 11.72
10.00 14.52
11.00 19.52
12.00 17.80
13.00 14.75
14.00 14.69
15.00 17.22
16.00 21.51
17.00 20.84
18.00 17.28
19.00 16.27
20.00 18.27
21.00 24.79
22.00 27.08
23.00 20.24
24.00 17.78
25.00 17.38
26.00 18.10
27.00 19.42
28.00 20.50
29.00 20.22
30.00 18.41
31.00 16.22
32.00 14.70
33.00 14.31
34.00 15.25
35.00 17.84
36.00 22.93
37.00 27.05
38.00 22.53
39.00 19.91
40.00 19.85
41.00 21.88
42.00 26.50
43.00 31.62
44.00 26.00
45.00 21.66
46.00 20.23
47.00 21.18
48.00 24.68
49.00 30.23
50.00 29.71
51.00 25.91
52.00 23.85
53.00 23.19
54.00 24.16
55.00 27.62
56.00 34.09
57.00 32.96
58.00 29.16
59.00 27.94
60.00 27.39
61.00 26.64
62.00 25.96
63.00 25.98
64.00 26.63
65.00 27.11
66.00 27.10
67.00 27.20
68.00 27.73
69.00 28.53
70.00 29.20
71.00 29.88
72.00 31.20
73.00 32.96
74.00 34.10
75.00 33.89
76.00 32.75
77.00 33.08
78.00 37.77
79.00 41.90
80.00 33.67
81.00 30.63
82.00 30.11
83.00 30.33
84.00 30.21
85.00 30.18
86.00 31.44
87.00 34.24
88.00 36.88
89.00 43.36
90.00 40.02
91.00 29.39
92.00 26.06
93.00 26.63
94.00 31.39
95.00 37.60
96.00 35.29
97.00 36.44
98.00 36.61
99.00 35.58
100.00 42.45
101.00 40.60
102.00 33.66
103.00 34.18
104.00 38.77
105.00 39.70
106.00 39.55
107.00 45.90
108.00 53.72
109.00 40.11
110.00 35.50
111.00 33.75
112.00 33.49
113.00 33.80
114.00 34.89
115.00 35.85
116.00 34.92
117.00 34.32
118.00 35.45
119.00 37.30
120.00 38.03
121.00 38.55
122.00 41.57
123.00 43.24
124.00 38.59
125.00 36.68
126.00 36.43
127.00 36.33
128.00 37.86
129.00 41.88
130.00 44.15
131.00 44.26
132.00 41.30
133.00 39.03
134.00 40.92
135.00 39.52
136.00 34.79
137.00 32.92
138.00 32.70
139.00 33.96
140.00 39.09
141.00 50.56
142.00 39.78
143.00 36.95
144.00 35.03
145.00 32.54
146.00 31.37
147.00 31.63
148.00 32.30
149.00 32.52
150.00 32.95
151.00 34.75
152.00 38.02
153.00 40.45
154.00 40.42
155.00 39.46
156.00 39.76
157.00 42.38
158.00 41.45
159.00 38.07
160.00 36.33
161.00 35.03
162.00 35.26
163.00 39.58
164.00 50.87
165.00 44.92
166.00 48.96
167.00 50.63
168.00 40.26
169.00 38.84
170.00 38.53
171.00 37.76
172.00 39.35
173.00 44.72
174.00 48.91
175.00 43.87
176.00 39.14
177.00 36.84
178.00 36.06
179.00 35.83
180.00 36.53
181.00 37.11
182.00 35.60
183.00 34.45
184.00 35.28
185.00 37.51
186.00 37.99
187.00 36.19
188.00 36.02
189.00 39.55
190.00 47.25
191.00 42.98
192.00 40.27
193.00 41.73
194.00 44.10
195.00 42.22
196.00 40.07
197.00 41.09
198.00 47.96
199.00 55.98
200.00 43.82
201.00 41.18
202.00 42.29
203.00 46.10
204.00 41.47
205.00 37.36
206.00 37.39
207.00 40.59
208.00 43.59
209.00 42.23
210.00 40.78
211.00 42.21
212.00 52.00
213.00 49.66
214.00 42.33
215.00 39.90
216.00 38.68
217.00 39.44
218.00 40.00
219.00 37.88
220.00 37.23
221.00 38.19
222.00 38.43
223.00 38.85
224.00 40.61
225.00 41.31
226.00 38.86
227.00 35.81
228.00 34.40
229.00 34.70
230.00 35.49
231.00 36.05
232.00 37.29
233.00 39.41
234.00 40.80
235.00 39.95
236.00 38.23
237.00 37.12
238.00 36.50
239.00 36.17
240.00 36.50
241.00 37.21
242.00 37.46
243.00 37.16
244.00 36.41
245.00 35.34
246.00 33.90
247.00 31.71
248.00 29.59
249.00 28.53
250.00 28.85
251.00 30.34
252.00 32.03
253.00 32.47
254.00 31.78
255.00 31.60
256.00 33.35
257.00 37.97
258.00 42.79
259.00 44.51
260.00 47.07
261.00 41.22
262.00 39.36
263.00 39.25
264.00 35.97
265.00 34.56
266.00 37.84
267.00 52.79
268.00 45.86
269.00 46.20
270.00 42.58
271.00 36.42
272.00 35.21
273.00 36.14
274.00 38.34
275.00 44.20
276.00 37.01
277.00 31.60
278.00 30.84
279.00 32.94
280.00 35.95
281.00 36.52
282.00 35.08
283.00 35.51
284.00 38.80
285.00 34.77
286.00 29.12
287.00 25.81
288.00 23.36
289.00 21.18
290.00 19.25
291.00 17.66
292.00 16.37
293.00 15.32
294.00 14.56
295.00 14.19
296.00 14.25
297.00 14.69
298.00 15.42
299.00 16.53
300.00 18.29
301.00 21.20
302.00 26.20
303.00 34.93
304.00 31.57
305.00 25.16
306.00 21.72
307.00 19.76
308.00 18.93
309.00 19.15
310.00 20.53
311.00 23.49
312.00 27.51
313.00 27.09
314.00 24.99
315.00 25.89
316.00 29.16
317.00 28.10
318.00 24.45
319.00 22.48
320.00 21.84
321.00 22.63
322.00 25.63
323.00 29.72
324.00 26.28
325.00 22.07
326.00 20.04
327.00 19.29
328.00 19.58
329.00 21.18
330.00 24.11
331.00 26.43
332.00 26.93
333.00 29.04
334.00 32.29
335.00 27.42
336.00 22.70
337.00 20.59
338.00 20.63
339.00 23.38
340.00 30.51
341.00 27.40
342.00 21.56
343.00 20.21
344.00 22.51
345.00 31.90
346.00 28.68
347.00 21.86
348.00 20.47
349.00 21.69
350.00 24.11
351.00 25.99
352.00 26.92
353.00 25.55
354.00 23.10
355.00 23.93
356.00 30.64
357.00 18.23
358.00 10.03
359.00 5.26
