NAME ATR4518R7_0894_X_CO_M45_08T
FREQUENCY 0894
GAIN 14.97 dBd
TILT	ELECTRICAL
COMMENT DATE 05.08.2013 -45 degrees polarized system Lever position 08T deg
HORIZONTAL 360
0.00 0.01
1.00 0.00
2.00 0.00
3.00 0.01
4.00 0.03
5.00 0.05
6.00 0.08
7.00 0.11
8.00 0.15
9.00 0.20
10.00 0.26
11.00 0.32
12.00 0.39
13.00 0.47
14.00 0.55
15.00 0.64
16.00 0.74
17.00 0.84
18.00 0.95
19.00 1.07
20.00 1.20
21.00 1.33
22.00 1.47
23.00 1.62
24.00 1.77
25.00 1.93
26.00 2.10
27.00 2.28
28.00 2.46
29.00 2.65
30.00 2.85
31.00 3.05
32.00 3.26
33.00 3.48
34.00 3.71
35.00 3.94
36.00 4.18
37.00 4.43
38.00 4.68
39.00 4.95
40.00 5.22
41.00 5.49
42.00 5.78
43.00 6.07
44.00 6.37
45.00 6.67
46.00 6.99
47.00 7.31
48.00 7.64
49.00 7.97
50.00 8.32
51.00 8.67
52.00 9.02
53.00 9.39
54.00 9.76
55.00 10.14
56.00 10.53
57.00 10.92
58.00 11.32
59.00 11.73
60.00 12.15
61.00 12.57
62.00 13.00
63.00 13.43
64.00 13.88
65.00 14.33
66.00 14.78
67.00 15.25
68.00 15.71
69.00 16.19
70.00 16.67
71.00 17.15
72.00 17.64
73.00 18.13
74.00 18.63
75.00 19.13
76.00 19.63
77.00 20.13
78.00 20.63
79.00 21.13
80.00 21.62
81.00 22.12
82.00 22.60
83.00 23.08
84.00 23.55
85.00 24.01
86.00 24.46
87.00 24.90
88.00 25.32
89.00 25.73
90.00 26.13
91.00 26.51
92.00 26.87
93.00 27.22
94.00 27.55
95.00 27.88
96.00 28.18
97.00 28.48
98.00 28.77
99.00 29.05
100.00 29.33
101.00 29.60
102.00 29.86
103.00 30.13
104.00 30.39
105.00 30.65
106.00 30.91
107.00 31.17
108.00 31.42
109.00 31.69
110.00 31.95
111.00 32.21
112.00 32.47
113.00 32.73
114.00 32.99
115.00 33.25
116.00 33.49
117.00 33.74
118.00 33.97
119.00 34.19
120.00 34.39
121.00 34.58
122.00 34.74
123.00 34.89
124.00 35.01
125.00 35.11
126.00 35.17
127.00 35.21
128.00 35.21
129.00 35.19
130.00 35.15
131.00 35.07
132.00 34.97
133.00 34.85
134.00 34.72
135.00 34.56
136.00 34.40
137.00 34.22
138.00 34.03
139.00 33.84
140.00 33.64
141.00 33.44
142.00 33.24
143.00 33.05
144.00 32.85
145.00 32.66
146.00 32.48
147.00 32.30
148.00 32.12
149.00 31.95
150.00 31.79
151.00 31.64
152.00 31.50
153.00 31.36
154.00 31.24
155.00 31.12
156.00 31.01
157.00 30.92
158.00 30.83
159.00 30.75
160.00 30.68
161.00 30.62
162.00 30.58
163.00 30.54
164.00 30.52
165.00 30.50
166.00 30.49
167.00 30.51
168.00 30.52
169.00 30.55
170.00 30.59
171.00 30.65
172.00 30.71
173.00 30.79
174.00 30.88
175.00 30.99
176.00 31.10
177.00 31.23
178.00 31.38
179.00 31.53
180.00 31.71
181.00 31.89
182.00 32.10
183.00 32.31
184.00 32.54
185.00 32.80
186.00 33.06
187.00 33.35
188.00 33.65
189.00 33.97
190.00 34.31
191.00 34.67
192.00 35.04
193.00 35.44
194.00 35.86
195.00 36.30
196.00 36.76
197.00 37.25
198.00 37.76
199.00 38.30
200.00 38.86
201.00 39.45
202.00 40.06
203.00 40.71
204.00 41.39
205.00 42.10
206.00 42.86
207.00 43.67
208.00 44.53
209.00 45.46
210.00 46.47
211.00 47.60
212.00 48.86
213.00 50.33
214.00 52.07
215.00 54.27
216.00 57.17
217.00 61.37
218.00 66.58
219.00 63.45
220.00 58.27
221.00 54.64
222.00 51.94
223.00 49.76
224.00 47.96
225.00 46.42
226.00 45.03
227.00 43.81
228.00 42.68
229.00 41.64
230.00 40.69
231.00 39.79
232.00 38.96
233.00 38.17
234.00 37.43
235.00 36.72
236.00 36.05
237.00 35.41
238.00 34.79
239.00 34.21
240.00 33.64
241.00 33.10
242.00 32.57
243.00 32.05
244.00 31.56
245.00 31.07
246.00 30.60
247.00 30.14
248.00 29.68
249.00 29.23
250.00 28.79
251.00 28.35
252.00 27.92
253.00 27.49
254.00 27.06
255.00 26.63
256.00 26.21
257.00 25.79
258.00 25.37
259.00 24.95
260.00 24.53
261.00 24.11
262.00 23.70
263.00 23.29
264.00 22.88
265.00 22.47
266.00 22.06
267.00 21.65
268.00 21.25
269.00 20.85
270.00 20.45
271.00 20.06
272.00 19.67
273.00 19.29
274.00 18.90
275.00 18.53
276.00 18.15
277.00 17.78
278.00 17.42
279.00 17.05
280.00 16.70
281.00 16.34
282.00 15.99
283.00 15.65
284.00 15.30
285.00 14.97
286.00 14.63
287.00 14.30
288.00 13.98
289.00 13.65
290.00 13.34
291.00 13.02
292.00 12.71
293.00 12.39
294.00 12.09
295.00 11.79
296.00 11.48
297.00 11.18
298.00 10.89
299.00 10.60
300.00 10.31
301.00 10.03
302.00 9.74
303.00 9.46
304.00 9.18
305.00 8.90
306.00 8.63
307.00 8.36
308.00 8.09
309.00 7.82
310.00 7.56
311.00 7.30
312.00 7.05
313.00 6.79
314.00 6.54
315.00 6.30
316.00 6.05
317.00 5.81
318.00 5.57
319.00 5.34
320.00 5.11
321.00 4.89
322.00 4.66
323.00 4.45
324.00 4.23
325.00 4.02
326.00 3.82
327.00 3.62
328.00 3.42
329.00 3.23
330.00 3.04
331.00 2.86
332.00 2.68
333.00 2.51
334.00 2.34
335.00 2.18
336.00 2.02
337.00 1.87
338.00 1.72
339.00 1.58
340.00 1.45
341.00 1.32
342.00 1.20
343.00 1.08
344.00 0.97
345.00 0.86
346.00 0.76
347.00 0.66
348.00 0.58
349.00 0.49
350.00 0.42
351.00 0.35
352.00 0.28
353.00 0.23
354.00 0.18
355.00 0.13
356.00 0.09
357.00 0.06
358.00 0.04
359.00 0.02
VERTICAL 360
0.00 15.71
1.00 11.17
2.00 7.83
3.00 5.28
4.00 3.34
5.00 1.89
6.00 0.88
7.00 0.26
8.00 0.00
9.00 0.10
10.00 0.56
11.00 1.39
12.00 2.61
13.00 4.28
14.00 6.48
15.00 9.35
16.00 13.20
17.00 18.71
18.00 28.53
19.00 32.48
20.00 25.51
21.00 23.97
22.00 24.82
23.00 27.90
24.00 35.33
25.00 41.19
26.00 30.36
27.00 26.62
28.00 25.16
29.00 25.11
30.00 26.34
31.00 29.00
32.00 33.50
33.00 36.95
34.00 33.23
35.00 30.20
36.00 28.92
37.00 29.07
38.00 30.75
39.00 35.02
40.00 49.53
41.00 35.69
42.00 29.03
43.00 25.49
44.00 23.39
45.00 22.22
46.00 21.74
47.00 21.81
48.00 22.31
49.00 23.17
50.00 24.37
51.00 25.98
52.00 28.22
53.00 31.59
54.00 37.44
55.00 44.22
56.00 35.89
57.00 31.38
58.00 28.97
59.00 27.69
60.00 27.14
61.00 27.07
62.00 27.33
63.00 27.75
64.00 28.24
65.00 28.69
66.00 29.03
67.00 29.23
68.00 29.34
69.00 29.47
70.00 29.79
71.00 30.43
72.00 31.43
73.00 32.64
74.00 33.45
75.00 33.19
76.00 32.09
77.00 30.78
78.00 29.72
79.00 29.04
80.00 28.72
81.00 28.61
82.00 28.42
83.00 27.93
84.00 27.20
85.00 26.44
86.00 25.92
87.00 25.71
88.00 25.82
89.00 26.12
90.00 26.38
91.00 26.53
92.00 26.57
93.00 26.52
94.00 26.46
95.00 26.55
96.00 26.83
97.00 27.27
98.00 27.84
99.00 28.50
100.00 29.23
101.00 30.05
102.00 30.98
103.00 32.04
104.00 33.20
105.00 34.39
106.00 35.57
107.00 36.71
108.00 37.65
109.00 38.04
110.00 37.73
111.00 36.92
112.00 35.97
113.00 35.17
114.00 34.73
115.00 34.75
116.00 35.20
117.00 35.91
118.00 36.59
119.00 36.94
120.00 36.89
121.00 36.76
122.00 36.97
123.00 37.87
124.00 39.66
125.00 42.25
126.00 44.47
127.00 44.08
128.00 42.29
129.00 40.85
130.00 39.99
131.00 39.43
132.00 38.82
133.00 38.14
134.00 37.67
135.00 37.71
136.00 38.47
137.00 39.96
138.00 42.08
139.00 44.41
140.00 46.32
141.00 47.81
142.00 49.78
143.00 51.85
144.00 49.90
145.00 46.24
146.00 43.87
147.00 42.80
148.00 42.67
149.00 43.17
150.00 44.08
151.00 45.03
152.00 44.91
153.00 42.99
154.00 40.67
155.00 39.00
156.00 38.18
157.00 38.16
158.00 38.75
159.00 39.48
160.00 39.39
161.00 38.04
162.00 36.26
163.00 34.82
164.00 33.98
165.00 33.82
166.00 34.36
167.00 35.66
168.00 37.79
169.00 40.35
170.00 40.06
171.00 36.12
172.00 31.99
173.00 30.60
174.00 29.76
175.00 29.28
176.00 29.03
177.00 28.94
178.00 29.03
179.00 29.39
180.00 29.81
181.00 30.24
182.00 31.09
183.00 32.43
184.00 34.25
185.00 36.40
186.00 38.06
187.00 37.75
188.00 35.92
189.00 34.02
190.00 32.56
191.00 31.55
192.00 30.90
193.00 30.53
194.00 30.38
195.00 30.48
196.00 30.84
197.00 31.56
198.00 32.71
199.00 34.41
200.00 36.80
201.00 40.07
202.00 44.49
203.00 49.47
204.00 51.13
205.00 50.44
206.00 49.70
207.00 46.90
208.00 43.21
209.00 40.36
210.00 38.50
211.00 37.39
212.00 36.77
213.00 36.42
214.00 36.24
215.00 36.24
216.00 36.51
217.00 37.21
218.00 38.54
219.00 40.76
220.00 44.36
221.00 50.43
222.00 53.47
223.00 46.76
224.00 42.69
225.00 40.27
226.00 38.85
227.00 38.06
228.00 37.64
229.00 37.31
230.00 36.97
231.00 36.61
232.00 36.45
233.00 36.71
234.00 37.71
235.00 39.81
236.00 43.65
237.00 50.30
238.00 51.32
239.00 46.27
240.00 43.90
241.00 42.96
242.00 42.66
243.00 42.49
244.00 42.13
245.00 41.52
246.00 40.73
247.00 39.93
248.00 39.17
249.00 38.50
250.00 37.98
251.00 37.62
252.00 37.44
253.00 37.41
254.00 37.46
255.00 37.52
256.00 37.56
257.00 37.59
258.00 37.62
259.00 37.61
260.00 37.49
261.00 37.20
262.00 36.72
263.00 36.17
264.00 35.71
265.00 35.50
266.00 35.58
267.00 35.89
268.00 36.28
269.00 36.56
270.00 36.60
271.00 36.54
272.00 36.68
273.00 37.31
274.00 38.63
275.00 40.42
276.00 41.39
277.00 40.38
278.00 38.56
279.00 37.02
280.00 35.99
281.00 35.55
282.00 35.83
283.00 37.00
284.00 39.29
285.00 43.20
286.00 48.77
287.00 47.98
288.00 44.13
289.00 42.53
290.00 42.93
291.00 44.98
292.00 45.59
293.00 41.74
294.00 38.01
295.00 35.43
296.00 33.69
297.00 32.57
298.00 31.91
299.00 31.60
300.00 31.50
301.00 31.50
302.00 31.62
303.00 31.97
304.00 32.73
305.00 34.07
306.00 36.17
307.00 38.96
308.00 40.57
309.00 38.75
310.00 36.30
311.00 34.75
312.00 34.22
313.00 34.72
314.00 36.55
315.00 40.97
316.00 62.12
317.00 40.17
318.00 33.21
319.00 29.19
320.00 26.49
321.00 24.69
322.00 23.60
323.00 23.16
324.00 23.37
325.00 24.28
326.00 26.01
327.00 28.92
328.00 34.09
329.00 46.74
330.00 36.36
331.00 30.24
332.00 27.07
333.00 25.29
334.00 24.47
335.00 24.53
336.00 25.55
337.00 27.79
338.00 31.96
339.00 41.01
340.00 43.97
341.00 36.13
342.00 34.64
343.00 36.09
344.00 36.01
345.00 30.62
346.00 26.21
347.00 23.43
348.00 21.92
349.00 21.52
350.00 22.29
351.00 24.55
352.00 29.43
353.00 40.77
354.00 31.49
355.00 26.72
356.00 25.61
357.00 27.66
358.00 31.02
359.00 22.36
