NAME ATR4518R7_1950_X_CO_P45_05T_yL
FREQUENCY 1950
GAIN 15.26 dBd
TILT	ELECTRICAL
COMMENT DATE 05.08.2013 +45 degrees polarized system Lever position 05T deg
HORIZONTAL 360
0.00 0.13
1.00 0.10
2.00 0.07
3.00 0.04
4.00 0.02
5.00 0.01
6.00 0.00
7.00 0.00
8.00 0.01
9.00 0.02
10.00 0.04
11.00 0.07
12.00 0.10
13.00 0.15
14.00 0.20
15.00 0.26
16.00 0.33
17.00 0.41
18.00 0.49
19.00 0.59
20.00 0.69
21.00 0.79
22.00 0.91
23.00 1.03
24.00 1.16
25.00 1.30
26.00 1.44
27.00 1.58
28.00 1.74
29.00 1.90
30.00 2.06
31.00 2.23
32.00 2.41
33.00 2.59
34.00 2.78
35.00 2.97
36.00 3.17
37.00 3.37
38.00 3.58
39.00 3.78
40.00 4.00
41.00 4.21
42.00 4.42
43.00 4.64
44.00 4.86
45.00 5.08
46.00 5.30
47.00 5.52
48.00 5.74
49.00 5.96
50.00 6.18
51.00 6.40
52.00 6.62
53.00 6.83
54.00 7.05
55.00 7.27
56.00 7.49
57.00 7.71
58.00 7.93
59.00 8.15
60.00 8.38
61.00 8.60
62.00 8.84
63.00 9.07
64.00 9.31
65.00 9.56
66.00 9.82
67.00 10.07
68.00 10.34
69.00 10.61
70.00 10.89
71.00 11.18
72.00 11.47
73.00 11.77
74.00 12.07
75.00 12.39
76.00 12.70
77.00 13.03
78.00 13.35
79.00 13.69
80.00 14.02
81.00 14.36
82.00 14.71
83.00 15.05
84.00 15.40
85.00 15.76
86.00 16.11
87.00 16.47
88.00 16.83
89.00 17.19
90.00 17.56
91.00 17.93
92.00 18.30
93.00 18.68
94.00 19.06
95.00 19.44
96.00 19.84
97.00 20.24
98.00 20.64
99.00 21.05
100.00 21.46
101.00 21.87
102.00 22.29
103.00 22.71
104.00 23.12
105.00 23.54
106.00 23.95
107.00 24.36
108.00 24.76
109.00 25.16
110.00 25.56
111.00 25.96
112.00 26.36
113.00 26.78
114.00 27.20
115.00 27.65
116.00 28.12
117.00 28.62
118.00 29.16
119.00 29.74
120.00 30.36
121.00 31.04
122.00 31.77
123.00 32.56
124.00 33.42
125.00 34.35
126.00 35.34
127.00 36.40
128.00 37.52
129.00 38.67
130.00 39.84
131.00 40.98
132.00 42.00
133.00 42.82
134.00 43.33
135.00 43.48
136.00 43.28
137.00 42.80
138.00 42.16
139.00 41.43
140.00 40.68
141.00 39.94
142.00 39.24
143.00 38.60
144.00 38.02
145.00 37.51
146.00 37.08
147.00 36.74
148.00 36.46
149.00 36.28
150.00 36.16
151.00 36.12
152.00 36.14
153.00 36.22
154.00 36.33
155.00 36.44
156.00 36.55
157.00 36.61
158.00 36.60
159.00 36.50
160.00 36.29
161.00 35.99
162.00 35.64
163.00 35.24
164.00 34.83
165.00 34.44
166.00 34.09
167.00 33.78
168.00 33.54
169.00 33.36
170.00 33.25
171.00 33.21
172.00 33.23
173.00 33.31
174.00 33.45
175.00 33.63
176.00 33.84
177.00 34.06
178.00 34.27
179.00 34.46
180.00 34.60
181.00 34.70
182.00 34.73
183.00 34.71
184.00 34.66
185.00 34.60
186.00 34.56
187.00 34.54
188.00 34.59
189.00 34.71
190.00 34.93
191.00 35.26
192.00 35.72
193.00 36.33
194.00 37.11
195.00 38.09
196.00 39.29
197.00 40.72
198.00 42.25
199.00 43.52
200.00 43.82
201.00 42.85
202.00 41.19
203.00 39.44
204.00 37.86
205.00 36.50
206.00 35.35
207.00 34.39
208.00 33.60
209.00 32.96
210.00 32.45
211.00 32.05
212.00 31.77
213.00 31.59
214.00 31.51
215.00 31.52
216.00 31.63
217.00 31.83
218.00 32.13
219.00 32.52
220.00 33.02
221.00 33.62
222.00 34.34
223.00 35.17
224.00 36.13
225.00 37.21
226.00 38.40
227.00 39.62
228.00 40.72
229.00 41.45
230.00 41.56
231.00 41.01
232.00 40.05
233.00 38.94
234.00 37.84
235.00 36.82
236.00 35.92
237.00 35.12
238.00 34.42
239.00 33.80
240.00 33.27
241.00 32.81
242.00 32.40
243.00 32.04
244.00 31.73
245.00 31.44
246.00 31.17
247.00 30.92
248.00 30.66
249.00 30.40
250.00 30.12
251.00 29.82
252.00 29.49
253.00 29.13
254.00 28.73
255.00 28.31
256.00 27.87
257.00 27.40
258.00 26.92
259.00 26.44
260.00 25.96
261.00 25.48
262.00 25.00
263.00 24.55
264.00 24.10
265.00 23.68
266.00 23.28
267.00 22.89
268.00 22.52
269.00 22.17
270.00 21.84
271.00 21.53
272.00 21.23
273.00 20.94
274.00 20.66
275.00 20.39
276.00 20.12
277.00 19.85
278.00 19.59
279.00 19.31
280.00 19.04
281.00 18.75
282.00 18.46
283.00 18.16
284.00 17.85
285.00 17.54
286.00 17.21
287.00 16.88
288.00 16.54
289.00 16.20
290.00 15.86
291.00 15.52
292.00 15.18
293.00 14.83
294.00 14.50
295.00 14.16
296.00 13.83
297.00 13.51
298.00 13.18
299.00 12.86
300.00 12.55
301.00 12.23
302.00 11.91
303.00 11.60
304.00 11.28
305.00 10.96
306.00 10.64
307.00 10.32
308.00 9.98
309.00 9.65
310.00 9.32
311.00 8.98
312.00 8.64
313.00 8.29
314.00 7.95
315.00 7.61
316.00 7.27
317.00 6.93
318.00 6.60
319.00 6.28
320.00 5.96
321.00 5.65
322.00 5.35
323.00 5.05
324.00 4.77
325.00 4.49
326.00 4.23
327.00 3.97
328.00 3.73
329.00 3.49
330.00 3.27
331.00 3.05
332.00 2.85
333.00 2.66
334.00 2.47
335.00 2.29
336.00 2.13
337.00 1.97
338.00 1.82
339.00 1.68
340.00 1.55
341.00 1.43
342.00 1.31
343.00 1.21
344.00 1.11
345.00 1.01
346.00 0.92
347.00 0.84
348.00 0.76
349.00 0.69
350.00 0.62
351.00 0.56
352.00 0.50
353.00 0.44
354.00 0.39
355.00 0.34
356.00 0.29
357.00 0.25
358.00 0.20
359.00 0.16
VERTICAL 360
0.00 8.74
1.00 5.18
2.00 2.69
3.00 1.06
4.00 0.18
5.00 0.00
6.00 0.57
7.00 1.98
8.00 4.45
9.00 8.55
10.00 16.20
11.00 24.83
12.00 15.37
13.00 12.99
14.00 13.56
15.00 16.81
16.00 24.23
17.00 22.13
18.00 16.28
19.00 13.78
20.00 13.11
21.00 13.87
22.00 16.12
23.00 20.43
24.00 27.49
25.00 25.68
26.00 21.51
27.00 20.01
28.00 20.25
29.00 22.02
30.00 25.76
31.00 31.69
32.00 28.70
33.00 24.03
34.00 21.71
35.00 20.77
36.00 20.62
37.00 20.83
38.00 21.03
39.00 21.02
40.00 20.84
41.00 20.74
42.00 20.95
43.00 21.59
44.00 22.42
45.00 22.84
46.00 22.55
47.00 22.09
48.00 22.00
49.00 22.39
50.00 23.14
51.00 24.15
52.00 25.45
53.00 27.32
54.00 30.32
55.00 35.61
56.00 45.43
57.00 38.97
58.00 34.05
59.00 31.51
60.00 29.98
61.00 29.14
62.00 28.79
63.00 28.82
64.00 29.20
65.00 30.01
66.00 31.28
67.00 32.89
68.00 34.48
69.00 35.68
70.00 36.58
71.00 37.78
72.00 39.51
73.00 41.20
74.00 41.97
75.00 41.45
76.00 39.85
77.00 38.28
78.00 37.45
79.00 37.31
80.00 37.74
81.00 38.65
82.00 39.08
83.00 37.55
84.00 35.67
85.00 35.09
86.00 36.25
87.00 39.34
88.00 44.51
89.00 50.49
90.00 50.21
91.00 45.12
92.00 41.48
93.00 39.83
94.00 39.75
95.00 40.84
96.00 42.86
97.00 45.13
98.00 44.86
99.00 42.77
100.00 41.77
101.00 42.07
102.00 42.88
103.00 43.77
104.00 45.30
105.00 47.35
106.00 48.55
107.00 50.33
108.00 57.23
109.00 58.25
110.00 50.56
111.00 48.87
112.00 49.37
113.00 49.98
114.00 50.37
115.00 51.42
116.00 53.19
117.00 50.29
118.00 43.67
119.00 39.11
120.00 36.54
121.00 35.53
122.00 35.74
123.00 36.80
124.00 38.20
125.00 39.33
126.00 39.82
127.00 39.84
128.00 39.79
129.00 39.78
130.00 39.87
131.00 39.79
132.00 38.84
133.00 36.91
134.00 34.92
135.00 33.49
136.00 32.70
137.00 32.37
138.00 32.10
139.00 31.56
140.00 30.88
141.00 30.62
142.00 31.22
143.00 32.97
144.00 36.09
145.00 40.69
146.00 45.40
147.00 44.43
148.00 41.33
149.00 39.68
150.00 39.34
151.00 38.75
152.00 37.04
153.00 35.91
154.00 36.67
155.00 40.33
156.00 50.66
157.00 47.28
158.00 41.21
159.00 38.19
160.00 35.86
161.00 34.60
162.00 35.00
163.00 37.43
164.00 41.16
165.00 40.33
166.00 37.69
167.00 36.74
168.00 36.92
169.00 37.40
170.00 38.14
171.00 40.06
172.00 45.03
173.00 51.52
174.00 41.21
175.00 36.13
176.00 33.38
177.00 32.06
178.00 31.84
179.00 32.45
180.00 33.39
181.00 34.09
182.00 34.54
183.00 35.34
184.00 36.97
185.00 39.25
186.00 39.37
187.00 36.69
188.00 34.83
189.00 34.69
190.00 35.97
191.00 37.22
192.00 37.20
193.00 37.72
194.00 40.67
195.00 47.95
196.00 66.81
197.00 57.89
198.00 43.27
199.00 36.52
200.00 33.17
201.00 31.99
202.00 32.45
203.00 34.15
204.00 36.55
205.00 39.17
206.00 42.18
207.00 43.83
208.00 40.02
209.00 35.80
210.00 32.88
211.00 31.09
212.00 30.35
213.00 30.71
214.00 32.29
215.00 35.16
216.00 38.27
217.00 39.06
218.00 39.23
219.00 40.75
220.00 40.60
221.00 37.38
222.00 35.09
223.00 34.37
224.00 34.84
225.00 36.06
226.00 37.79
227.00 39.84
228.00 40.16
229.00 37.36
230.00 34.71
231.00 33.42
232.00 33.51
233.00 34.86
234.00 37.39
235.00 40.93
236.00 45.29
237.00 50.39
238.00 56.16
239.00 62.41
240.00 65.32
241.00 55.03
242.00 47.72
243.00 42.63
244.00 39.29
245.00 37.51
246.00 37.14
247.00 38.05
248.00 40.18
249.00 43.61
250.00 49.23
251.00 55.02
252.00 45.80
253.00 40.07
254.00 36.49
255.00 34.24
256.00 32.91
257.00 32.19
258.00 31.79
259.00 31.52
260.00 31.37
261.00 31.49
262.00 32.08
263.00 33.20
264.00 34.71
265.00 36.12
266.00 36.73
267.00 36.18
268.00 34.76
269.00 32.98
270.00 31.26
271.00 29.91
272.00 29.09
273.00 28.74
274.00 28.67
275.00 28.64
276.00 28.51
277.00 28.34
278.00 28.28
279.00 28.52
280.00 29.17
281.00 30.13
282.00 30.97
283.00 31.10
284.00 30.43
285.00 29.62
286.00 29.25
287.00 29.67
288.00 31.12
289.00 34.02
290.00 39.39
291.00 40.98
292.00 34.17
293.00 29.96
294.00 27.47
295.00 26.10
296.00 25.55
297.00 25.61
298.00 26.06
299.00 26.78
300.00 27.85
301.00 29.58
302.00 32.50
303.00 36.75
304.00 35.54
305.00 30.34
306.00 26.75
307.00 24.50
308.00 23.34
309.00 23.18
310.00 24.10
311.00 26.35
312.00 30.76
313.00 39.12
314.00 33.39
315.00 27.56
316.00 24.51
317.00 22.93
318.00 22.46
319.00 22.99
320.00 24.53
321.00 27.07
322.00 29.84
323.00 29.85
324.00 27.48
325.00 25.42
326.00 24.00
327.00 22.78
328.00 21.52
329.00 20.37
330.00 19.61
331.00 19.42
332.00 19.92
333.00 21.34
334.00 24.26
335.00 30.61
336.00 34.14
337.00 25.08
338.00 21.12
339.00 19.54
340.00 19.79
341.00 22.13
342.00 28.53
343.00 38.94
344.00 25.27
345.00 21.73
346.00 21.38
347.00 24.04
348.00 33.56
349.00 28.78
350.00 21.39
351.00 18.52
352.00 17.78
353.00 18.59
354.00 20.48
355.00 22.42
356.00 24.04
357.00 26.35
358.00 21.15
359.00 13.82
