NAME ATR4518R7_2350_X_CO_M45_04T_yyR
FREQUENCY 2350
GAIN 15.22 dBd
TILT	ELECTRICAL
COMMENT DATE 05.08.2013 -45 degrees polarized system Lever position 04T deg
HORIZONTAL 360
0.00 0.00
1.00 0.00
2.00 0.01
3.00 0.03
4.00 0.05
5.00 0.09
6.00 0.13
7.00 0.18
8.00 0.24
9.00 0.31
10.00 0.38
11.00 0.45
12.00 0.54
13.00 0.62
14.00 0.71
15.00 0.81
16.00 0.91
17.00 1.01
18.00 1.12
19.00 1.23
20.00 1.34
21.00 1.46
22.00 1.58
23.00 1.71
24.00 1.84
25.00 1.98
26.00 2.13
27.00 2.29
28.00 2.46
29.00 2.63
30.00 2.82
31.00 3.02
32.00 3.23
33.00 3.46
34.00 3.70
35.00 3.95
36.00 4.21
37.00 4.50
38.00 4.79
39.00 5.10
40.00 5.43
41.00 5.77
42.00 6.12
43.00 6.49
44.00 6.87
45.00 7.26
46.00 7.67
47.00 8.08
48.00 8.51
49.00 8.94
50.00 9.39
51.00 9.84
52.00 10.30
53.00 10.76
54.00 11.23
55.00 11.70
56.00 12.17
57.00 12.65
58.00 13.13
59.00 13.62
60.00 14.11
61.00 14.61
62.00 15.12
63.00 15.63
64.00 16.15
65.00 16.68
66.00 17.23
67.00 17.79
68.00 18.36
69.00 18.94
70.00 19.53
71.00 20.14
72.00 20.75
73.00 21.36
74.00 21.98
75.00 22.58
76.00 23.16
77.00 23.73
78.00 24.25
79.00 24.73
80.00 25.16
81.00 25.53
82.00 25.84
83.00 26.11
84.00 26.33
85.00 26.53
86.00 26.69
87.00 26.85
88.00 27.00
89.00 27.16
90.00 27.33
91.00 27.50
92.00 27.69
93.00 27.89
94.00 28.09
95.00 28.29
96.00 28.46
97.00 28.61
98.00 28.71
99.00 28.77
100.00 28.78
101.00 28.73
102.00 28.64
103.00 28.51
104.00 28.37
105.00 28.21
106.00 28.07
107.00 27.94
108.00 27.85
109.00 27.80
110.00 27.81
111.00 27.86
112.00 27.99
113.00 28.18
114.00 28.45
115.00 28.80
116.00 29.23
117.00 29.76
118.00 30.38
119.00 31.11
120.00 31.94
121.00 32.89
122.00 33.96
123.00 35.14
124.00 36.40
125.00 37.70
126.00 38.92
127.00 39.88
128.00 40.44
129.00 40.55
130.00 40.31
131.00 39.92
132.00 39.51
133.00 39.17
134.00 38.94
135.00 38.83
136.00 38.81
137.00 38.87
138.00 38.96
139.00 39.03
140.00 39.01
141.00 38.87
142.00 38.57
143.00 38.13
144.00 37.59
145.00 37.00
146.00 36.42
147.00 35.88
148.00 35.41
149.00 35.02
150.00 34.74
151.00 34.57
152.00 34.52
153.00 34.58
154.00 34.78
155.00 35.12
156.00 35.60
157.00 36.24
158.00 37.07
159.00 38.09
160.00 39.32
161.00 40.72
162.00 42.16
163.00 43.27
164.00 43.49
165.00 42.66
166.00 41.25
167.00 39.76
168.00 38.41
169.00 37.24
170.00 36.27
171.00 35.48
172.00 34.85
173.00 34.37
174.00 34.02
175.00 33.79
176.00 33.68
177.00 33.67
178.00 33.76
179.00 33.95
180.00 34.23
181.00 34.62
182.00 35.09
183.00 35.65
184.00 36.29
185.00 37.00
186.00 37.78
187.00 38.59
188.00 39.41
189.00 40.16
190.00 40.81
191.00 41.26
192.00 41.49
193.00 41.49
194.00 41.30
195.00 40.98
196.00 40.60
197.00 40.19
198.00 39.79
199.00 39.42
200.00 39.07
201.00 38.76
202.00 38.48
203.00 38.23
204.00 38.01
205.00 37.83
206.00 37.67
207.00 37.56
208.00 37.48
209.00 37.44
210.00 37.45
211.00 37.51
212.00 37.63
213.00 37.80
214.00 38.04
215.00 38.36
216.00 38.75
217.00 39.22
218.00 39.79
219.00 40.46
220.00 41.25
221.00 42.16
222.00 43.21
223.00 44.43
224.00 45.85
225.00 47.50
226.00 49.43
227.00 51.71
228.00 54.26
229.00 56.75
230.00 57.90
231.00 56.83
232.00 54.74
233.00 52.69
234.00 50.80
235.00 49.08
236.00 47.48
237.00 45.96
238.00 44.49
239.00 43.09
240.00 41.74
241.00 40.49
242.00 39.29
243.00 38.18
244.00 37.15
245.00 36.19
246.00 35.31
247.00 34.49
248.00 33.74
249.00 33.04
250.00 32.41
251.00 31.82
252.00 31.28
253.00 30.78
254.00 30.31
255.00 29.87
256.00 29.46
257.00 29.05
258.00 28.66
259.00 28.27
260.00 27.87
261.00 27.48
262.00 27.06
263.00 26.64
264.00 26.20
265.00 25.75
266.00 25.28
267.00 24.80
268.00 24.31
269.00 23.81
270.00 23.31
271.00 22.81
272.00 22.31
273.00 21.81
274.00 21.32
275.00 20.84
276.00 20.36
277.00 19.90
278.00 19.44
279.00 18.99
280.00 18.55
281.00 18.12
282.00 17.70
283.00 17.29
284.00 16.88
285.00 16.48
286.00 16.09
287.00 15.70
288.00 15.31
289.00 14.93
290.00 14.55
291.00 14.17
292.00 13.79
293.00 13.41
294.00 13.03
295.00 12.65
296.00 12.27
297.00 11.89
298.00 11.51
299.00 11.13
300.00 10.75
301.00 10.36
302.00 9.99
303.00 9.61
304.00 9.23
305.00 8.86
306.00 8.49
307.00 8.13
308.00 7.77
309.00 7.41
310.00 7.07
311.00 6.73
312.00 6.40
313.00 6.07
314.00 5.76
315.00 5.45
316.00 5.16
317.00 4.88
318.00 4.60
319.00 4.34
320.00 4.09
321.00 3.85
322.00 3.63
323.00 3.41
324.00 3.21
325.00 3.01
326.00 2.83
327.00 2.66
328.00 2.50
329.00 2.35
330.00 2.21
331.00 2.07
332.00 1.95
333.00 1.83
334.00 1.72
335.00 1.61
336.00 1.51
337.00 1.42
338.00 1.33
339.00 1.24
340.00 1.15
341.00 1.07
342.00 0.99
343.00 0.91
344.00 0.83
345.00 0.75
346.00 0.68
347.00 0.60
348.00 0.53
349.00 0.46
350.00 0.39
351.00 0.32
352.00 0.26
353.00 0.21
354.00 0.16
355.00 0.11
356.00 0.07
357.00 0.04
358.00 0.02
359.00 0.00
VERTICAL 360
0.00 8.35
1.00 4.58
2.00 2.02
3.00 0.51
4.00 0.00
5.00 0.51
6.00 2.19
7.00 5.56
8.00 12.52
9.00 25.85
10.00 13.36
11.00 10.22
12.00 10.69
13.00 14.16
14.00 21.78
15.00 20.55
16.00 15.04
17.00 13.28
18.00 13.63
19.00 15.54
20.00 18.45
21.00 20.89
22.00 21.52
23.00 22.21
24.00 25.97
25.00 32.47
26.00 23.04
27.00 18.12
28.00 16.50
29.00 16.93
30.00 18.83
31.00 21.53
32.00 24.10
33.00 26.28
34.00 28.17
35.00 28.60
36.00 26.80
37.00 24.06
38.00 21.91
39.00 21.06
40.00 21.70
41.00 23.88
42.00 27.63
43.00 32.38
44.00 33.23
45.00 29.91
46.00 27.59
47.00 26.93
48.00 27.99
49.00 30.58
50.00 32.10
51.00 29.79
52.00 27.38
53.00 26.35
54.00 26.55
55.00 27.80
56.00 30.19
57.00 34.43
58.00 45.55
59.00 44.22
60.00 35.10
61.00 32.03
62.00 30.98
63.00 31.12
64.00 32.15
65.00 33.87
66.00 36.09
67.00 38.52
68.00 40.57
69.00 42.05
70.00 42.42
71.00 40.83
72.00 38.89
73.00 36.92
74.00 34.84
75.00 33.18
76.00 31.93
77.00 30.92
78.00 30.14
79.00 29.64
80.00 29.44
81.00 29.50
82.00 29.76
83.00 30.12
84.00 30.07
85.00 29.38
86.00 28.84
87.00 28.79
88.00 29.12
89.00 30.31
90.00 32.86
91.00 34.22
92.00 32.62
93.00 31.68
94.00 31.77
95.00 32.06
96.00 32.72
97.00 33.78
98.00 34.36
99.00 34.36
100.00 34.50
101.00 35.13
102.00 36.45
103.00 38.06
104.00 38.81
105.00 39.15
106.00 40.35
107.00 42.57
108.00 45.45
109.00 48.56
110.00 49.71
111.00 49.80
112.00 53.03
113.00 55.85
114.00 50.96
115.00 48.45
116.00 47.43
117.00 47.69
118.00 51.69
119.00 57.93
120.00 47.90
121.00 43.43
122.00 41.73
123.00 41.49
124.00 42.51
125.00 45.50
126.00 52.95
127.00 54.04
128.00 46.38
129.00 42.65
130.00 39.86
131.00 37.76
132.00 36.73
133.00 36.90
134.00 38.26
135.00 40.55
136.00 42.32
137.00 42.48
138.00 43.94
139.00 49.57
140.00 44.22
141.00 38.27
142.00 36.69
143.00 37.86
144.00 39.87
145.00 39.51
146.00 38.13
147.00 38.21
148.00 41.43
149.00 51.93
150.00 44.32
151.00 39.56
152.00 39.88
153.00 42.74
154.00 43.76
155.00 41.93
156.00 41.22
157.00 41.78
158.00 40.74
159.00 38.60
160.00 38.29
161.00 40.15
162.00 43.14
163.00 46.83
164.00 51.49
165.00 48.45
166.00 43.92
167.00 41.05
168.00 39.44
169.00 38.73
170.00 38.13
171.00 38.18
172.00 40.08
173.00 41.43
174.00 38.14
175.00 35.26
176.00 34.17
177.00 34.26
178.00 34.85
179.00 35.56
180.00 36.52
181.00 37.78
182.00 39.16
183.00 40.58
184.00 41.93
185.00 43.76
186.00 46.35
187.00 45.99
188.00 44.32
189.00 43.03
190.00 39.81
191.00 36.94
192.00 35.97
193.00 36.72
194.00 38.41
195.00 39.69
196.00 39.56
197.00 38.62
198.00 38.58
199.00 41.07
200.00 42.11
201.00 36.52
202.00 32.78
203.00 31.08
204.00 30.45
205.00 30.27
206.00 30.37
207.00 31.25
208.00 33.37
209.00 35.27
210.00 34.00
211.00 32.12
212.00 31.53
213.00 32.09
214.00 33.14
215.00 33.91
216.00 34.69
217.00 36.51
218.00 39.70
219.00 43.72
220.00 48.11
221.00 46.37
222.00 42.88
223.00 42.93
224.00 46.76
225.00 57.47
226.00 48.28
227.00 41.23
228.00 38.35
229.00 37.56
230.00 37.85
231.00 38.40
232.00 39.13
233.00 40.55
234.00 42.44
235.00 42.57
236.00 40.82
237.00 39.62
238.00 39.60
239.00 39.90
240.00 39.08
241.00 37.65
242.00 37.08
243.00 37.90
244.00 40.00
245.00 42.44
246.00 43.44
247.00 43.32
248.00 43.53
249.00 44.15
250.00 44.36
251.00 43.28
252.00 40.28
253.00 36.70
254.00 34.39
255.00 33.90
256.00 35.17
257.00 37.68
258.00 39.75
259.00 39.20
260.00 37.32
261.00 35.96
262.00 35.04
263.00 34.14
264.00 33.39
265.00 32.51
266.00 31.04
267.00 29.22
268.00 27.37
269.00 25.84
270.00 25.01
271.00 24.91
272.00 25.15
273.00 25.07
274.00 24.44
275.00 23.61
276.00 23.07
277.00 22.97
278.00 23.15
279.00 23.29
280.00 23.21
281.00 22.95
282.00 22.61
283.00 22.24
284.00 21.84
285.00 21.46
286.00 21.06
287.00 20.54
288.00 19.88
289.00 19.23
290.00 18.88
291.00 19.01
292.00 19.57
293.00 20.38
294.00 21.28
295.00 22.41
296.00 24.08
297.00 26.66
298.00 30.48
299.00 37.48
300.00 46.59
301.00 32.07
302.00 26.80
303.00 24.07
304.00 22.65
305.00 21.98
306.00 21.89
307.00 22.50
308.00 24.07
309.00 26.01
310.00 26.31
311.00 25.31
312.00 24.99
313.00 25.38
314.00 25.47
315.00 25.34
316.00 25.76
317.00 25.80
318.00 24.35
319.00 23.17
320.00 23.74
321.00 26.97
322.00 37.88
323.00 35.32
324.00 26.01
325.00 22.45
326.00 20.93
327.00 20.66
328.00 21.07
329.00 21.39
330.00 20.94
331.00 19.85
332.00 18.81
333.00 18.31
334.00 18.60
335.00 19.63
336.00 20.88
337.00 21.58
338.00 22.04
339.00 23.62
340.00 27.31
341.00 28.40
342.00 24.03
343.00 21.82
344.00 22.36
345.00 25.93
346.00 33.30
347.00 30.55
348.00 25.32
349.00 23.09
350.00 22.09
351.00 21.74
352.00 22.41
353.00 25.04
354.00 30.51
355.00 32.29
356.00 30.65
357.00 31.50
358.00 21.79
359.00 13.73
