NAME ATR4518R7_1950_X_CO_P45_09T_yL
FREQUENCY 1950
GAIN 14.67 dBd
TILT	ELECTRICAL
COMMENT DATE 05.08.2013 +45 degrees polarized system Lever position 09T deg
HORIZONTAL 360
0.00 0.06
1.00 0.05
2.00 0.03
3.00 0.02
4.00 0.01
5.00 0.01
6.00 0.00
7.00 0.00
8.00 0.00
9.00 0.01
10.00 0.02
11.00 0.04
12.00 0.06
13.00 0.09
14.00 0.13
15.00 0.17
16.00 0.22
17.00 0.28
18.00 0.35
19.00 0.42
20.00 0.51
21.00 0.60
22.00 0.71
23.00 0.82
24.00 0.94
25.00 1.07
26.00 1.21
27.00 1.36
28.00 1.52
29.00 1.68
30.00 1.86
31.00 2.04
32.00 2.23
33.00 2.42
34.00 2.62
35.00 2.83
36.00 3.04
37.00 3.26
38.00 3.48
39.00 3.70
40.00 3.92
41.00 4.15
42.00 4.38
43.00 4.60
44.00 4.83
45.00 5.05
46.00 5.27
47.00 5.49
48.00 5.71
49.00 5.93
50.00 6.14
51.00 6.35
52.00 6.56
53.00 6.77
54.00 6.98
55.00 7.19
56.00 7.39
57.00 7.60
58.00 7.81
59.00 8.02
60.00 8.24
61.00 8.46
62.00 8.68
63.00 8.91
64.00 9.14
65.00 9.38
66.00 9.63
67.00 9.89
68.00 10.15
69.00 10.42
70.00 10.70
71.00 10.99
72.00 11.29
73.00 11.59
74.00 11.90
75.00 12.23
76.00 12.55
77.00 12.88
78.00 13.22
79.00 13.55
80.00 13.89
81.00 14.23
82.00 14.57
83.00 14.91
84.00 15.25
85.00 15.58
86.00 15.90
87.00 16.22
88.00 16.54
89.00 16.84
90.00 17.14
91.00 17.44
92.00 17.73
93.00 18.02
94.00 18.30
95.00 18.59
96.00 18.88
97.00 19.16
98.00 19.45
99.00 19.75
100.00 20.05
101.00 20.36
102.00 20.67
103.00 20.99
104.00 21.31
105.00 21.64
106.00 21.98
107.00 22.31
108.00 22.64
109.00 22.98
110.00 23.31
111.00 23.64
112.00 23.95
113.00 24.27
114.00 24.57
115.00 24.87
116.00 25.16
117.00 25.44
118.00 25.72
119.00 25.99
120.00 26.25
121.00 26.52
122.00 26.78
123.00 27.04
124.00 27.31
125.00 27.57
126.00 27.83
127.00 28.09
128.00 28.34
129.00 28.60
130.00 28.84
131.00 29.08
132.00 29.30
133.00 29.51
134.00 29.71
135.00 29.89
136.00 30.06
137.00 30.21
138.00 30.36
139.00 30.49
140.00 30.61
141.00 30.74
142.00 30.86
143.00 30.99
144.00 31.14
145.00 31.30
146.00 31.48
147.00 31.70
148.00 31.94
149.00 32.23
150.00 32.55
151.00 32.92
152.00 33.33
153.00 33.78
154.00 34.28
155.00 34.81
156.00 35.35
157.00 35.90
158.00 36.40
159.00 36.84
160.00 37.17
161.00 37.35
162.00 37.38
163.00 37.25
164.00 37.02
165.00 36.71
166.00 36.37
167.00 36.03
168.00 35.71
169.00 35.43
170.00 35.21
171.00 35.04
172.00 34.92
173.00 34.86
174.00 34.84
175.00 34.88
176.00 34.96
177.00 35.07
178.00 35.21
179.00 35.37
180.00 35.54
181.00 35.71
182.00 35.90
183.00 36.09
184.00 36.29
185.00 36.51
186.00 36.77
187.00 37.07
188.00 37.44
189.00 37.90
190.00 38.48
191.00 39.21
192.00 40.15
193.00 41.39
194.00 43.02
195.00 45.30
196.00 48.71
197.00 54.48
198.00 57.70
199.00 50.18
200.00 45.41
201.00 42.19
202.00 39.79
203.00 37.89
204.00 36.33
205.00 35.03
206.00 33.92
207.00 32.97
208.00 32.17
209.00 31.48
210.00 30.90
211.00 30.41
212.00 30.01
213.00 29.68
214.00 29.44
215.00 29.28
216.00 29.18
217.00 29.15
218.00 29.19
219.00 29.30
220.00 29.48
221.00 29.74
222.00 30.06
223.00 30.46
224.00 30.95
225.00 31.51
226.00 32.17
227.00 32.93
228.00 33.79
229.00 34.76
230.00 35.84
231.00 37.02
232.00 38.25
233.00 39.43
234.00 40.35
235.00 40.77
236.00 40.57
237.00 39.87
238.00 38.91
239.00 37.90
240.00 36.93
241.00 36.03
242.00 35.24
243.00 34.53
244.00 33.89
245.00 33.32
246.00 32.80
247.00 32.32
248.00 31.86
249.00 31.41
250.00 30.95
251.00 30.49
252.00 30.00
253.00 29.49
254.00 28.96
255.00 28.41
256.00 27.84
257.00 27.26
258.00 26.67
259.00 26.08
260.00 25.50
261.00 24.94
262.00 24.38
263.00 23.85
264.00 23.35
265.00 22.87
266.00 22.41
267.00 21.98
268.00 21.58
269.00 21.21
270.00 20.86
271.00 20.54
272.00 20.24
273.00 19.96
274.00 19.70
275.00 19.46
276.00 19.24
277.00 19.02
278.00 18.82
279.00 18.62
280.00 18.42
281.00 18.22
282.00 18.02
283.00 17.81
284.00 17.59
285.00 17.36
286.00 17.12
287.00 16.87
288.00 16.60
289.00 16.32
290.00 16.02
291.00 15.72
292.00 15.41
293.00 15.09
294.00 14.76
295.00 14.43
296.00 14.10
297.00 13.77
298.00 13.43
299.00 13.10
300.00 12.77
301.00 12.43
302.00 12.11
303.00 11.77
304.00 11.44
305.00 11.11
306.00 10.78
307.00 10.45
308.00 10.12
309.00 9.78
310.00 9.44
311.00 9.11
312.00 8.76
313.00 8.43
314.00 8.08
315.00 7.74
316.00 7.40
317.00 7.06
318.00 6.73
319.00 6.39
320.00 6.07
321.00 5.74
322.00 5.43
323.00 5.11
324.00 4.81
325.00 4.52
326.00 4.23
327.00 3.96
328.00 3.69
329.00 3.43
330.00 3.18
331.00 2.94
332.00 2.72
333.00 2.50
334.00 2.29
335.00 2.10
336.00 1.91
337.00 1.74
338.00 1.58
339.00 1.42
340.00 1.28
341.00 1.15
342.00 1.03
343.00 0.91
344.00 0.81
345.00 0.72
346.00 0.63
347.00 0.56
348.00 0.49
349.00 0.43
350.00 0.37
351.00 0.32
352.00 0.28
353.00 0.24
354.00 0.21
355.00 0.18
356.00 0.15
357.00 0.12
358.00 0.10
359.00 0.08
VERTICAL 360
0.00 21.85
1.00 22.84
2.00 16.98
3.00 11.44
4.00 7.38
5.00 4.39
6.00 2.24
7.00 0.82
8.00 0.10
9.00 0.09
10.00 0.86
11.00 2.55
12.00 5.43
13.00 10.29
14.00 20.78
15.00 20.46
16.00 13.33
17.00 11.26
18.00 11.42
19.00 13.44
20.00 17.78
21.00 24.51
22.00 21.32
23.00 17.27
24.00 15.66
25.00 15.69
26.00 17.33
27.00 21.24
28.00 28.98
29.00 26.20
30.00 21.67
31.00 20.63
32.00 21.87
33.00 24.98
34.00 29.19
35.00 31.92
36.00 29.97
37.00 25.84
38.00 22.72
39.00 21.12
40.00 20.89
41.00 21.72
42.00 22.92
43.00 23.49
44.00 23.08
45.00 22.11
46.00 20.97
47.00 20.14
48.00 20.00
49.00 20.70
50.00 22.16
51.00 24.07
52.00 25.89
53.00 27.24
54.00 28.30
55.00 29.06
56.00 28.70
57.00 27.34
58.00 26.18
59.00 25.74
60.00 26.02
61.00 26.90
62.00 28.31
63.00 30.22
64.00 32.55
65.00 35.10
66.00 37.18
67.00 38.36
68.00 39.18
69.00 38.87
70.00 36.99
71.00 35.40
72.00 34.89
73.00 35.12
74.00 35.30
75.00 34.74
76.00 33.64
77.00 32.78
78.00 32.68
79.00 33.36
80.00 34.32
81.00 34.65
82.00 33.91
83.00 32.89
84.00 32.50
85.00 33.30
86.00 35.44
87.00 38.42
88.00 40.48
89.00 39.81
90.00 36.32
91.00 32.81
92.00 30.73
93.00 30.17
94.00 30.94
95.00 32.67
96.00 34.62
97.00 35.83
98.00 35.89
99.00 35.22
100.00 34.68
101.00 34.90
102.00 36.07
103.00 37.95
104.00 39.84
105.00 40.97
106.00 41.19
107.00 41.13
108.00 41.67
109.00 43.44
110.00 46.77
111.00 51.01
112.00 51.26
113.00 48.70
114.00 47.37
115.00 47.25
116.00 47.05
117.00 45.55
118.00 43.76
119.00 42.54
120.00 41.73
121.00 40.84
122.00 39.55
123.00 37.93
124.00 36.20
125.00 34.69
126.00 33.68
127.00 33.27
128.00 33.35
129.00 33.57
130.00 33.48
131.00 32.93
132.00 32.16
133.00 31.38
134.00 30.69
135.00 30.18
136.00 30.00
137.00 30.34
138.00 31.34
139.00 32.95
140.00 34.82
141.00 36.52
142.00 38.11
143.00 40.06
144.00 42.39
145.00 44.31
146.00 44.62
147.00 42.18
148.00 38.70
149.00 36.35
150.00 35.80
151.00 37.43
152.00 42.16
153.00 49.92
154.00 43.50
155.00 37.91
156.00 33.83
157.00 31.34
158.00 30.68
159.00 31.87
160.00 34.38
161.00 35.95
162.00 36.17
163.00 37.63
164.00 39.10
165.00 36.96
166.00 35.22
167.00 35.57
168.00 37.86
169.00 40.87
170.00 40.63
171.00 38.08
172.00 36.35
173.00 35.63
174.00 35.05
175.00 33.63
176.00 31.84
177.00 30.73
178.00 30.90
179.00 32.77
180.00 36.52
181.00 38.78
182.00 36.57
183.00 35.50
184.00 35.97
185.00 36.25
186.00 35.22
187.00 34.34
188.00 34.79
189.00 37.14
190.00 41.29
191.00 41.96
192.00 39.99
193.00 40.24
194.00 41.40
195.00 40.04
196.00 36.96
197.00 33.57
198.00 30.79
199.00 29.34
200.00 29.38
201.00 30.80
202.00 33.10
203.00 35.90
204.00 40.41
205.00 43.91
206.00 36.45
207.00 32.20
208.00 30.19
209.00 29.58
210.00 30.17
211.00 32.09
212.00 35.69
213.00 40.36
214.00 40.66
215.00 39.30
216.00 39.98
217.00 40.91
218.00 38.69
219.00 36.10
220.00 34.88
221.00 34.74
222.00 35.11
223.00 35.46
224.00 35.69
225.00 36.22
226.00 37.67
227.00 40.34
228.00 41.12
229.00 37.47
230.00 34.25
231.00 32.46
232.00 32.04
233.00 33.06
234.00 35.66
235.00 39.07
236.00 39.82
237.00 38.94
238.00 39.56
239.00 42.33
240.00 46.10
241.00 42.64
242.00 37.56
243.00 34.28
244.00 32.55
245.00 32.26
246.00 33.34
247.00 35.68
248.00 38.72
249.00 41.28
250.00 41.90
251.00 39.41
252.00 35.76
253.00 32.94
254.00 31.48
255.00 31.50
256.00 33.18
257.00 36.78
258.00 42.16
259.00 44.32
260.00 41.74
261.00 38.79
262.00 35.72
263.00 32.93
264.00 30.84
265.00 29.60
266.00 29.11
267.00 29.05
268.00 29.06
269.00 28.88
270.00 28.53
271.00 28.21
272.00 28.16
273.00 28.38
274.00 28.66
275.00 28.95
276.00 29.41
277.00 30.17
278.00 30.96
279.00 31.21
280.00 30.67
281.00 29.75
282.00 28.75
283.00 27.56
284.00 26.19
285.00 24.93
286.00 24.06
287.00 23.63
288.00 23.54
289.00 23.60
290.00 23.56
291.00 23.24
292.00 22.63
293.00 21.98
294.00 21.64
295.00 21.96
296.00 23.18
297.00 25.50
298.00 28.75
299.00 31.39
300.00 31.83
301.00 31.48
302.00 30.04
303.00 27.42
304.00 25.22
305.00 24.21
306.00 24.58
307.00 26.71
308.00 31.83
309.00 38.15
310.00 29.50
311.00 24.96
312.00 22.60
313.00 21.44
314.00 21.12
315.00 21.55
316.00 22.77
317.00 25.03
318.00 28.73
319.00 30.68
320.00 26.20
321.00 22.62
322.00 20.98
323.00 21.19
324.00 23.80
325.00 32.27
326.00 31.98
327.00 22.76
328.00 19.23
329.00 17.65
330.00 17.02
331.00 16.94
332.00 17.44
333.00 18.92
334.00 21.98
335.00 27.31
336.00 30.52
337.00 27.29
338.00 26.18
339.00 27.24
340.00 28.71
341.00 27.29
342.00 24.59
343.00 23.08
344.00 23.50
345.00 27.03
346.00 34.99
347.00 25.24
348.00 20.12
349.00 18.08
350.00 18.11
351.00 20.32
352.00 26.49
353.00 31.86
354.00 21.73
355.00 17.81
356.00 16.30
357.00 16.24
358.00 17.22
359.00 19.05
