NAME ATR4518R7_2655_X_CO_M45_00T_yyR
FREQUENCY 2655
GAIN 15.56 dBd
TILT	ELECTRICAL
COMMENT DATE 05.08.2013 -45 degrees polarized system Lever position 00T deg
HORIZONTAL 360
0.00 0.00
1.00 0.00
2.00 0.01
3.00 0.03
4.00 0.06
5.00 0.11
6.00 0.18
7.00 0.25
8.00 0.34
9.00 0.44
10.00 0.56
11.00 0.68
12.00 0.82
13.00 0.97
14.00 1.14
15.00 1.31
16.00 1.49
17.00 1.67
18.00 1.87
19.00 2.07
20.00 2.27
21.00 2.48
22.00 2.70
23.00 2.91
24.00 3.13
25.00 3.36
26.00 3.58
27.00 3.81
28.00 4.03
29.00 4.26
30.00 4.49
31.00 4.73
32.00 4.96
33.00 5.20
34.00 5.44
35.00 5.68
36.00 5.93
37.00 6.19
38.00 6.45
39.00 6.72
40.00 6.99
41.00 7.27
42.00 7.56
43.00 7.86
44.00 8.17
45.00 8.49
46.00 8.83
47.00 9.17
48.00 9.53
49.00 9.91
50.00 10.30
51.00 10.71
52.00 11.13
53.00 11.57
54.00 12.03
55.00 12.51
56.00 13.01
57.00 13.54
58.00 14.08
59.00 14.65
60.00 15.24
61.00 15.86
62.00 16.50
63.00 17.18
64.00 17.89
65.00 18.63
66.00 19.41
67.00 20.22
68.00 21.08
69.00 21.98
70.00 22.93
71.00 23.93
72.00 24.99
73.00 26.10
74.00 27.26
75.00 28.49
76.00 29.77
77.00 31.09
78.00 32.43
79.00 33.76
80.00 35.03
81.00 36.18
82.00 37.11
83.00 37.78
84.00 38.14
85.00 38.22
86.00 38.06
87.00 37.72
88.00 37.26
89.00 36.71
90.00 36.12
91.00 35.50
92.00 34.88
93.00 34.29
94.00 33.73
95.00 33.22
96.00 32.78
97.00 32.39
98.00 32.08
99.00 31.84
100.00 31.67
101.00 31.57
102.00 31.54
103.00 31.57
104.00 31.67
105.00 31.81
106.00 32.00
107.00 32.23
108.00 32.47
109.00 32.73
110.00 32.99
111.00 33.26
112.00 33.53
113.00 33.81
114.00 34.13
115.00 34.49
116.00 34.93
117.00 35.47
118.00 36.14
119.00 36.95
120.00 37.90
121.00 38.93
122.00 39.83
123.00 40.22
124.00 39.78
125.00 38.60
126.00 37.10
127.00 35.60
128.00 34.24
129.00 33.06
130.00 32.08
131.00 31.28
132.00 30.66
133.00 30.21
134.00 29.92
135.00 29.80
136.00 29.83
137.00 30.04
138.00 30.43
139.00 31.01
140.00 31.80
141.00 32.84
142.00 34.13
143.00 35.71
144.00 37.49
145.00 39.13
146.00 39.85
147.00 39.15
148.00 37.66
149.00 36.10
150.00 34.78
151.00 33.75
152.00 32.99
153.00 32.48
154.00 32.21
155.00 32.14
156.00 32.27
157.00 32.57
158.00 33.02
159.00 33.58
160.00 34.16
161.00 34.66
162.00 34.94
163.00 34.89
164.00 34.52
165.00 33.95
166.00 33.31
167.00 32.71
168.00 32.22
169.00 31.88
170.00 31.71
171.00 31.73
172.00 31.96
173.00 32.42
174.00 33.15
175.00 34.17
176.00 35.59
177.00 37.51
178.00 40.12
179.00 43.52
180.00 45.96
181.00 43.72
182.00 40.23
183.00 37.48
184.00 35.42
185.00 33.86
186.00 32.66
187.00 31.72
188.00 30.99
189.00 30.42
190.00 29.99
191.00 29.65
192.00 29.39
193.00 29.18
194.00 29.01
195.00 28.86
196.00 28.74
197.00 28.62
198.00 28.53
199.00 28.47
200.00 28.44
201.00 28.47
202.00 28.55
203.00 28.69
204.00 28.91
205.00 29.20
206.00 29.55
207.00 29.95
208.00 30.38
209.00 30.80
210.00 31.16
211.00 31.39
212.00 31.46
213.00 31.34
214.00 31.05
215.00 30.64
216.00 30.17
217.00 29.69
218.00 29.22
219.00 28.80
220.00 28.43
221.00 28.12
222.00 27.86
223.00 27.64
224.00 27.46
225.00 27.30
226.00 27.16
227.00 27.03
228.00 26.89
229.00 26.76
230.00 26.62
231.00 26.48
232.00 26.35
233.00 26.23
234.00 26.12
235.00 26.04
236.00 25.99
237.00 25.97
238.00 25.98
239.00 26.03
240.00 26.11
241.00 26.23
242.00 26.37
243.00 26.55
244.00 26.75
245.00 26.96
246.00 27.19
247.00 27.44
248.00 27.68
249.00 27.94
250.00 28.20
251.00 28.47
252.00 28.74
253.00 29.02
254.00 29.31
255.00 29.61
256.00 29.92
257.00 30.23
258.00 30.55
259.00 30.86
260.00 31.16
261.00 31.44
262.00 31.68
263.00 31.89
264.00 32.04
265.00 32.12
266.00 32.13
267.00 32.05
268.00 31.89
269.00 31.63
270.00 31.30
271.00 30.89
272.00 30.43
273.00 29.88
274.00 29.27
275.00 28.64
276.00 27.99
277.00 27.32
278.00 26.64
279.00 25.95
280.00 25.27
281.00 24.60
282.00 23.93
283.00 23.27
284.00 22.63
285.00 22.00
286.00 21.37
287.00 20.78
288.00 20.17
289.00 19.59
290.00 19.01
291.00 18.45
292.00 17.89
293.00 17.34
294.00 16.80
295.00 16.27
296.00 15.74
297.00 15.23
298.00 14.72
299.00 14.23
300.00 13.74
301.00 13.27
302.00 12.80
303.00 12.35
304.00 11.90
305.00 11.47
306.00 11.05
307.00 10.64
308.00 10.23
309.00 9.84
310.00 9.45
311.00 9.08
312.00 8.71
313.00 8.34
314.00 7.99
315.00 7.64
316.00 7.30
317.00 6.96
318.00 6.63
319.00 6.30
320.00 5.99
321.00 5.67
322.00 5.37
323.00 5.07
324.00 4.78
325.00 4.50
326.00 4.23
327.00 3.97
328.00 3.71
329.00 3.47
330.00 3.24
331.00 3.02
332.00 2.81
333.00 2.61
334.00 2.42
335.00 2.25
336.00 2.08
337.00 1.93
338.00 1.78
339.00 1.64
340.00 1.51
341.00 1.39
342.00 1.28
343.00 1.17
344.00 1.06
345.00 0.96
346.00 0.87
347.00 0.77
348.00 0.68
349.00 0.60
350.00 0.51
351.00 0.43
352.00 0.36
353.00 0.29
354.00 0.22
355.00 0.17
356.00 0.11
357.00 0.07
358.00 0.04
359.00 0.01
VERTICAL 360
0.00 0.00
1.00 0.78
2.00 3.14
3.00 7.80
4.00 17.92
5.00 21.45
6.00 15.13
7.00 15.42
8.00 16.96
9.00 14.54
10.00 11.91
11.00 11.59
12.00 14.01
13.00 20.45
14.00 21.43
15.00 16.09
16.00 15.02
17.00 17.61
18.00 24.06
19.00 21.16
20.00 16.31
21.00 14.50
22.00 14.05
23.00 14.06
24.00 14.02
25.00 13.60
26.00 12.71
27.00 11.77
28.00 11.34
29.00 11.83
30.00 13.57
31.00 17.12
32.00 24.51
33.00 32.19
34.00 22.75
35.00 19.81
36.00 20.35
37.00 24.84
38.00 37.39
39.00 26.75
40.00 22.17
41.00 21.25
42.00 22.26
43.00 25.23
44.00 30.29
45.00 30.53
46.00 27.97
47.00 28.87
48.00 34.77
49.00 43.05
50.00 34.08
51.00 30.66
52.00 29.23
53.00 28.65
54.00 29.21
55.00 31.85
56.00 33.18
57.00 26.99
58.00 21.84
59.00 18.43
60.00 16.08
61.00 14.55
62.00 13.74
63.00 13.53
64.00 13.71
65.00 14.10
66.00 14.63
67.00 15.34
68.00 16.26
69.00 17.30
70.00 18.35
71.00 19.29
72.00 20.12
73.00 20.93
74.00 21.74
75.00 22.55
76.00 23.40
77.00 24.17
78.00 24.70
79.00 25.04
80.00 25.33
81.00 25.95
82.00 27.24
83.00 28.54
84.00 28.29
85.00 27.04
86.00 25.95
87.00 25.53
88.00 26.22
89.00 27.91
90.00 29.18
91.00 29.36
92.00 29.45
93.00 29.25
94.00 29.02
95.00 29.99
96.00 32.18
97.00 33.51
98.00 33.51
99.00 33.79
100.00 34.09
101.00 34.16
102.00 34.32
103.00 34.45
104.00 34.69
105.00 35.41
106.00 36.76
107.00 38.31
108.00 39.36
109.00 39.66
110.00 38.21
111.00 36.41
112.00 35.94
113.00 36.21
114.00 36.35
115.00 36.50
116.00 36.60
117.00 37.14
118.00 39.00
119.00 41.89
120.00 43.90
121.00 44.17
122.00 43.43
123.00 41.24
124.00 39.23
125.00 39.64
126.00 41.60
127.00 41.15
128.00 40.57
129.00 42.02
130.00 43.90
131.00 43.20
132.00 40.28
133.00 39.42
134.00 41.80
135.00 45.77
136.00 46.95
137.00 44.28
138.00 42.15
139.00 43.68
140.00 45.85
141.00 44.62
142.00 46.03
143.00 51.24
144.00 51.23
145.00 42.40
146.00 38.93
147.00 40.40
148.00 48.31
149.00 61.80
150.00 55.73
151.00 45.71
152.00 45.30
153.00 51.88
154.00 42.84
155.00 40.60
156.00 43.81
157.00 44.14
158.00 41.35
159.00 38.51
160.00 36.63
161.00 37.60
162.00 40.10
163.00 40.76
164.00 41.99
165.00 43.17
166.00 42.86
167.00 44.65
168.00 46.59
169.00 40.78
170.00 36.25
171.00 35.55
172.00 37.20
173.00 35.88
174.00 33.92
175.00 34.49
176.00 35.90
177.00 37.72
178.00 43.12
179.00 47.96
180.00 45.33
181.00 48.48
182.00 48.39
183.00 44.89
184.00 43.83
185.00 41.34
186.00 39.35
187.00 37.25
188.00 34.51
189.00 33.43
190.00 35.79
191.00 41.58
192.00 39.76
193.00 36.85
194.00 37.32
195.00 40.28
196.00 47.73
197.00 43.31
198.00 38.14
199.00 38.27
200.00 39.06
201.00 36.70
202.00 35.67
203.00 36.74
204.00 37.46
205.00 35.33
206.00 31.93
207.00 29.63
208.00 29.18
209.00 30.55
210.00 33.43
211.00 36.94
212.00 39.57
213.00 40.92
214.00 43.19
215.00 48.59
216.00 46.96
217.00 39.37
218.00 35.44
219.00 34.27
220.00 34.65
221.00 34.83
222.00 35.11
223.00 37.20
224.00 41.82
225.00 46.57
226.00 42.46
227.00 38.72
228.00 37.26
229.00 35.14
230.00 32.84
231.00 32.38
232.00 34.12
233.00 37.30
234.00 38.98
235.00 38.15
236.00 37.89
237.00 39.49
238.00 42.08
239.00 41.04
240.00 37.36
241.00 34.47
242.00 32.85
243.00 32.55
244.00 33.51
245.00 35.23
246.00 36.93
247.00 38.31
248.00 39.75
249.00 40.84
250.00 38.45
251.00 34.56
252.00 31.86
253.00 30.47
254.00 30.26
255.00 30.78
256.00 30.81
257.00 30.27
258.00 30.39
259.00 31.84
260.00 33.93
261.00 33.49
262.00 31.41
263.00 30.90
264.00 32.46
265.00 35.66
266.00 38.52
267.00 37.80
268.00 35.83
269.00 34.94
270.00 34.76
271.00 34.50
272.00 33.75
273.00 32.75
274.00 32.08
275.00 31.82
276.00 31.96
277.00 32.69
278.00 33.66
279.00 33.94
280.00 33.77
281.00 33.86
282.00 34.37
283.00 35.32
284.00 36.53
285.00 38.02
286.00 40.13
287.00 38.17
288.00 32.26
289.00 27.71
290.00 24.65
291.00 22.58
292.00 21.08
293.00 19.84
294.00 18.72
295.00 17.78
296.00 17.16
297.00 16.99
298.00 17.31
299.00 18.11
300.00 19.40
301.00 21.36
302.00 24.44
303.00 29.73
304.00 37.71
305.00 32.75
306.00 27.40
307.00 24.59
308.00 23.31
309.00 23.26
310.00 23.78
311.00 23.16
312.00 21.26
313.00 20.00
314.00 20.53
315.00 23.72
316.00 28.49
317.00 24.91
318.00 21.18
319.00 20.14
320.00 20.77
321.00 22.59
322.00 25.69
323.00 27.43
324.00 23.28
325.00 19.65
326.00 18.12
327.00 18.16
328.00 19.33
329.00 21.21
330.00 22.91
331.00 22.55
332.00 19.81
333.00 16.70
334.00 14.54
335.00 13.82
336.00 14.82
337.00 18.17
338.00 26.72
339.00 28.10
340.00 20.49
341.00 18.81
342.00 20.67
343.00 27.94
344.00 34.08
345.00 24.92
346.00 23.89
347.00 27.86
348.00 31.55
349.00 24.66
350.00 21.99
351.00 22.73
352.00 23.43
353.00 22.42
354.00 27.33
355.00 25.72
356.00 11.85
357.00 5.90
358.00 2.43
359.00 0.54
