NAME ATR4518R7_2535_X_CO_M45_07T_yyR
FREQUENCY 2535
GAIN 15.55 dBd
TILT	ELECTRICAL
COMMENT DATE 05.08.2013 -45 degrees polarized system Lever position 07T deg
HORIZONTAL 360
0.00 0.01
1.00 0.02
2.00 0.05
3.00 0.09
4.00 0.14
5.00 0.19
6.00 0.26
7.00 0.34
8.00 0.43
9.00 0.52
10.00 0.62
11.00 0.73
12.00 0.84
13.00 0.96
14.00 1.08
15.00 1.21
16.00 1.35
17.00 1.49
18.00 1.64
19.00 1.79
20.00 1.96
21.00 2.12
22.00 2.30
23.00 2.49
24.00 2.69
25.00 2.90
26.00 3.12
27.00 3.35
28.00 3.59
29.00 3.84
30.00 4.11
31.00 4.39
32.00 4.68
33.00 4.98
34.00 5.30
35.00 5.62
36.00 5.95
37.00 6.30
38.00 6.66
39.00 7.02
40.00 7.39
41.00 7.77
42.00 8.16
43.00 8.56
44.00 8.96
45.00 9.38
46.00 9.79
47.00 10.21
48.00 10.64
49.00 11.08
50.00 11.52
51.00 11.96
52.00 12.42
53.00 12.87
54.00 13.32
55.00 13.78
56.00 14.23
57.00 14.68
58.00 15.12
59.00 15.56
60.00 15.98
61.00 16.40
62.00 16.81
63.00 17.21
64.00 17.61
65.00 18.00
66.00 18.40
67.00 18.80
68.00 19.21
69.00 19.64
70.00 20.09
71.00 20.58
72.00 21.10
73.00 21.66
74.00 22.26
75.00 22.92
76.00 23.63
77.00 24.38
78.00 25.17
79.00 25.98
80.00 26.77
81.00 27.51
82.00 28.11
83.00 28.53
84.00 28.72
85.00 28.69
86.00 28.48
87.00 28.16
88.00 27.79
89.00 27.43
90.00 27.11
91.00 26.85
92.00 26.66
93.00 26.56
94.00 26.55
95.00 26.62
96.00 26.79
97.00 27.05
98.00 27.40
99.00 27.86
100.00 28.42
101.00 29.07
102.00 29.83
103.00 30.69
104.00 31.63
105.00 32.64
106.00 33.67
107.00 34.66
108.00 35.49
109.00 36.08
110.00 36.34
111.00 36.33
112.00 36.12
113.00 35.83
114.00 35.55
115.00 35.33
116.00 35.20
117.00 35.17
118.00 35.26
119.00 35.46
120.00 35.77
121.00 36.20
122.00 36.73
123.00 37.35
124.00 38.07
125.00 38.85
126.00 39.66
127.00 40.49
128.00 41.27
129.00 41.98
130.00 42.58
131.00 43.04
132.00 43.38
133.00 43.63
134.00 43.82
135.00 43.98
136.00 44.11
137.00 44.21
138.00 44.26
139.00 44.21
140.00 44.03
141.00 43.68
142.00 43.17
143.00 42.53
144.00 41.79
145.00 41.02
146.00 40.23
147.00 39.49
148.00 38.79
149.00 38.15
150.00 37.57
151.00 37.08
152.00 36.66
153.00 36.32
154.00 36.07
155.00 35.90
156.00 35.82
157.00 35.84
158.00 35.94
159.00 36.15
160.00 36.46
161.00 36.89
162.00 37.44
163.00 38.10
164.00 38.92
165.00 39.88
166.00 40.99
167.00 42.25
168.00 43.63
169.00 45.05
170.00 46.29
171.00 47.06
172.00 47.14
173.00 46.64
174.00 45.85
175.00 45.00
176.00 44.20
177.00 43.48
178.00 42.85
179.00 42.27
180.00 41.74
181.00 41.22
182.00 40.72
183.00 40.24
184.00 39.78
185.00 39.36
186.00 39.00
187.00 38.73
188.00 38.55
189.00 38.48
190.00 38.55
191.00 38.77
192.00 39.16
193.00 39.72
194.00 40.44
195.00 41.30
196.00 42.17
197.00 42.76
198.00 42.72
199.00 41.92
200.00 40.62
201.00 39.16
202.00 37.77
203.00 36.54
204.00 35.50
205.00 34.64
206.00 33.96
207.00 33.46
208.00 33.12
209.00 32.94
210.00 32.94
211.00 33.10
212.00 33.43
213.00 33.94
214.00 34.62
215.00 35.46
216.00 36.40
217.00 37.26
218.00 37.76
219.00 37.60
220.00 36.75
221.00 35.50
222.00 34.15
223.00 32.88
224.00 31.74
225.00 30.76
226.00 29.93
227.00 29.25
228.00 28.70
229.00 28.27
230.00 27.96
231.00 27.75
232.00 27.64
233.00 27.62
234.00 27.67
235.00 27.79
236.00 27.97
237.00 28.19
238.00 28.44
239.00 28.70
240.00 28.94
241.00 29.14
242.00 29.29
243.00 29.36
244.00 29.36
245.00 29.29
246.00 29.16
247.00 28.99
248.00 28.79
249.00 28.57
250.00 28.37
251.00 28.17
252.00 27.99
253.00 27.83
254.00 27.69
255.00 27.58
256.00 27.49
257.00 27.42
258.00 27.37
259.00 27.34
260.00 27.32
261.00 27.30
262.00 27.29
263.00 27.27
264.00 27.24
265.00 27.19
266.00 27.10
267.00 26.97
268.00 26.78
269.00 26.52
270.00 26.18
271.00 25.78
272.00 25.32
273.00 24.79
274.00 24.23
275.00 23.63
276.00 23.02
277.00 22.41
278.00 21.79
279.00 21.19
280.00 20.60
281.00 20.03
282.00 19.48
283.00 18.95
284.00 18.45
285.00 17.96
286.00 17.50
287.00 17.05
288.00 16.62
289.00 16.20
290.00 15.80
291.00 15.41
292.00 15.02
293.00 14.64
294.00 14.26
295.00 13.89
296.00 13.52
297.00 13.14
298.00 12.77
299.00 12.39
300.00 12.02
301.00 11.64
302.00 11.25
303.00 10.87
304.00 10.49
305.00 10.10
306.00 9.72
307.00 9.35
308.00 8.97
309.00 8.60
310.00 8.23
311.00 7.87
312.00 7.51
313.00 7.16
314.00 6.82
315.00 6.49
316.00 6.16
317.00 5.85
318.00 5.55
319.00 5.25
320.00 4.97
321.00 4.70
322.00 4.45
323.00 4.20
324.00 3.96
325.00 3.74
326.00 3.53
327.00 3.32
328.00 3.13
329.00 2.95
330.00 2.78
331.00 2.62
332.00 2.47
333.00 2.32
334.00 2.18
335.00 2.05
336.00 1.92
337.00 1.80
338.00 1.68
339.00 1.57
340.00 1.45
341.00 1.34
342.00 1.23
343.00 1.12
344.00 1.01
345.00 0.91
346.00 0.81
347.00 0.71
348.00 0.61
349.00 0.52
350.00 0.43
351.00 0.35
352.00 0.27
353.00 0.20
354.00 0.15
355.00 0.10
356.00 0.06
357.00 0.03
358.00 0.01
359.00 0.00
VERTICAL 360
0.00 19.71
1.00 17.81
2.00 13.62
3.00 8.81
4.00 4.90
5.00 2.15
6.00 0.53
7.00 0.00
8.00 0.63
9.00 2.65
10.00 6.76
11.00 16.62
12.00 20.99
13.00 11.68
14.00 10.16
15.00 11.83
16.00 16.21
17.00 17.84
18.00 14.30
19.00 13.05
20.00 14.52
21.00 19.64
22.00 30.69
23.00 21.75
24.00 18.29
25.00 19.20
26.00 25.51
27.00 28.36
28.00 18.84
29.00 15.71
30.00 15.48
31.00 17.71
32.00 23.20
33.00 33.37
34.00 29.32
35.00 26.49
36.00 26.38
37.00 26.10
38.00 24.25
39.00 21.57
40.00 19.69
41.00 19.55
42.00 21.71
43.00 26.88
44.00 29.79
45.00 25.42
46.00 23.28
47.00 23.10
48.00 24.74
49.00 29.21
50.00 38.47
51.00 32.45
52.00 28.17
53.00 27.83
54.00 29.45
55.00 30.52
56.00 30.17
57.00 30.10
58.00 30.14
59.00 29.20
60.00 27.89
61.00 27.68
62.00 29.07
63.00 31.35
64.00 32.54
65.00 32.24
66.00 32.20
67.00 34.12
68.00 39.48
69.00 45.66
70.00 44.54
71.00 44.61
72.00 43.93
73.00 39.61
74.00 34.82
75.00 32.95
76.00 33.51
77.00 34.75
78.00 35.81
79.00 37.93
80.00 40.16
81.00 44.24
82.00 52.43
83.00 39.47
84.00 35.14
85.00 31.23
86.00 28.29
87.00 28.13
88.00 32.17
89.00 43.90
90.00 36.63
91.00 34.80
92.00 35.42
93.00 32.31
94.00 30.62
95.00 31.64
96.00 34.20
97.00 35.72
98.00 34.81
99.00 33.72
100.00 34.28
101.00 36.93
102.00 40.20
103.00 40.07
104.00 37.29
105.00 35.70
106.00 36.54
107.00 39.83
108.00 43.83
109.00 44.26
110.00 42.81
111.00 43.17
112.00 43.77
113.00 41.10
114.00 39.78
115.00 41.40
116.00 46.33
117.00 53.87
118.00 45.84
119.00 43.03
120.00 44.77
121.00 45.82
122.00 44.11
123.00 42.13
124.00 38.31
125.00 36.44
126.00 37.72
127.00 41.72
128.00 42.04
129.00 39.17
130.00 38.95
131.00 41.24
132.00 44.66
133.00 45.61
134.00 41.78
135.00 38.79
136.00 38.64
137.00 39.59
138.00 38.55
139.00 37.89
140.00 39.27
141.00 41.25
142.00 40.74
143.00 38.91
144.00 38.36
145.00 39.12
146.00 39.47
147.00 39.07
148.00 39.04
149.00 39.57
150.00 40.61
151.00 40.36
152.00 38.22
153.00 36.87
154.00 37.10
155.00 38.90
156.00 42.39
157.00 46.61
158.00 46.08
159.00 43.42
160.00 42.63
161.00 43.21
162.00 43.70
163.00 42.61
164.00 40.19
165.00 38.91
166.00 40.15
167.00 44.76
168.00 56.95
169.00 56.95
170.00 49.43
171.00 46.41
172.00 44.46
173.00 42.27
174.00 39.40
175.00 37.11
176.00 35.59
177.00 33.99
178.00 32.76
179.00 33.22
180.00 35.59
181.00 37.69
182.00 37.99
183.00 39.45
184.00 43.34
185.00 45.89
186.00 41.57
187.00 38.98
188.00 37.83
189.00 35.92
190.00 34.18
191.00 33.84
192.00 34.64
193.00 35.87
194.00 36.90
195.00 37.48
196.00 39.09
197.00 45.35
198.00 44.30
199.00 36.28
200.00 33.63
201.00 33.65
202.00 35.45
203.00 38.40
204.00 39.62
205.00 37.72
206.00 37.44
207.00 38.77
208.00 37.14
209.00 34.45
210.00 33.35
211.00 33.26
212.00 33.42
213.00 33.94
214.00 35.78
215.00 39.60
216.00 40.96
217.00 38.00
218.00 36.49
219.00 36.14
220.00 36.64
221.00 38.18
222.00 40.11
223.00 41.18
224.00 41.08
225.00 40.35
226.00 39.73
227.00 39.04
228.00 37.94
229.00 36.91
230.00 36.37
231.00 36.52
232.00 37.69
233.00 40.18
234.00 42.37
235.00 41.34
236.00 40.30
237.00 40.39
238.00 39.74
239.00 38.32
240.00 37.65
241.00 37.88
242.00 38.43
243.00 38.98
244.00 39.63
245.00 40.36
246.00 41.22
247.00 41.85
248.00 40.71
249.00 38.38
250.00 37.24
251.00 38.02
252.00 39.01
253.00 37.94
254.00 37.40
255.00 39.02
256.00 42.90
257.00 47.65
258.00 44.36
259.00 41.49
260.00 42.57
261.00 45.61
262.00 45.76
263.00 45.98
264.00 45.75
265.00 41.09
266.00 35.53
267.00 31.66
268.00 29.74
269.00 29.31
270.00 29.50
271.00 29.46
272.00 29.26
273.00 29.59
274.00 30.67
275.00 31.91
276.00 32.12
277.00 31.02
278.00 29.75
279.00 29.26
280.00 29.66
281.00 30.44
282.00 30.79
283.00 30.33
284.00 29.65
285.00 29.59
286.00 30.33
287.00 31.32
288.00 31.68
289.00 31.07
290.00 30.09
291.00 29.49
292.00 29.51
293.00 30.05
294.00 31.32
295.00 34.21
296.00 36.98
297.00 30.40
298.00 24.48
299.00 20.57
300.00 17.77
301.00 15.64
302.00 13.94
303.00 12.65
304.00 11.83
305.00 11.55
306.00 11.83
307.00 12.68
308.00 14.20
309.00 16.77
310.00 21.36
311.00 28.80
312.00 24.52
313.00 19.49
314.00 17.47
315.00 17.25
316.00 18.58
317.00 21.54
318.00 25.35
319.00 24.96
320.00 22.03
321.00 20.79
322.00 21.79
323.00 26.40
324.00 40.16
325.00 26.43
326.00 21.84
327.00 20.98
328.00 22.82
329.00 28.51
330.00 30.04
331.00 21.89
332.00 18.45
333.00 18.12
334.00 21.59
335.00 34.00
336.00 21.55
337.00 15.74
338.00 13.62
339.00 13.61
340.00 15.63
341.00 20.88
342.00 32.20
343.00 24.69
344.00 21.33
345.00 22.12
346.00 25.75
347.00 28.86
348.00 25.74
349.00 23.23
350.00 22.90
351.00 24.41
352.00 26.67
353.00 28.06
354.00 30.03
355.00 30.06
356.00 24.79
357.00 21.49
358.00 20.32
359.00 20.13
