NAME ATR4518R7_1750_X_CO_P45_06T_yL
FREQUENCY 1750
GAIN 15.04 dBd
TILT	ELECTRICAL
COMMENT DATE 05.08.2013 +45 degrees polarized system Lever position 06T deg
HORIZONTAL 360
0.00 0.02
1.00 0.01
2.00 0.00
3.00 0.01
4.00 0.03
5.00 0.05
6.00 0.08
7.00 0.12
8.00 0.16
9.00 0.21
10.00 0.27
11.00 0.33
12.00 0.40
13.00 0.47
14.00 0.54
15.00 0.62
16.00 0.71
17.00 0.79
18.00 0.88
19.00 0.98
20.00 1.07
21.00 1.18
22.00 1.28
23.00 1.39
24.00 1.50
25.00 1.62
26.00 1.74
27.00 1.87
28.00 2.00
29.00 2.14
30.00 2.28
31.00 2.43
32.00 2.59
33.00 2.75
34.00 2.91
35.00 3.09
36.00 3.26
37.00 3.45
38.00 3.63
39.00 3.83
40.00 4.02
41.00 4.23
42.00 4.43
43.00 4.64
44.00 4.86
45.00 5.07
46.00 5.29
47.00 5.52
48.00 5.74
49.00 5.97
50.00 6.20
51.00 6.43
52.00 6.67
53.00 6.90
54.00 7.14
55.00 7.38
56.00 7.63
57.00 7.88
58.00 8.13
59.00 8.39
60.00 8.65
61.00 8.92
62.00 9.19
63.00 9.47
64.00 9.75
65.00 10.04
66.00 10.34
67.00 10.65
68.00 10.97
69.00 11.29
70.00 11.62
71.00 11.96
72.00 12.31
73.00 12.67
74.00 13.03
75.00 13.40
76.00 13.78
77.00 14.18
78.00 14.57
79.00 14.97
80.00 15.37
81.00 15.77
82.00 16.18
83.00 16.58
84.00 16.98
85.00 17.39
86.00 17.78
87.00 18.17
88.00 18.55
89.00 18.92
90.00 19.28
91.00 19.63
92.00 19.98
93.00 20.31
94.00 20.64
95.00 20.96
96.00 21.27
97.00 21.58
98.00 21.89
99.00 22.19
100.00 22.50
101.00 22.80
102.00 23.11
103.00 23.42
104.00 23.74
105.00 24.05
106.00 24.38
107.00 24.71
108.00 25.04
109.00 25.37
110.00 25.72
111.00 26.08
112.00 26.44
113.00 26.82
114.00 27.21
115.00 27.62
116.00 28.05
117.00 28.51
118.00 28.98
119.00 29.47
120.00 29.98
121.00 30.48
122.00 30.96
123.00 31.39
124.00 31.73
125.00 31.95
126.00 32.02
127.00 31.93
128.00 31.70
129.00 31.36
130.00 30.96
131.00 30.52
132.00 30.08
133.00 29.68
134.00 29.32
135.00 29.02
136.00 28.79
137.00 28.64
138.00 28.56
139.00 28.57
140.00 28.66
141.00 28.85
142.00 29.15
143.00 29.55
144.00 30.06
145.00 30.71
146.00 31.51
147.00 32.48
148.00 33.66
149.00 35.09
150.00 36.85
151.00 39.05
152.00 41.79
153.00 44.94
154.00 46.83
155.00 45.27
156.00 42.58
157.00 40.33
158.00 38.63
159.00 37.38
160.00 36.48
161.00 35.86
162.00 35.49
163.00 35.33
164.00 35.39
165.00 35.66
166.00 36.14
167.00 36.87
168.00 37.87
169.00 39.19
170.00 40.91
171.00 43.08
172.00 45.45
173.00 46.73
174.00 45.38
175.00 42.85
176.00 40.51
177.00 38.61
178.00 37.08
179.00 35.87
180.00 34.92
181.00 34.18
182.00 33.62
183.00 33.24
184.00 33.00
185.00 32.90
186.00 32.95
187.00 33.13
188.00 33.46
189.00 33.93
190.00 34.54
191.00 35.30
192.00 36.22
193.00 37.24
194.00 38.30
195.00 39.22
196.00 39.69
197.00 39.49
198.00 38.68
199.00 37.53
200.00 36.31
201.00 35.15
202.00 34.10
203.00 33.19
204.00 32.40
205.00 31.74
206.00 31.18
207.00 30.74
208.00 30.38
209.00 30.12
210.00 29.94
211.00 29.84
212.00 29.83
213.00 29.90
214.00 30.04
215.00 30.28
216.00 30.61
217.00 31.04
218.00 31.58
219.00 32.25
220.00 33.07
221.00 34.07
222.00 35.31
223.00 36.88
224.00 38.91
225.00 41.66
226.00 45.68
227.00 51.12
228.00 49.07
229.00 43.75
230.00 40.11
231.00 37.49
232.00 35.49
233.00 33.89
234.00 32.58
235.00 31.48
236.00 30.54
237.00 29.75
238.00 29.07
239.00 28.49
240.00 27.99
241.00 27.56
242.00 27.21
243.00 26.90
244.00 26.64
245.00 26.43
246.00 26.24
247.00 26.08
248.00 25.94
249.00 25.81
250.00 25.68
251.00 25.55
252.00 25.40
253.00 25.24
254.00 25.06
255.00 24.86
256.00 24.63
257.00 24.37
258.00 24.10
259.00 23.80
260.00 23.49
261.00 23.16
262.00 22.82
263.00 22.48
264.00 22.13
265.00 21.77
266.00 21.41
267.00 21.05
268.00 20.69
269.00 20.33
270.00 19.97
271.00 19.61
272.00 19.24
273.00 18.88
274.00 18.51
275.00 18.14
276.00 17.78
277.00 17.41
278.00 17.04
279.00 16.67
280.00 16.30
281.00 15.94
282.00 15.57
283.00 15.21
284.00 14.85
285.00 14.49
286.00 14.13
287.00 13.78
288.00 13.43
289.00 13.09
290.00 12.75
291.00 12.42
292.00 12.09
293.00 11.76
294.00 11.45
295.00 11.14
296.00 10.84
297.00 10.54
298.00 10.24
299.00 9.96
300.00 9.69
301.00 9.42
302.00 9.15
303.00 8.90
304.00 8.65
305.00 8.41
306.00 8.18
307.00 7.95
308.00 7.72
309.00 7.51
310.00 7.30
311.00 7.09
312.00 6.89
313.00 6.70
314.00 6.50
315.00 6.31
316.00 6.13
317.00 5.95
318.00 5.76
319.00 5.58
320.00 5.40
321.00 5.22
322.00 5.04
323.00 4.86
324.00 4.68
325.00 4.50
326.00 4.32
327.00 4.13
328.00 3.95
329.00 3.77
330.00 3.59
331.00 3.41
332.00 3.23
333.00 3.05
334.00 2.87
335.00 2.70
336.00 2.53
337.00 2.36
338.00 2.19
339.00 2.03
340.00 1.88
341.00 1.72
342.00 1.57
343.00 1.43
344.00 1.29
345.00 1.16
346.00 1.03
347.00 0.91
348.00 0.80
349.00 0.69
350.00 0.59
351.00 0.49
352.00 0.41
353.00 0.33
354.00 0.26
355.00 0.20
356.00 0.14
357.00 0.10
358.00 0.06
359.00 0.04
VERTICAL 360
0.00 15.26
1.00 9.90
2.00 6.05
3.00 3.34
4.00 1.51
5.00 0.42
6.00 0.00
7.00 0.25
8.00 1.20
9.00 2.98
10.00 5.92
11.00 10.82
12.00 21.71
13.00 20.83
14.00 13.51
15.00 11.22
16.00 10.99
17.00 12.40
18.00 15.87
19.00 24.06
20.00 29.16
21.00 18.95
22.00 15.85
23.00 15.01
24.00 15.56
25.00 17.28
26.00 19.93
27.00 21.61
28.00 19.96
29.00 17.87
30.00 16.94
31.00 17.27
32.00 18.84
33.00 21.83
34.00 26.37
35.00 26.06
36.00 20.91
37.00 17.54
38.00 15.77
39.00 15.24
40.00 15.68
41.00 16.79
42.00 18.18
43.00 19.63
44.00 21.44
45.00 24.37
46.00 29.59
47.00 33.94
48.00 28.85
49.00 25.97
50.00 25.02
51.00 24.81
52.00 24.41
53.00 23.71
54.00 23.22
55.00 23.16
56.00 23.30
57.00 23.27
58.00 23.10
59.00 23.11
60.00 23.53
61.00 24.32
62.00 25.28
63.00 26.17
64.00 26.95
65.00 27.78
66.00 28.83
67.00 30.09
68.00 31.30
69.00 32.13
70.00 32.59
71.00 33.04
72.00 33.88
73.00 35.25
74.00 36.85
75.00 38.04
76.00 38.43
77.00 38.31
78.00 38.45
79.00 39.70
80.00 42.73
81.00 48.17
82.00 55.39
83.00 54.63
84.00 47.40
85.00 42.43
86.00 39.82
87.00 39.00
88.00 39.44
89.00 40.56
90.00 41.62
91.00 41.62
92.00 40.28
93.00 38.78
94.00 38.08
95.00 38.34
96.00 39.41
97.00 40.96
98.00 42.09
99.00 41.63
100.00 40.44
101.00 39.91
102.00 40.39
103.00 41.81
104.00 43.98
105.00 46.06
106.00 46.30
107.00 45.35
108.00 44.71
109.00 44.57
110.00 44.94
111.00 45.52
112.00 45.03
113.00 43.62
114.00 42.83
115.00 43.14
116.00 44.24
117.00 45.41
118.00 45.58
119.00 44.48
120.00 43.12
121.00 42.01
122.00 40.97
123.00 39.72
124.00 38.20
125.00 36.70
126.00 35.52
127.00 34.78
128.00 34.31
129.00 33.99
130.00 33.98
131.00 34.52
132.00 35.66
133.00 37.18
134.00 38.61
135.00 39.47
136.00 39.79
137.00 40.14
138.00 41.07
139.00 42.87
140.00 45.67
141.00 49.94
142.00 58.71
143.00 53.91
144.00 45.16
145.00 40.28
146.00 37.24
147.00 35.42
148.00 34.45
149.00 34.05
150.00 34.06
151.00 34.65
152.00 36.38
153.00 40.43
154.00 47.87
155.00 41.25
156.00 36.41
157.00 34.21
158.00 33.32
159.00 33.16
160.00 33.66
161.00 34.89
162.00 36.48
163.00 37.06
164.00 36.29
165.00 35.57
166.00 35.53
167.00 36.08
168.00 36.85
169.00 37.13
170.00 36.19
171.00 34.69
172.00 33.60
173.00 33.26
174.00 33.62
175.00 34.67
176.00 36.38
177.00 39.13
178.00 43.88
179.00 54.22
180.00 54.41
181.00 47.37
182.00 45.58
183.00 46.76
184.00 53.13
185.00 51.50
186.00 42.46
187.00 38.44
188.00 36.64
189.00 36.14
190.00 36.23
191.00 36.68
192.00 38.15
193.00 42.04
194.00 45.28
195.00 39.22
196.00 35.88
197.00 35.23
198.00 36.79
199.00 40.75
200.00 48.88
201.00 51.74
202.00 41.91
203.00 36.99
204.00 34.25
205.00 33.09
206.00 33.23
207.00 34.49
208.00 36.44
209.00 37.67
210.00 36.98
211.00 35.53
212.00 34.30
213.00 33.39
214.00 32.93
215.00 33.16
216.00 34.21
217.00 35.95
218.00 37.77
219.00 38.70
220.00 38.64
221.00 38.31
222.00 38.15
223.00 38.31
224.00 39.01
225.00 40.44
226.00 42.43
227.00 43.56
228.00 42.62
229.00 41.05
230.00 39.78
231.00 38.83
232.00 38.28
233.00 38.43
234.00 39.68
235.00 42.38
236.00 45.95
237.00 45.79
238.00 42.79
239.00 40.71
240.00 39.79
241.00 39.82
242.00 40.60
243.00 41.95
244.00 43.84
245.00 46.18
246.00 46.91
247.00 44.17
248.00 41.13
249.00 39.14
250.00 38.19
251.00 38.03
252.00 38.25
253.00 38.51
254.00 38.72
255.00 39.02
256.00 39.73
257.00 41.10
258.00 42.59
259.00 42.65
260.00 41.76
261.00 41.60
262.00 42.45
263.00 43.69
264.00 44.89
265.00 46.53
266.00 48.65
267.00 50.03
268.00 50.02
269.00 46.09
270.00 41.37
271.00 38.63
272.00 37.93
273.00 38.97
274.00 40.37
275.00 39.31
276.00 36.73
277.00 34.36
278.00 32.40
279.00 30.82
280.00 29.55
281.00 28.48
282.00 27.47
283.00 26.46
284.00 25.49
285.00 24.68
286.00 24.14
287.00 23.88
288.00 23.82
289.00 23.88
290.00 24.08
291.00 24.57
292.00 25.63
293.00 27.60
294.00 30.86
295.00 34.71
296.00 33.91
297.00 30.33
298.00 27.56
299.00 25.55
300.00 24.09
301.00 23.15
302.00 22.81
303.00 23.20
304.00 24.51
305.00 27.14
306.00 32.28
307.00 47.38
308.00 33.57
309.00 27.35
310.00 23.96
311.00 21.86
312.00 20.65
313.00 20.29
314.00 20.92
315.00 22.84
316.00 26.76
317.00 31.65
318.00 27.00
319.00 22.31
320.00 19.46
321.00 17.66
322.00 16.62
323.00 16.32
324.00 16.86
325.00 18.46
326.00 21.26
327.00 24.31
328.00 23.77
329.00 21.32
330.00 19.88
331.00 19.78
332.00 21.20
333.00 24.69
334.00 31.17
335.00 30.71
336.00 26.33
337.00 24.99
338.00 25.80
339.00 28.39
340.00 30.92
341.00 28.27
342.00 24.65
343.00 22.55
344.00 21.93
345.00 22.67
346.00 23.95
347.00 22.92
348.00 19.79
349.00 17.18
350.00 15.70
351.00 15.42
352.00 16.59
353.00 19.93
354.00 28.87
355.00 29.91
356.00 21.45
357.00 19.31
358.00 20.03
359.00 20.56
