NAME ATR4518R7_1850_X_CO_P45_01T_yyR
FREQUENCY 1850
GAIN 15.81 dBd
TILT	ELECTRICAL
COMMENT DATE 05.08.2013 +45 degrees polarized system Lever position 01T deg
HORIZONTAL 360
0.00 0.11
1.00 0.07
2.00 0.05
3.00 0.03
4.00 0.01
5.00 0.00
6.00 0.01
7.00 0.02
8.00 0.03
9.00 0.06
10.00 0.09
11.00 0.14
12.00 0.19
13.00 0.25
14.00 0.32
15.00 0.40
16.00 0.49
17.00 0.59
18.00 0.70
19.00 0.82
20.00 0.95
21.00 1.09
22.00 1.23
23.00 1.39
24.00 1.56
25.00 1.73
26.00 1.92
27.00 2.11
28.00 2.31
29.00 2.52
30.00 2.73
31.00 2.96
32.00 3.19
33.00 3.42
34.00 3.67
35.00 3.92
36.00 4.17
37.00 4.43
38.00 4.70
39.00 4.97
40.00 5.24
41.00 5.52
42.00 5.81
43.00 6.10
44.00 6.39
45.00 6.69
46.00 6.99
47.00 7.30
48.00 7.61
49.00 7.93
50.00 8.25
51.00 8.57
52.00 8.90
53.00 9.24
54.00 9.57
55.00 9.92
56.00 10.27
57.00 10.62
58.00 10.98
59.00 11.34
60.00 11.70
61.00 12.07
62.00 12.44
63.00 12.82
64.00 13.19
65.00 13.57
66.00 13.95
67.00 14.33
68.00 14.72
69.00 15.10
70.00 15.48
71.00 15.87
72.00 16.25
73.00 16.63
74.00 17.01
75.00 17.40
76.00 17.78
77.00 18.16
78.00 18.54
79.00 18.92
80.00 19.31
81.00 19.69
82.00 20.08
83.00 20.47
84.00 20.86
85.00 21.25
86.00 21.64
87.00 22.04
88.00 22.44
89.00 22.84
90.00 23.24
91.00 23.64
92.00 24.04
93.00 24.44
94.00 24.85
95.00 25.25
96.00 25.66
97.00 26.06
98.00 26.47
99.00 26.88
100.00 27.29
101.00 27.71
102.00 28.13
103.00 28.55
104.00 28.98
105.00 29.40
106.00 29.83
107.00 30.26
108.00 30.69
109.00 31.10
110.00 31.50
111.00 31.89
112.00 32.25
113.00 32.58
114.00 32.89
115.00 33.16
116.00 33.39
117.00 33.61
118.00 33.81
119.00 33.99
120.00 34.18
121.00 34.38
122.00 34.60
123.00 34.86
124.00 35.17
125.00 35.55
126.00 36.00
127.00 36.55
128.00 37.21
129.00 38.02
130.00 38.99
131.00 40.17
132.00 41.63
133.00 43.49
134.00 45.88
135.00 49.08
136.00 52.87
137.00 53.48
138.00 49.88
139.00 46.53
140.00 44.03
141.00 42.13
142.00 40.65
143.00 39.47
144.00 38.54
145.00 37.82
146.00 37.27
147.00 36.86
148.00 36.58
149.00 36.44
150.00 36.42
151.00 36.52
152.00 36.74
153.00 37.08
154.00 37.55
155.00 38.14
156.00 38.86
157.00 39.69
158.00 40.61
159.00 41.54
160.00 42.34
161.00 42.79
162.00 42.72
163.00 42.15
164.00 41.25
165.00 40.23
166.00 39.22
167.00 38.30
168.00 37.49
169.00 36.80
170.00 36.23
171.00 35.78
172.00 35.43
173.00 35.19
174.00 35.06
175.00 35.02
176.00 35.09
177.00 35.25
178.00 35.50
179.00 35.86
180.00 36.31
181.00 36.86
182.00 37.49
183.00 38.21
184.00 38.99
185.00 39.78
186.00 40.50
187.00 41.07
188.00 41.37
189.00 41.35
190.00 41.04
191.00 40.53
192.00 39.92
193.00 39.31
194.00 38.74
195.00 38.24
196.00 37.83
197.00 37.52
198.00 37.30
199.00 37.17
200.00 37.14
201.00 37.19
202.00 37.32
203.00 37.51
204.00 37.76
205.00 38.04
206.00 38.32
207.00 38.56
208.00 38.73
209.00 38.78
210.00 38.67
211.00 38.41
212.00 38.02
213.00 37.52
214.00 36.97
215.00 36.40
216.00 35.83
217.00 35.29
218.00 34.79
219.00 34.34
220.00 33.94
221.00 33.59
222.00 33.29
223.00 33.03
224.00 32.83
225.00 32.67
226.00 32.54
227.00 32.46
228.00 32.39
229.00 32.36
230.00 32.35
231.00 32.36
232.00 32.37
233.00 32.39
234.00 32.42
235.00 32.44
236.00 32.45
237.00 32.46
238.00 32.45
239.00 32.44
240.00 32.41
241.00 32.37
242.00 32.32
243.00 32.26
244.00 32.20
245.00 32.12
246.00 32.03
247.00 31.93
248.00 31.83
249.00 31.72
250.00 31.58
251.00 31.44
252.00 31.28
253.00 31.11
254.00 30.91
255.00 30.70
256.00 30.46
257.00 30.20
258.00 29.92
259.00 29.61
260.00 29.28
261.00 28.93
262.00 28.56
263.00 28.17
264.00 27.76
265.00 27.34
266.00 26.90
267.00 26.45
268.00 25.99
269.00 25.53
270.00 25.05
271.00 24.57
272.00 24.09
273.00 23.61
274.00 23.13
275.00 22.65
276.00 22.17
277.00 21.70
278.00 21.23
279.00 20.76
280.00 20.30
281.00 19.85
282.00 19.41
283.00 18.97
284.00 18.53
285.00 18.11
286.00 17.69
287.00 17.28
288.00 16.87
289.00 16.47
290.00 16.07
291.00 15.68
292.00 15.29
293.00 14.91
294.00 14.53
295.00 14.16
296.00 13.78
297.00 13.42
298.00 13.05
299.00 12.69
300.00 12.33
301.00 11.97
302.00 11.61
303.00 11.26
304.00 10.91
305.00 10.57
306.00 10.23
307.00 9.88
308.00 9.55
309.00 9.22
310.00 8.89
311.00 8.57
312.00 8.25
313.00 7.93
314.00 7.62
315.00 7.32
316.00 7.03
317.00 6.73
318.00 6.45
319.00 6.17
320.00 5.90
321.00 5.63
322.00 5.38
323.00 5.13
324.00 4.88
325.00 4.64
326.00 4.41
327.00 4.19
328.00 3.97
329.00 3.77
330.00 3.56
331.00 3.37
332.00 3.18
333.00 3.00
334.00 2.82
335.00 2.65
336.00 2.49
337.00 2.33
338.00 2.18
339.00 2.04
340.00 1.90
341.00 1.76
342.00 1.63
343.00 1.51
344.00 1.39
345.00 1.27
346.00 1.16
347.00 1.06
348.00 0.95
349.00 0.86
350.00 0.76
351.00 0.68
352.00 0.59
353.00 0.51
354.00 0.44
355.00 0.37
356.00 0.31
357.00 0.25
358.00 0.20
359.00 0.15
VERTICAL 360
0.00 0.41
1.00 0.00
2.00 0.29
3.00 1.30
4.00 3.11
5.00 5.91
6.00 10.20
7.00 17.76
8.00 29.21
9.00 20.00
10.00 17.03
11.00 17.57
12.00 21.08
13.00 27.53
14.00 23.83
15.00 18.91
16.00 16.95
17.00 16.87
18.00 18.51
19.00 22.61
20.00 35.00
21.00 30.69
22.00 22.84
23.00 20.44
24.00 20.20
25.00 21.61
26.00 24.90
27.00 31.44
28.00 33.84
29.00 26.82
30.00 23.09
31.00 21.40
32.00 21.08
33.00 21.92
34.00 23.77
35.00 26.09
36.00 27.78
37.00 28.48
38.00 29.25
39.00 30.41
40.00 30.34
41.00 28.09
42.00 25.50
43.00 23.67
44.00 22.78
45.00 22.88
46.00 24.09
47.00 26.66
48.00 30.76
49.00 33.71
50.00 31.68
51.00 29.45
52.00 28.32
53.00 27.47
54.00 26.29
55.00 24.94
56.00 23.81
57.00 23.10
58.00 22.85
59.00 23.09
60.00 23.79
61.00 24.85
62.00 26.19
63.00 27.74
64.00 29.27
65.00 30.34
66.00 30.62
67.00 30.44
68.00 30.43
69.00 31.00
70.00 32.27
71.00 34.15
72.00 36.23
73.00 37.48
74.00 36.86
75.00 35.11
76.00 33.24
77.00 31.45
78.00 29.74
79.00 28.17
80.00 26.86
81.00 25.90
82.00 25.34
83.00 25.12
84.00 25.09
85.00 25.11
86.00 25.22
87.00 25.73
88.00 27.07
89.00 29.75
90.00 34.59
91.00 42.36
92.00 42.59
93.00 38.46
94.00 35.84
95.00 34.10
96.00 33.57
97.00 34.43
98.00 36.61
99.00 39.83
100.00 43.08
101.00 43.47
102.00 42.05
103.00 42.10
104.00 44.42
105.00 48.24
106.00 50.89
107.00 54.52
108.00 61.29
109.00 54.36
110.00 51.83
111.00 53.72
112.00 56.74
113.00 56.59
114.00 53.31
115.00 48.68
116.00 45.62
117.00 44.31
118.00 43.87
119.00 43.31
120.00 42.19
121.00 40.53
122.00 38.75
123.00 37.40
124.00 36.76
125.00 36.63
126.00 36.29
127.00 35.36
128.00 34.33
129.00 33.87
130.00 34.22
131.00 35.21
132.00 36.34
133.00 37.15
134.00 37.70
135.00 38.25
136.00 38.72
137.00 38.85
138.00 38.69
139.00 38.53
140.00 38.66
141.00 39.18
142.00 40.05
143.00 41.19
144.00 42.54
145.00 43.84
146.00 43.84
147.00 41.63
148.00 39.13
149.00 37.90
150.00 38.50
151.00 41.46
152.00 48.31
153.00 55.53
154.00 50.57
155.00 48.72
156.00 49.39
157.00 60.41
158.00 49.36
159.00 39.81
160.00 35.87
161.00 34.56
162.00 35.03
163.00 36.42
164.00 37.62
165.00 38.66
166.00 40.45
167.00 42.95
168.00 44.80
169.00 44.61
170.00 42.97
171.00 41.96
172.00 41.89
173.00 40.49
174.00 37.92
175.00 36.59
176.00 37.17
177.00 39.03
178.00 40.09
179.00 40.15
180.00 41.77
181.00 45.38
182.00 44.95
183.00 42.54
184.00 43.19
185.00 46.30
186.00 44.76
187.00 41.12
188.00 39.96
189.00 41.08
190.00 43.44
191.00 42.62
192.00 38.76
193.00 35.84
194.00 34.42
195.00 34.38
196.00 35.64
197.00 37.65
198.00 37.88
199.00 35.50
200.00 33.45
201.00 32.82
202.00 33.64
203.00 35.51
204.00 37.19
205.00 37.53
206.00 37.44
207.00 37.76
208.00 38.51
209.00 39.72
210.00 42.00
211.00 46.95
212.00 51.61
213.00 43.56
214.00 38.53
215.00 35.80
216.00 34.16
217.00 33.07
218.00 32.33
219.00 31.93
220.00 31.94
221.00 32.40
222.00 33.29
223.00 34.39
224.00 35.26
225.00 35.88
226.00 36.99
227.00 39.72
228.00 46.26
229.00 53.85
230.00 46.10
231.00 43.10
232.00 40.18
233.00 36.61
234.00 34.21
235.00 33.39
236.00 33.93
237.00 35.47
238.00 37.60
239.00 40.21
240.00 43.99
241.00 51.97
242.00 62.63
243.00 49.18
244.00 49.47
245.00 55.51
246.00 43.80
247.00 37.58
248.00 34.91
249.00 34.24
250.00 34.91
251.00 36.36
252.00 37.99
253.00 39.43
254.00 41.10
255.00 43.40
256.00 43.57
257.00 40.56
258.00 38.36
259.00 37.70
260.00 37.79
261.00 37.41
262.00 36.06
263.00 34.48
264.00 33.50
265.00 33.50
266.00 34.40
267.00 35.28
268.00 34.90
269.00 33.77
270.00 33.07
271.00 33.26
272.00 34.16
273.00 34.49
274.00 33.05
275.00 31.14
276.00 29.93
277.00 29.53
278.00 29.65
279.00 29.87
280.00 29.81
281.00 29.52
282.00 29.34
283.00 29.46
284.00 29.81
285.00 30.10
286.00 30.11
287.00 29.93
288.00 29.81
289.00 29.66
290.00 28.96
291.00 27.52
292.00 25.86
293.00 24.43
294.00 23.33
295.00 22.45
296.00 21.70
297.00 21.06
298.00 20.66
299.00 20.66
300.00 21.17
301.00 22.22
302.00 23.81
303.00 25.91
304.00 28.48
305.00 30.84
306.00 30.61
307.00 27.91
308.00 25.12
309.00 22.90
310.00 21.23
311.00 20.06
312.00 19.38
313.00 19.16
314.00 19.36
315.00 19.81
316.00 20.29
317.00 20.51
318.00 20.26
319.00 19.57
320.00 18.61
321.00 17.62
322.00 16.81
323.00 16.36
324.00 16.36
325.00 16.91
326.00 18.08
327.00 20.00
328.00 23.05
329.00 28.45
330.00 40.53
331.00 31.34
332.00 25.39
333.00 23.08
334.00 22.85
335.00 24.84
336.00 31.47
337.00 36.14
338.00 24.57
339.00 20.23
340.00 18.59
341.00 18.95
342.00 21.50
343.00 25.93
344.00 24.77
345.00 20.75
346.00 19.12
347.00 19.81
348.00 23.37
349.00 33.49
350.00 27.63
351.00 21.24
352.00 19.46
353.00 20.99
354.00 24.86
355.00 18.00
356.00 10.95
357.00 6.50
358.00 3.51
359.00 1.55
