NAME ATR4518R7_0947_X_CO_M45_05T
FREQUENCY 0947
GAIN 15.23 dBd
TILT	ELECTRICAL
COMMENT DATE 05.08.2013 -45 degrees polarized system Lever position 05T deg
HORIZONTAL 360
0.00 0.01
1.00 0.01
2.00 0.01
3.00 0.01
4.00 0.03
5.00 0.05
6.00 0.08
7.00 0.11
8.00 0.16
9.00 0.21
10.00 0.26
11.00 0.33
12.00 0.40
13.00 0.48
14.00 0.56
15.00 0.65
16.00 0.75
17.00 0.86
18.00 0.97
19.00 1.09
20.00 1.22
21.00 1.36
22.00 1.50
23.00 1.65
24.00 1.81
25.00 1.97
26.00 2.14
27.00 2.32
28.00 2.51
29.00 2.70
30.00 2.90
31.00 3.11
32.00 3.33
33.00 3.55
34.00 3.78
35.00 4.02
36.00 4.26
37.00 4.51
38.00 4.78
39.00 5.04
40.00 5.32
41.00 5.60
42.00 5.89
43.00 6.19
44.00 6.49
45.00 6.81
46.00 7.13
47.00 7.46
48.00 7.79
49.00 8.14
50.00 8.50
51.00 8.86
52.00 9.23
53.00 9.61
54.00 10.00
55.00 10.40
56.00 10.81
57.00 11.23
58.00 11.66
59.00 12.11
60.00 12.56
61.00 13.02
62.00 13.50
63.00 13.99
64.00 14.49
65.00 15.01
66.00 15.54
67.00 16.09
68.00 16.65
69.00 17.22
70.00 17.82
71.00 18.43
72.00 19.05
73.00 19.69
74.00 20.35
75.00 21.03
76.00 21.72
77.00 22.42
78.00 23.13
79.00 23.85
80.00 24.58
81.00 25.29
82.00 25.99
83.00 26.67
84.00 27.30
85.00 27.89
86.00 28.42
87.00 28.87
88.00 29.25
89.00 29.55
90.00 29.78
91.00 29.94
92.00 30.05
93.00 30.12
94.00 30.17
95.00 30.20
96.00 30.22
97.00 30.25
98.00 30.29
99.00 30.35
100.00 30.43
101.00 30.53
102.00 30.65
103.00 30.81
104.00 30.98
105.00 31.19
106.00 31.42
107.00 31.69
108.00 31.98
109.00 32.30
110.00 32.65
111.00 33.03
112.00 33.44
113.00 33.88
114.00 34.33
115.00 34.82
116.00 35.34
117.00 35.87
118.00 36.43
119.00 37.01
120.00 37.60
121.00 38.20
122.00 38.80
123.00 39.39
124.00 39.97
125.00 40.52
126.00 41.04
127.00 41.50
128.00 41.88
129.00 42.19
130.00 42.40
131.00 42.51
132.00 42.52
133.00 42.42
134.00 42.23
135.00 41.97
136.00 41.62
137.00 41.23
138.00 40.79
139.00 40.31
140.00 39.82
141.00 39.32
142.00 38.80
143.00 38.28
144.00 37.77
145.00 37.27
146.00 36.78
147.00 36.30
148.00 35.85
149.00 35.40
150.00 34.99
151.00 34.59
152.00 34.21
153.00 33.85
154.00 33.51
155.00 33.20
156.00 32.91
157.00 32.63
158.00 32.39
159.00 32.16
160.00 31.95
161.00 31.76
162.00 31.59
163.00 31.45
164.00 31.32
165.00 31.22
166.00 31.13
167.00 31.07
168.00 31.02
169.00 31.00
170.00 30.99
171.00 31.00
172.00 31.03
173.00 31.08
174.00 31.15
175.00 31.25
176.00 31.36
177.00 31.49
178.00 31.64
179.00 31.81
180.00 32.00
181.00 32.22
182.00 32.46
183.00 32.72
184.00 33.00
185.00 33.31
186.00 33.65
187.00 34.02
188.00 34.42
189.00 34.85
190.00 35.31
191.00 35.82
192.00 36.37
193.00 36.96
194.00 37.61
195.00 38.32
196.00 39.10
197.00 39.96
198.00 40.91
199.00 41.98
200.00 43.20
201.00 44.59
202.00 46.20
203.00 48.08
204.00 50.23
205.00 52.41
206.00 53.67
207.00 52.93
208.00 50.94
209.00 48.79
210.00 46.90
211.00 45.29
212.00 43.89
213.00 42.69
214.00 41.64
215.00 40.71
216.00 39.86
217.00 39.10
218.00 38.40
219.00 37.77
220.00 37.18
221.00 36.64
222.00 36.13
223.00 35.64
224.00 35.20
225.00 34.78
226.00 34.38
227.00 34.00
228.00 33.63
229.00 33.29
230.00 32.96
231.00 32.63
232.00 32.32
233.00 32.02
234.00 31.73
235.00 31.45
236.00 31.17
237.00 30.90
238.00 30.63
239.00 30.36
240.00 30.09
241.00 29.82
242.00 29.56
243.00 29.29
244.00 29.02
245.00 28.74
246.00 28.46
247.00 28.18
248.00 27.89
249.00 27.59
250.00 27.28
251.00 26.97
252.00 26.65
253.00 26.33
254.00 25.99
255.00 25.65
256.00 25.30
257.00 24.95
258.00 24.59
259.00 24.23
260.00 23.86
261.00 23.49
262.00 23.11
263.00 22.74
264.00 22.36
265.00 21.98
266.00 21.61
267.00 21.23
268.00 20.86
269.00 20.48
270.00 20.11
271.00 19.75
272.00 19.38
273.00 19.02
274.00 18.66
275.00 18.31
276.00 17.95
277.00 17.61
278.00 17.26
279.00 16.92
280.00 16.59
281.00 16.26
282.00 15.93
283.00 15.60
284.00 15.28
285.00 14.97
286.00 14.65
287.00 14.34
288.00 14.03
289.00 13.73
290.00 13.42
291.00 13.12
292.00 12.82
293.00 12.53
294.00 12.24
295.00 11.94
296.00 11.66
297.00 11.37
298.00 11.08
299.00 10.80
300.00 10.52
301.00 10.23
302.00 9.96
303.00 9.68
304.00 9.40
305.00 9.13
306.00 8.86
307.00 8.59
308.00 8.32
309.00 8.05
310.00 7.79
311.00 7.53
312.00 7.27
313.00 7.01
314.00 6.76
315.00 6.51
316.00 6.26
317.00 6.02
318.00 5.77
319.00 5.53
320.00 5.30
321.00 5.07
322.00 4.84
323.00 4.62
324.00 4.39
325.00 4.18
326.00 3.97
327.00 3.76
328.00 3.56
329.00 3.36
330.00 3.17
331.00 2.98
332.00 2.79
333.00 2.61
334.00 2.44
335.00 2.27
336.00 2.11
337.00 1.95
338.00 1.80
339.00 1.66
340.00 1.52
341.00 1.38
342.00 1.25
343.00 1.13
344.00 1.01
345.00 0.90
346.00 0.80
347.00 0.70
348.00 0.61
349.00 0.52
350.00 0.44
351.00 0.37
352.00 0.30
353.00 0.24
354.00 0.19
355.00 0.14
356.00 0.10
357.00 0.07
358.00 0.04
359.00 0.02
VERTICAL 360
0.00 5.13
1.00 3.20
2.00 1.76
3.00 0.76
4.00 0.18
5.00 0.00
6.00 0.22
7.00 0.82
8.00 1.83
9.00 3.29
10.00 5.27
11.00 7.88
12.00 11.30
13.00 15.65
14.00 20.29
15.00 22.23
16.00 22.05
17.00 22.84
18.00 25.58
19.00 31.97
20.00 43.25
21.00 29.92
22.00 25.67
23.00 23.90
24.00 23.57
25.00 24.50
26.00 26.95
27.00 32.08
28.00 49.05
29.00 35.50
30.00 30.02
31.00 28.01
32.00 27.78
33.00 28.85
34.00 29.79
35.00 27.45
36.00 23.74
37.00 20.87
38.00 19.01
39.00 17.95
40.00 17.48
41.00 17.43
42.00 17.67
43.00 18.22
44.00 19.21
45.00 20.88
46.00 23.52
47.00 27.66
48.00 34.80
49.00 41.25
50.00 33.38
51.00 29.81
52.00 28.14
53.00 27.51
54.00 27.57
55.00 28.07
56.00 28.73
57.00 29.43
58.00 30.30
59.00 31.78
60.00 34.80
61.00 41.57
62.00 52.68
63.00 42.65
64.00 42.22
65.00 46.43
66.00 64.33
67.00 44.49
68.00 36.47
69.00 32.89
70.00 32.08
71.00 33.20
72.00 33.57
73.00 30.62
74.00 27.51
75.00 25.77
76.00 25.60
77.00 27.10
78.00 30.16
79.00 31.30
80.00 29.16
81.00 26.74
82.00 25.34
83.00 25.53
84.00 26.63
85.00 27.33
86.00 27.29
87.00 26.72
88.00 25.74
89.00 25.23
90.00 25.91
91.00 26.76
92.00 27.24
93.00 27.39
94.00 26.70
95.00 25.56
96.00 25.45
97.00 26.72
98.00 28.85
99.00 31.08
100.00 31.65
101.00 29.89
102.00 28.72
103.00 28.90
104.00 30.13
105.00 32.11
106.00 33.45
107.00 32.15
108.00 30.66
109.00 30.56
110.00 31.81
111.00 34.55
112.00 38.98
113.00 38.07
114.00 34.63
115.00 33.97
116.00 35.77
117.00 40.05
118.00 50.14
119.00 50.48
120.00 44.05
121.00 46.22
122.00 59.80
123.00 41.83
124.00 36.97
125.00 34.83
126.00 33.77
127.00 33.13
128.00 32.43
129.00 31.60
130.00 31.11
131.00 31.27
132.00 32.10
133.00 33.49
134.00 35.49
135.00 38.51
136.00 43.83
137.00 57.09
138.00 46.62
139.00 41.61
140.00 39.80
141.00 39.72
142.00 41.15
143.00 44.19
144.00 49.37
145.00 61.53
146.00 54.26
147.00 48.04
148.00 46.35
149.00 46.80
150.00 47.88
151.00 48.43
152.00 47.96
153.00 45.94
154.00 43.23
155.00 41.16
156.00 40.49
157.00 41.19
158.00 40.82
159.00 37.74
160.00 35.04
161.00 33.68
162.00 33.48
163.00 33.84
164.00 33.55
165.00 32.06
166.00 30.30
167.00 28.88
168.00 27.76
169.00 26.79
170.00 26.08
171.00 25.85
172.00 26.67
173.00 28.14
174.00 30.17
175.00 32.34
176.00 33.44
177.00 33.51
178.00 32.89
179.00 32.01
180.00 31.16
181.00 30.63
182.00 30.61
183.00 31.26
184.00 32.74
185.00 35.30
186.00 39.49
187.00 47.45
188.00 52.48
189.00 43.32
190.00 39.82
191.00 38.20
192.00 37.75
193.00 38.24
194.00 39.31
195.00 40.32
196.00 41.05
197.00 42.04
198.00 44.11
199.00 47.79
200.00 49.71
201.00 48.15
202.00 48.71
203.00 51.42
204.00 51.14
205.00 46.59
206.00 42.36
207.00 39.90
208.00 39.32
209.00 40.07
210.00 40.70
211.00 40.05
212.00 38.70
213.00 36.97
214.00 34.92
215.00 32.96
216.00 31.58
217.00 30.95
218.00 30.89
219.00 30.94
220.00 30.68
221.00 30.14
222.00 29.74
223.00 29.90
224.00 30.80
225.00 32.33
226.00 33.94
227.00 34.97
228.00 35.30
229.00 35.19
230.00 35.02
231.00 35.23
232.00 35.97
233.00 36.73
234.00 36.62
235.00 35.64
236.00 34.60
237.00 34.18
238.00 34.61
239.00 35.53
240.00 35.83
241.00 34.87
242.00 33.52
243.00 32.77
244.00 33.01
245.00 34.01
246.00 34.75
247.00 34.28
248.00 33.23
249.00 32.67
250.00 33.23
251.00 35.01
252.00 37.00
253.00 36.76
254.00 35.00
255.00 33.73
256.00 33.55
257.00 34.41
258.00 35.61
259.00 36.12
260.00 36.04
261.00 36.66
262.00 39.52
263.00 46.05
264.00 44.86
265.00 41.85
266.00 40.87
267.00 39.15
268.00 39.59
269.00 43.21
270.00 38.37
271.00 34.59
272.00 34.89
273.00 39.12
274.00 44.48
275.00 42.91
276.00 39.66
277.00 35.44
278.00 33.70
279.00 35.05
280.00 40.21
281.00 54.58
282.00 44.46
283.00 39.48
284.00 38.50
285.00 41.61
286.00 47.67
287.00 40.07
288.00 36.30
289.00 35.14
290.00 35.82
291.00 39.09
292.00 46.05
293.00 44.14
294.00 42.33
295.00 45.92
296.00 49.28
297.00 41.86
298.00 37.25
299.00 34.84
300.00 34.55
301.00 36.37
302.00 39.35
303.00 40.39
304.00 39.97
305.00 40.37
306.00 42.61
307.00 49.03
308.00 50.01
309.00 43.43
310.00 41.40
311.00 41.27
312.00 42.15
313.00 44.41
314.00 45.12
315.00 38.09
316.00 32.37
317.00 28.67
318.00 26.27
319.00 24.52
320.00 22.92
321.00 21.34
322.00 20.00
323.00 19.12
324.00 18.90
325.00 19.46
326.00 20.81
327.00 22.84
328.00 25.37
329.00 28.27
330.00 31.66
331.00 35.02
332.00 35.31
333.00 33.66
334.00 33.19
335.00 34.16
336.00 35.18
337.00 34.22
338.00 32.25
339.00 30.64
340.00 29.37
341.00 27.95
342.00 26.01
343.00 23.83
344.00 21.98
345.00 20.78
346.00 20.35
347.00 20.71
348.00 21.95
349.00 24.35
350.00 28.77
351.00 35.15
352.00 29.97
353.00 25.87
354.00 24.57
355.00 23.96
356.00 20.25
357.00 15.14
358.00 10.91
359.00 7.65
