NAME ATR4518R7_1850_X_CO_M45_03T_yyR
FREQUENCY 1850
GAIN 15.48 dBd
TILT	ELECTRICAL
COMMENT DATE 05.08.2013 -45 degrees polarized system Lever position 03T deg
HORIZONTAL 360
0.00 0.16
1.00 0.12
2.00 0.08
3.00 0.05
4.00 0.03
5.00 0.02
6.00 0.01
7.00 0.00
8.00 0.01
9.00 0.02
10.00 0.04
11.00 0.06
12.00 0.09
13.00 0.14
14.00 0.18
15.00 0.24
16.00 0.31
17.00 0.38
18.00 0.46
19.00 0.55
20.00 0.65
21.00 0.76
22.00 0.88
23.00 1.01
24.00 1.15
25.00 1.29
26.00 1.44
27.00 1.61
28.00 1.78
29.00 1.96
30.00 2.15
31.00 2.35
32.00 2.56
33.00 2.78
34.00 3.00
35.00 3.24
36.00 3.48
37.00 3.73
38.00 3.99
39.00 4.26
40.00 4.53
41.00 4.82
42.00 5.11
43.00 5.41
44.00 5.72
45.00 6.04
46.00 6.37
47.00 6.70
48.00 7.04
49.00 7.39
50.00 7.75
51.00 8.11
52.00 8.48
53.00 8.87
54.00 9.25
55.00 9.65
56.00 10.05
57.00 10.46
58.00 10.88
59.00 11.30
60.00 11.72
61.00 12.15
62.00 12.59
63.00 13.02
64.00 13.47
65.00 13.91
66.00 14.35
67.00 14.79
68.00 15.24
69.00 15.68
70.00 16.13
71.00 16.57
72.00 17.01
73.00 17.45
74.00 17.88
75.00 18.32
76.00 18.76
77.00 19.20
78.00 19.65
79.00 20.10
80.00 20.55
81.00 21.02
82.00 21.49
83.00 21.98
84.00 22.48
85.00 23.00
86.00 23.53
87.00 24.08
88.00 24.65
89.00 25.24
90.00 25.85
91.00 26.47
92.00 27.11
93.00 27.76
94.00 28.41
95.00 29.04
96.00 29.66
97.00 30.24
98.00 30.76
99.00 31.21
100.00 31.58
101.00 31.86
102.00 32.04
103.00 32.15
104.00 32.18
105.00 32.15
106.00 32.09
107.00 32.01
108.00 31.91
109.00 31.82
110.00 31.73
111.00 31.66
112.00 31.60
113.00 31.55
114.00 31.52
115.00 31.50
116.00 31.49
117.00 31.49
118.00 31.51
119.00 31.53
120.00 31.55
121.00 31.59
122.00 31.64
123.00 31.69
124.00 31.75
125.00 31.83
126.00 31.92
127.00 32.04
128.00 32.18
129.00 32.34
130.00 32.54
131.00 32.78
132.00 33.06
133.00 33.38
134.00 33.76
135.00 34.20
136.00 34.71
137.00 35.28
138.00 35.95
139.00 36.71
140.00 37.58
141.00 38.59
142.00 39.77
143.00 41.15
144.00 42.81
145.00 44.84
146.00 47.42
147.00 50.78
148.00 54.68
149.00 55.22
150.00 51.66
151.00 48.41
152.00 45.96
153.00 44.07
154.00 42.57
155.00 41.35
156.00 40.33
157.00 39.46
158.00 38.72
159.00 38.09
160.00 37.54
161.00 37.06
162.00 36.65
163.00 36.30
164.00 36.00
165.00 35.76
166.00 35.57
167.00 35.43
168.00 35.35
169.00 35.32
170.00 35.35
171.00 35.43
172.00 35.59
173.00 35.80
174.00 36.10
175.00 36.47
176.00 36.93
177.00 37.46
178.00 38.08
179.00 38.77
180.00 39.51
181.00 40.23
182.00 40.82
183.00 41.18
184.00 41.15
185.00 40.71
186.00 39.96
187.00 39.02
188.00 38.03
189.00 37.06
190.00 36.14
191.00 35.31
192.00 34.57
193.00 33.92
194.00 33.36
195.00 32.87
196.00 32.46
197.00 32.13
198.00 31.86
199.00 31.67
200.00 31.54
201.00 31.46
202.00 31.45
203.00 31.50
204.00 31.60
205.00 31.76
206.00 31.96
207.00 32.20
208.00 32.47
209.00 32.77
210.00 33.08
211.00 33.39
212.00 33.68
213.00 33.93
214.00 34.12
215.00 34.23
216.00 34.26
217.00 34.20
218.00 34.06
219.00 33.87
220.00 33.62
221.00 33.35
222.00 33.08
223.00 32.81
224.00 32.55
225.00 32.32
226.00 32.11
227.00 31.94
228.00 31.80
229.00 31.69
230.00 31.61
231.00 31.56
232.00 31.54
233.00 31.55
234.00 31.58
235.00 31.62
236.00 31.67
237.00 31.73
238.00 31.79
239.00 31.84
240.00 31.87
241.00 31.88
242.00 31.87
243.00 31.82
244.00 31.74
245.00 31.62
246.00 31.47
247.00 31.28
248.00 31.06
249.00 30.82
250.00 30.56
251.00 30.27
252.00 29.98
253.00 29.67
254.00 29.36
255.00 29.05
256.00 28.74
257.00 28.42
258.00 28.11
259.00 27.79
260.00 27.48
261.00 27.16
262.00 26.85
263.00 26.53
264.00 26.21
265.00 25.88
266.00 25.55
267.00 25.21
268.00 24.86
269.00 24.51
270.00 24.14
271.00 23.76
272.00 23.37
273.00 22.97
274.00 22.57
275.00 22.15
276.00 21.73
277.00 21.31
278.00 20.88
279.00 20.45
280.00 20.01
281.00 19.58
282.00 19.15
283.00 18.72
284.00 18.30
285.00 17.88
286.00 17.46
287.00 17.05
288.00 16.65
289.00 16.25
290.00 15.86
291.00 15.47
292.00 15.08
293.00 14.70
294.00 14.33
295.00 13.96
296.00 13.60
297.00 13.24
298.00 12.89
299.00 12.54
300.00 12.19
301.00 11.85
302.00 11.51
303.00 11.17
304.00 10.84
305.00 10.51
306.00 10.19
307.00 9.87
308.00 9.55
309.00 9.23
310.00 8.92
311.00 8.62
312.00 8.31
313.00 8.01
314.00 7.72
315.00 7.43
316.00 7.14
317.00 6.86
318.00 6.59
319.00 6.31
320.00 6.05
321.00 5.79
322.00 5.54
323.00 5.29
324.00 5.05
325.00 4.81
326.00 4.58
327.00 4.36
328.00 4.14
329.00 3.93
330.00 3.72
331.00 3.52
332.00 3.33
333.00 3.14
334.00 2.96
335.00 2.79
336.00 2.62
337.00 2.46
338.00 2.30
339.00 2.15
340.00 2.00
341.00 1.86
342.00 1.73
343.00 1.60
344.00 1.48
345.00 1.36
346.00 1.25
347.00 1.14
348.00 1.03
349.00 0.93
350.00 0.84
351.00 0.75
352.00 0.66
353.00 0.58
354.00 0.51
355.00 0.43
356.00 0.37
357.00 0.31
358.00 0.25
359.00 0.20
VERTICAL 360
0.00 3.68
1.00 1.62
2.00 0.43
3.00 0.00
4.00 0.28
5.00 1.30
6.00 3.17
7.00 6.23
8.00 11.41
9.00 25.57
10.00 21.10
11.00 13.90
12.00 12.08
13.00 12.57
14.00 15.11
15.00 20.46
16.00 24.29
17.00 18.83
18.00 15.60
19.00 14.66
20.00 15.46
21.00 18.20
22.00 24.65
23.00 38.07
24.00 24.18
25.00 19.99
26.00 18.91
27.00 19.76
28.00 22.45
29.00 26.25
30.00 25.45
31.00 21.51
32.00 18.99
33.00 17.85
34.00 17.83
35.00 18.83
36.00 20.90
37.00 24.32
38.00 29.86
39.00 41.50
40.00 46.12
41.00 36.45
42.00 32.37
43.00 28.96
44.00 26.23
45.00 24.18
46.00 22.67
47.00 21.55
48.00 20.80
49.00 20.40
50.00 20.39
51.00 20.83
52.00 21.80
53.00 23.47
54.00 26.28
55.00 31.57
56.00 40.93
57.00 34.01
58.00 28.87
59.00 26.83
60.00 26.18
61.00 26.35
62.00 27.17
63.00 28.64
64.00 30.77
65.00 32.96
66.00 33.61
67.00 32.79
68.00 32.21
69.00 32.28
70.00 32.45
71.00 32.15
72.00 31.38
73.00 30.68
74.00 30.65
75.00 31.61
76.00 33.33
77.00 34.63
78.00 33.87
79.00 31.48
80.00 29.20
81.00 27.87
82.00 27.54
83.00 27.85
84.00 28.17
85.00 27.97
86.00 27.26
87.00 26.60
88.00 26.58
89.00 27.51
90.00 29.51
91.00 32.30
92.00 33.56
93.00 31.34
94.00 29.02
95.00 28.23
96.00 29.00
97.00 31.13
98.00 34.20
99.00 37.38
100.00 38.90
101.00 38.44
102.00 38.69
103.00 41.44
104.00 47.47
105.00 51.11
106.00 51.35
107.00 60.27
108.00 61.41
109.00 56.68
110.00 56.20
111.00 50.35
112.00 48.16
113.00 49.28
114.00 50.10
115.00 49.25
116.00 50.88
117.00 56.38
118.00 54.57
119.00 48.72
120.00 45.02
121.00 43.30
122.00 44.18
123.00 48.82
124.00 53.52
125.00 48.35
126.00 45.60
127.00 43.48
128.00 41.16
129.00 39.82
130.00 39.79
131.00 40.48
132.00 40.86
133.00 40.46
134.00 40.11
135.00 40.96
136.00 44.20
137.00 49.36
138.00 45.71
139.00 41.36
140.00 39.56
141.00 38.68
142.00 37.44
143.00 35.74
144.00 34.41
145.00 34.02
146.00 34.91
147.00 37.47
148.00 42.76
149.00 55.06
150.00 54.63
151.00 53.65
152.00 52.85
153.00 43.75
154.00 39.64
155.00 38.48
156.00 39.35
157.00 41.40
158.00 42.62
159.00 40.93
160.00 37.90
161.00 35.75
162.00 34.97
163.00 35.29
164.00 35.86
165.00 36.16
166.00 36.78
167.00 38.13
168.00 39.71
169.00 40.75
170.00 40.91
171.00 39.39
172.00 37.45
173.00 36.89
174.00 38.28
175.00 40.90
176.00 41.01
177.00 39.02
178.00 38.17
179.00 39.50
180.00 43.54
181.00 49.74
182.00 46.92
183.00 43.29
184.00 42.43
185.00 42.69
186.00 41.35
187.00 38.32
188.00 36.04
189.00 35.39
190.00 36.87
191.00 41.91
192.00 45.57
193.00 38.11
194.00 34.79
195.00 34.44
196.00 36.29
197.00 38.81
198.00 38.70
199.00 37.28
200.00 36.61
201.00 36.43
202.00 36.22
203.00 35.34
204.00 33.72
205.00 32.52
206.00 32.74
207.00 35.12
208.00 41.47
209.00 49.85
210.00 39.47
211.00 35.25
212.00 33.41
213.00 32.89
214.00 33.41
215.00 34.77
216.00 36.62
217.00 38.64
218.00 40.77
219.00 42.99
220.00 45.56
221.00 50.80
222.00 55.27
223.00 45.82
224.00 42.27
225.00 42.63
226.00 45.84
227.00 43.54
228.00 38.35
229.00 35.72
230.00 34.88
231.00 35.16
232.00 36.02
233.00 37.00
234.00 37.87
235.00 38.62
236.00 39.51
237.00 40.92
238.00 42.92
239.00 43.58
240.00 41.39
241.00 39.39
242.00 39.07
243.00 40.68
244.00 44.66
245.00 51.11
246.00 51.10
247.00 47.49
248.00 45.65
249.00 43.11
250.00 39.90
251.00 37.64
252.00 36.84
253.00 37.48
254.00 39.45
255.00 42.59
256.00 46.48
257.00 48.62
258.00 46.37
259.00 43.03
260.00 40.23
261.00 38.07
262.00 36.57
263.00 35.64
264.00 35.23
265.00 35.38
266.00 36.16
267.00 37.48
268.00 38.99
269.00 39.90
270.00 39.25
271.00 37.53
272.00 36.15
273.00 35.44
274.00 34.85
275.00 33.96
276.00 33.15
277.00 32.70
278.00 32.32
279.00 31.63
280.00 30.74
281.00 29.82
282.00 28.97
283.00 28.34
284.00 28.04
285.00 27.89
286.00 27.57
287.00 26.96
288.00 26.30
289.00 25.96
290.00 26.25
291.00 27.32
292.00 29.14
293.00 31.34
294.00 32.93
295.00 32.64
296.00 30.72
297.00 28.34
298.00 26.09
299.00 24.21
300.00 22.83
301.00 21.91
302.00 21.34
303.00 20.99
304.00 20.80
305.00 20.83
306.00 21.22
307.00 22.10
308.00 23.44
309.00 24.82
310.00 25.41
311.00 24.96
312.00 24.11
313.00 23.41
314.00 22.97
315.00 22.71
316.00 22.54
317.00 22.49
318.00 22.59
319.00 22.83
320.00 23.18
321.00 23.46
322.00 23.42
323.00 22.85
324.00 21.82
325.00 20.65
326.00 19.74
327.00 19.39
328.00 19.83
329.00 21.29
330.00 24.32
331.00 30.43
332.00 33.99
333.00 26.23
334.00 22.13
335.00 20.21
336.00 19.73
337.00 20.58
338.00 23.04
339.00 28.10
340.00 32.59
341.00 27.09
342.00 23.90
343.00 23.83
344.00 27.19
345.00 31.84
346.00 24.99
347.00 20.11
348.00 17.98
349.00 17.64
350.00 18.94
351.00 22.41
352.00 30.88
353.00 33.01
354.00 25.48
355.00 25.56
356.00 32.13
357.00 20.01
358.00 11.74
359.00 6.87
