NAME ATR4518R7_2655_X_CO_P45_00T_yyR
FREQUENCY 2655
GAIN 15.38 dBd
TILT	ELECTRICAL
COMMENT DATE 05.08.2013 +45 degrees polarized system Lever position 00T deg
HORIZONTAL 360
0.00 0.01
1.00 0.02
2.00 0.05
3.00 0.09
4.00 0.15
5.00 0.21
6.00 0.29
7.00 0.38
8.00 0.48
9.00 0.59
10.00 0.72
11.00 0.85
12.00 0.99
13.00 1.14
14.00 1.30
15.00 1.46
16.00 1.63
17.00 1.80
18.00 1.97
19.00 2.14
20.00 2.31
21.00 2.48
22.00 2.65
23.00 2.81
24.00 2.96
25.00 3.12
26.00 3.27
27.00 3.41
28.00 3.55
29.00 3.69
30.00 3.82
31.00 3.96
32.00 4.09
33.00 4.23
34.00 4.36
35.00 4.50
36.00 4.65
37.00 4.80
38.00 4.96
39.00 5.12
40.00 5.29
41.00 5.48
42.00 5.67
43.00 5.88
44.00 6.09
45.00 6.32
46.00 6.56
47.00 6.82
48.00 7.09
49.00 7.38
50.00 7.68
51.00 8.00
52.00 8.33
53.00 8.68
54.00 9.05
55.00 9.44
56.00 9.84
57.00 10.27
58.00 10.72
59.00 11.19
60.00 11.68
61.00 12.21
62.00 12.75
63.00 13.32
64.00 13.93
65.00 14.55
66.00 15.21
67.00 15.91
68.00 16.63
69.00 17.38
70.00 18.15
71.00 18.96
72.00 19.79
73.00 20.64
74.00 21.50
75.00 22.37
76.00 23.23
77.00 24.07
78.00 24.88
79.00 25.63
80.00 26.31
81.00 26.89
82.00 27.35
83.00 27.68
84.00 27.87
85.00 27.93
86.00 27.88
87.00 27.74
88.00 27.53
89.00 27.28
90.00 27.02
91.00 26.76
92.00 26.51
93.00 26.30
94.00 26.12
95.00 25.98
96.00 25.88
97.00 25.82
98.00 25.81
99.00 25.83
100.00 25.89
101.00 25.97
102.00 26.06
103.00 26.15
104.00 26.24
105.00 26.31
106.00 26.36
107.00 26.38
108.00 26.37
109.00 26.33
110.00 26.29
111.00 26.25
112.00 26.24
113.00 26.25
114.00 26.33
115.00 26.48
116.00 26.72
117.00 27.07
118.00 27.57
119.00 28.24
120.00 29.12
121.00 30.26
122.00 31.79
123.00 33.85
124.00 36.80
125.00 41.49
126.00 49.32
127.00 44.05
128.00 38.10
129.00 34.53
130.00 32.10
131.00 30.32
132.00 28.98
133.00 27.98
134.00 27.24
135.00 26.73
136.00 26.43
137.00 26.32
138.00 26.39
139.00 26.65
140.00 27.10
141.00 27.75
142.00 28.63
143.00 29.77
144.00 31.19
145.00 32.92
146.00 34.90
147.00 36.77
148.00 37.61
149.00 36.84
150.00 35.25
151.00 33.66
152.00 32.36
153.00 31.38
154.00 30.69
155.00 30.26
156.00 30.07
157.00 30.10
158.00 30.35
159.00 30.82
160.00 31.49
161.00 32.37
162.00 33.44
163.00 34.66
164.00 35.90
165.00 36.92
166.00 37.37
167.00 37.12
168.00 36.36
169.00 35.43
170.00 34.53
171.00 33.76
172.00 33.13
173.00 32.64
174.00 32.28
175.00 32.01
176.00 31.80
177.00 31.65
178.00 31.53
179.00 31.43
180.00 31.34
181.00 31.28
182.00 31.25
183.00 31.26
184.00 31.34
185.00 31.48
186.00 31.72
187.00 32.04
188.00 32.44
189.00 32.89
190.00 33.35
191.00 33.74
192.00 33.95
193.00 33.89
194.00 33.54
195.00 32.94
196.00 32.19
197.00 31.40
198.00 30.64
199.00 29.93
200.00 29.32
201.00 28.81
202.00 28.38
203.00 28.05
204.00 27.80
205.00 27.64
206.00 27.54
207.00 27.50
208.00 27.52
209.00 27.58
210.00 27.68
211.00 27.82
212.00 27.99
213.00 28.18
214.00 28.39
215.00 28.62
216.00 28.85
217.00 29.08
218.00 29.29
219.00 29.44
220.00 29.53
221.00 29.52
222.00 29.39
223.00 29.16
224.00 28.82
225.00 28.42
226.00 27.98
227.00 27.53
228.00 27.10
229.00 26.71
230.00 26.37
231.00 26.09
232.00 25.87
233.00 25.72
234.00 25.64
235.00 25.63
236.00 25.67
237.00 25.76
238.00 25.90
239.00 26.08
240.00 26.26
241.00 26.44
242.00 26.61
243.00 26.73
244.00 26.79
245.00 26.80
246.00 26.74
247.00 26.62
248.00 26.45
249.00 26.24
250.00 26.01
251.00 25.78
252.00 25.54
253.00 25.31
254.00 25.09
255.00 24.88
256.00 24.69
257.00 24.50
258.00 24.33
259.00 24.17
260.00 24.02
261.00 23.87
262.00 23.72
263.00 23.58
264.00 23.44
265.00 23.31
266.00 23.17
267.00 23.05
268.00 22.92
269.00 22.80
270.00 22.68
271.00 22.57
272.00 22.45
273.00 22.34
274.00 22.22
275.00 22.09
276.00 21.96
277.00 21.81
278.00 21.64
279.00 21.46
280.00 21.25
281.00 21.02
282.00 20.75
283.00 20.45
284.00 20.13
285.00 19.76
286.00 19.37
287.00 18.95
288.00 18.51
289.00 18.04
290.00 17.55
291.00 17.06
292.00 16.55
293.00 16.04
294.00 15.53
295.00 15.03
296.00 14.54
297.00 14.05
298.00 13.58
299.00 13.12
300.00 12.67
301.00 12.23
302.00 11.81
303.00 11.40
304.00 11.00
305.00 10.62
306.00 10.24
307.00 9.86
308.00 9.50
309.00 9.13
310.00 8.78
311.00 8.42
312.00 8.06
313.00 7.71
314.00 7.35
315.00 7.00
316.00 6.65
317.00 6.29
318.00 5.94
319.00 5.60
320.00 5.26
321.00 4.92
322.00 4.60
323.00 4.28
324.00 3.97
325.00 3.68
326.00 3.40
327.00 3.13
328.00 2.87
329.00 2.64
330.00 2.41
331.00 2.20
332.00 2.01
333.00 1.83
334.00 1.66
335.00 1.51
336.00 1.38
337.00 1.25
338.00 1.14
339.00 1.03
340.00 0.94
341.00 0.85
342.00 0.77
343.00 0.69
344.00 0.62
345.00 0.56
346.00 0.49
347.00 0.43
348.00 0.38
349.00 0.32
350.00 0.27
351.00 0.22
352.00 0.17
353.00 0.13
354.00 0.09
355.00 0.06
356.00 0.03
357.00 0.01
358.00 0.00
359.00 0.00
VERTICAL 360
0.00 0.00
1.00 0.92
2.00 3.45
3.00 8.24
4.00 16.37
5.00 17.55
6.00 14.86
7.00 17.06
8.00 22.06
9.00 16.22
10.00 12.31
11.00 12.08
12.00 15.14
13.00 23.34
14.00 22.26
15.00 16.52
16.00 15.45
17.00 17.86
18.00 26.65
19.00 28.18
20.00 20.12
21.00 18.09
22.00 17.43
23.00 16.75
24.00 16.11
25.00 15.42
26.00 14.20
27.00 12.52
28.00 11.10
29.00 10.74
30.00 12.02
31.00 15.57
32.00 21.93
33.00 23.61
34.00 19.97
35.00 18.55
36.00 19.65
37.00 23.90
38.00 25.78
39.00 21.67
40.00 20.35
41.00 21.36
42.00 22.88
43.00 24.50
44.00 28.62
45.00 39.87
46.00 36.40
47.00 33.34
48.00 32.56
49.00 32.18
50.00 35.11
51.00 40.16
52.00 36.83
53.00 29.44
54.00 24.74
55.00 23.27
56.00 24.24
57.00 25.31
58.00 23.83
59.00 20.94
60.00 18.05
61.00 16.02
62.00 15.09
63.00 15.13
64.00 15.90
65.00 16.58
66.00 17.17
67.00 18.22
68.00 19.84
69.00 21.56
70.00 22.70
71.00 23.19
72.00 23.61
73.00 24.51
74.00 25.84
75.00 27.03
76.00 27.34
77.00 27.29
78.00 27.18
79.00 26.76
80.00 25.34
81.00 25.50
82.00 26.28
83.00 27.21
84.00 27.89
85.00 28.19
86.00 28.01
87.00 27.37
88.00 27.34
89.00 28.15
90.00 28.69
91.00 28.07
92.00 27.56
93.00 28.89
94.00 34.10
95.00 38.96
96.00 32.56
97.00 30.70
98.00 31.35
99.00 32.20
100.00 34.11
101.00 41.46
102.00 50.32
103.00 36.47
104.00 33.26
105.00 32.33
106.00 33.40
107.00 36.63
108.00 41.18
109.00 43.48
110.00 42.31
111.00 41.85
112.00 43.32
113.00 45.59
114.00 47.60
115.00 41.38
116.00 36.48
117.00 35.30
118.00 37.32
119.00 42.60
120.00 43.36
121.00 39.74
122.00 40.15
123.00 42.28
124.00 38.25
125.00 35.25
126.00 34.40
127.00 33.27
128.00 33.01
129.00 36.31
130.00 40.14
131.00 36.89
132.00 36.59
133.00 34.90
134.00 32.49
135.00 34.26
136.00 40.85
137.00 38.50
138.00 37.25
139.00 41.14
140.00 44.14
141.00 40.08
142.00 35.18
143.00 33.80
144.00 36.40
145.00 42.84
146.00 44.82
147.00 38.51
148.00 34.65
149.00 34.64
150.00 37.46
151.00 37.92
152.00 37.18
153.00 38.53
154.00 38.25
155.00 36.24
156.00 35.79
157.00 37.25
158.00 39.47
159.00 40.77
160.00 42.93
161.00 50.19
162.00 51.69
163.00 43.09
164.00 40.04
165.00 39.67
166.00 40.66
167.00 41.77
168.00 43.99
169.00 44.36
170.00 40.20
171.00 38.89
172.00 40.82
173.00 41.21
174.00 41.71
175.00 47.50
176.00 36.58
177.00 30.83
178.00 29.13
179.00 29.67
180.00 31.48
181.00 34.03
182.00 36.54
183.00 39.29
184.00 44.55
185.00 46.77
186.00 42.54
187.00 42.33
188.00 43.58
189.00 40.70
190.00 37.17
191.00 35.64
192.00 36.83
193.00 42.81
194.00 43.21
195.00 37.15
196.00 36.67
197.00 39.46
198.00 40.40
199.00 38.74
200.00 36.53
201.00 34.37
202.00 33.80
203.00 34.73
204.00 36.22
205.00 36.96
206.00 36.09
207.00 35.98
208.00 38.63
209.00 43.58
210.00 45.01
211.00 41.84
212.00 39.76
213.00 40.21
214.00 38.06
215.00 34.81
216.00 34.61
217.00 37.35
218.00 40.46
219.00 38.72
220.00 34.56
221.00 32.51
222.00 33.30
223.00 35.22
224.00 34.89
225.00 35.12
226.00 38.19
227.00 39.67
228.00 37.31
229.00 36.28
230.00 36.92
231.00 39.03
232.00 39.87
233.00 37.30
234.00 35.61
235.00 35.77
236.00 37.03
237.00 38.48
238.00 39.92
239.00 42.14
240.00 45.07
241.00 45.50
242.00 41.87
243.00 37.11
244.00 33.41
245.00 31.09
246.00 29.67
247.00 28.61
248.00 27.74
249.00 27.17
250.00 27.16
251.00 28.08
252.00 30.20
253.00 33.01
254.00 34.21
255.00 33.24
256.00 32.26
257.00 32.36
258.00 33.86
259.00 36.25
260.00 38.02
261.00 39.23
262.00 39.70
263.00 38.29
264.00 37.97
265.00 42.22
266.00 50.73
267.00 39.10
268.00 36.07
269.00 38.16
270.00 42.53
271.00 38.70
272.00 36.26
273.00 37.18
274.00 40.64
275.00 47.01
276.00 53.89
277.00 47.11
278.00 38.38
279.00 33.79
280.00 32.42
281.00 33.62
282.00 36.72
283.00 39.30
284.00 37.27
285.00 32.69
286.00 27.87
287.00 23.77
288.00 20.75
289.00 18.62
290.00 16.99
291.00 15.57
292.00 14.30
293.00 13.26
294.00 12.53
295.00 12.05
296.00 11.82
297.00 11.87
298.00 12.32
299.00 13.26
300.00 14.76
301.00 16.84
302.00 19.77
303.00 24.32
304.00 29.99
305.00 28.24
306.00 24.89
307.00 23.33
308.00 22.79
309.00 23.84
310.00 28.58
311.00 33.49
312.00 26.00
313.00 23.30
314.00 23.76
315.00 25.06
316.00 24.98
317.00 24.08
318.00 23.05
319.00 21.82
320.00 21.01
321.00 21.56
322.00 24.26
323.00 28.40
324.00 25.95
325.00 21.85
326.00 20.17
327.00 20.24
328.00 20.65
329.00 20.23
330.00 19.66
331.00 19.34
332.00 18.34
333.00 16.50
334.00 15.00
335.00 14.71
336.00 16.22
337.00 20.56
338.00 32.07
339.00 25.90
340.00 20.51
341.00 19.90
342.00 23.29
343.00 38.50
344.00 25.29
345.00 20.18
346.00 19.87
347.00 22.42
348.00 24.63
349.00 23.49
350.00 24.26
351.00 30.81
352.00 25.20
353.00 19.66
354.00 20.69
355.00 24.02
356.00 12.75
357.00 6.12
358.00 2.43
359.00 0.50
