NAME ATR4518R7_1850_X_CO_P45_09T_yyR
FREQUENCY 1850
GAIN 15.05 dBd
TILT	ELECTRICAL
COMMENT DATE 05.08.2013 +45 degrees polarized system Lever position 09T deg
HORIZONTAL 360
0.00 0.01
1.00 0.00
2.00 0.00
3.00 0.00
4.00 0.01
5.00 0.03
6.00 0.06
7.00 0.09
8.00 0.14
9.00 0.19
10.00 0.26
11.00 0.33
12.00 0.41
13.00 0.50
14.00 0.60
15.00 0.71
16.00 0.83
17.00 0.96
18.00 1.10
19.00 1.25
20.00 1.41
21.00 1.57
22.00 1.75
23.00 1.94
24.00 2.13
25.00 2.34
26.00 2.55
27.00 2.76
28.00 2.98
29.00 3.21
30.00 3.44
31.00 3.68
32.00 3.92
33.00 4.16
34.00 4.40
35.00 4.64
36.00 4.88
37.00 5.12
38.00 5.36
39.00 5.60
40.00 5.83
41.00 6.07
42.00 6.30
43.00 6.53
44.00 6.75
45.00 6.98
46.00 7.20
47.00 7.42
48.00 7.65
49.00 7.88
50.00 8.10
51.00 8.33
52.00 8.56
53.00 8.80
54.00 9.04
55.00 9.28
56.00 9.53
57.00 9.78
58.00 10.04
59.00 10.31
60.00 10.58
61.00 10.85
62.00 11.14
63.00 11.42
64.00 11.71
65.00 12.01
66.00 12.32
67.00 12.63
68.00 12.94
69.00 13.27
70.00 13.60
71.00 13.93
72.00 14.27
73.00 14.62
74.00 14.98
75.00 15.34
76.00 15.72
77.00 16.10
78.00 16.49
79.00 16.89
80.00 17.30
81.00 17.72
82.00 18.15
83.00 18.59
84.00 19.04
85.00 19.50
86.00 19.97
87.00 20.45
88.00 20.94
89.00 21.43
90.00 21.92
91.00 22.42
92.00 22.92
93.00 23.41
94.00 23.90
95.00 24.38
96.00 24.85
97.00 25.31
98.00 25.75
99.00 26.18
100.00 26.60
101.00 27.00
102.00 27.38
103.00 27.76
104.00 28.11
105.00 28.46
106.00 28.79
107.00 29.12
108.00 29.42
109.00 29.71
110.00 29.98
111.00 30.23
112.00 30.44
113.00 30.63
114.00 30.78
115.00 30.90
116.00 30.99
117.00 31.04
118.00 31.07
119.00 31.08
120.00 31.08
121.00 31.07
122.00 31.07
123.00 31.07
124.00 31.10
125.00 31.15
126.00 31.22
127.00 31.33
128.00 31.47
129.00 31.65
130.00 31.86
131.00 32.11
132.00 32.40
133.00 32.73
134.00 33.10
135.00 33.50
136.00 33.93
137.00 34.39
138.00 34.88
139.00 35.38
140.00 35.91
141.00 36.44
142.00 37.00
143.00 37.57
144.00 38.17
145.00 38.81
146.00 39.49
147.00 40.25
148.00 41.12
149.00 42.13
150.00 43.34
151.00 44.83
152.00 46.71
153.00 49.11
154.00 51.98
155.00 53.79
156.00 51.90
157.00 48.62
158.00 45.78
159.00 43.47
160.00 41.61
161.00 40.06
162.00 38.74
163.00 37.62
164.00 36.66
165.00 35.83
166.00 35.11
167.00 34.50
168.00 33.97
169.00 33.53
170.00 33.16
171.00 32.85
172.00 32.60
173.00 32.42
174.00 32.29
175.00 32.21
176.00 32.17
177.00 32.17
178.00 32.21
179.00 32.29
180.00 32.40
181.00 32.53
182.00 32.68
183.00 32.84
184.00 33.01
185.00 33.17
186.00 33.33
187.00 33.47
188.00 33.59
189.00 33.67
190.00 33.73
191.00 33.76
192.00 33.74
193.00 33.70
194.00 33.63
195.00 33.53
196.00 33.43
197.00 33.32
198.00 33.21
199.00 33.10
200.00 33.01
201.00 32.94
202.00 32.89
203.00 32.87
204.00 32.88
205.00 32.93
206.00 33.01
207.00 33.13
208.00 33.29
209.00 33.49
210.00 33.72
211.00 33.98
212.00 34.27
213.00 34.56
214.00 34.84
215.00 35.09
216.00 35.27
217.00 35.37
218.00 35.34
219.00 35.17
220.00 34.88
221.00 34.46
222.00 33.96
223.00 33.40
224.00 32.81
225.00 32.22
226.00 31.64
227.00 31.08
228.00 30.55
229.00 30.06
230.00 29.61
231.00 29.20
232.00 28.83
233.00 28.49
234.00 28.20
235.00 27.94
236.00 27.72
237.00 27.54
238.00 27.38
239.00 27.26
240.00 27.16
241.00 27.09
242.00 27.05
243.00 27.02
244.00 27.02
245.00 27.03
246.00 27.06
247.00 27.09
248.00 27.13
249.00 27.18
250.00 27.22
251.00 27.26
252.00 27.29
253.00 27.31
254.00 27.31
255.00 27.29
256.00 27.25
257.00 27.18
258.00 27.09
259.00 26.97
260.00 26.82
261.00 26.65
262.00 26.44
263.00 26.21
264.00 25.96
265.00 25.69
266.00 25.39
267.00 25.08
268.00 24.75
269.00 24.41
270.00 24.07
271.00 23.70
272.00 23.34
273.00 22.97
274.00 22.59
275.00 22.21
276.00 21.83
277.00 21.45
278.00 21.06
279.00 20.68
280.00 20.29
281.00 19.91
282.00 19.53
283.00 19.14
284.00 18.76
285.00 18.38
286.00 17.99
287.00 17.61
288.00 17.23
289.00 16.85
290.00 16.46
291.00 16.08
292.00 15.70
293.00 15.32
294.00 14.94
295.00 14.55
296.00 14.17
297.00 13.79
298.00 13.41
299.00 13.03
300.00 12.65
301.00 12.27
302.00 11.89
303.00 11.52
304.00 11.15
305.00 10.78
306.00 10.41
307.00 10.04
308.00 9.68
309.00 9.32
310.00 8.97
311.00 8.62
312.00 8.27
313.00 7.94
314.00 7.60
315.00 7.27
316.00 6.95
317.00 6.63
318.00 6.33
319.00 6.02
320.00 5.73
321.00 5.44
322.00 5.16
323.00 4.89
324.00 4.62
325.00 4.36
326.00 4.11
327.00 3.87
328.00 3.64
329.00 3.42
330.00 3.20
331.00 2.99
332.00 2.79
333.00 2.60
334.00 2.41
335.00 2.24
336.00 2.07
337.00 1.91
338.00 1.75
339.00 1.61
340.00 1.47
341.00 1.34
342.00 1.21
343.00 1.10
344.00 0.98
345.00 0.88
346.00 0.78
347.00 0.69
348.00 0.60
349.00 0.52
350.00 0.44
351.00 0.37
352.00 0.31
353.00 0.25
354.00 0.20
355.00 0.15
356.00 0.11
357.00 0.08
358.00 0.05
359.00 0.02
VERTICAL 360
0.00 30.80
1.00 28.62
2.00 18.82
3.00 12.27
4.00 7.79
5.00 4.60
6.00 2.35
7.00 0.89
8.00 0.13
9.00 0.04
10.00 0.64
11.00 2.00
12.00 4.28
13.00 7.85
14.00 13.86
15.00 27.41
16.00 20.79
17.00 15.42
18.00 14.17
19.00 15.06
20.00 18.18
21.00 24.98
22.00 25.93
23.00 19.41
24.00 16.90
25.00 16.71
26.00 18.44
27.00 22.52
28.00 29.96
29.00 28.02
30.00 22.33
31.00 19.73
32.00 18.94
33.00 19.74
34.00 22.69
35.00 30.92
36.00 35.40
37.00 24.34
38.00 20.88
39.00 19.73
40.00 19.95
41.00 21.22
42.00 23.53
43.00 27.43
44.00 33.90
45.00 32.79
46.00 26.68
47.00 23.46
48.00 21.88
49.00 21.39
50.00 21.74
51.00 22.77
52.00 24.30
53.00 25.80
54.00 26.23
55.00 25.36
56.00 24.27
57.00 23.68
58.00 23.75
59.00 24.47
60.00 25.78
61.00 27.62
62.00 29.93
63.00 32.67
64.00 35.66
65.00 38.24
66.00 39.33
67.00 38.75
68.00 37.52
69.00 36.37
70.00 35.40
71.00 34.50
72.00 33.76
73.00 33.24
74.00 32.80
75.00 32.20
76.00 31.36
77.00 30.42
78.00 29.64
79.00 29.18
80.00 29.08
81.00 29.22
82.00 29.38
83.00 29.39
84.00 29.39
85.00 29.71
86.00 30.43
87.00 31.30
88.00 31.84
89.00 31.65
90.00 30.61
91.00 29.22
92.00 28.14
93.00 27.74
94.00 27.96
95.00 28.57
96.00 29.23
97.00 29.71
98.00 30.09
99.00 30.66
100.00 31.73
101.00 33.47
102.00 35.91
103.00 38.80
104.00 41.30
105.00 42.06
106.00 41.15
107.00 39.94
108.00 39.15
109.00 38.91
110.00 39.21
111.00 39.93
112.00 40.95
113.00 42.09
114.00 43.17
115.00 44.18
116.00 45.28
117.00 46.17
118.00 45.86
119.00 44.28
120.00 42.68
121.00 41.82
122.00 41.88
123.00 42.79
124.00 44.50
125.00 47.06
126.00 50.09
127.00 49.34
128.00 44.75
129.00 41.18
130.00 38.96
131.00 37.58
132.00 36.50
133.00 35.51
134.00 34.99
135.00 35.29
136.00 36.31
137.00 36.98
138.00 36.33
139.00 35.38
140.00 35.18
141.00 35.95
142.00 37.65
143.00 40.33
144.00 44.34
145.00 51.30
146.00 58.09
147.00 45.77
148.00 39.65
149.00 36.02
150.00 34.05
151.00 33.34
152.00 33.48
153.00 34.03
154.00 34.73
155.00 35.68
156.00 36.48
157.00 36.16
158.00 35.35
159.00 35.46
160.00 37.12
161.00 40.28
162.00 43.84
163.00 44.85
164.00 40.97
165.00 36.76
166.00 34.29
167.00 33.20
168.00 32.58
169.00 31.85
170.00 31.43
171.00 31.98
172.00 33.65
173.00 35.82
174.00 37.05
175.00 36.40
176.00 35.16
177.00 34.93
178.00 36.77
179.00 41.85
180.00 46.16
181.00 42.11
182.00 41.81
183.00 45.87
184.00 48.94
185.00 44.11
186.00 41.61
187.00 40.23
188.00 38.55
189.00 36.30
190.00 33.97
191.00 32.20
192.00 31.35
193.00 31.48
194.00 32.34
195.00 33.31
196.00 33.57
197.00 33.04
198.00 32.28
199.00 31.82
200.00 31.92
201.00 32.68
202.00 34.09
203.00 36.07
204.00 38.58
205.00 41.97
206.00 48.36
207.00 51.43
208.00 40.15
209.00 34.56
210.00 31.22
211.00 29.24
212.00 28.29
213.00 28.20
214.00 28.88
215.00 30.24
216.00 32.13
217.00 34.14
218.00 35.67
219.00 36.44
220.00 37.05
221.00 38.44
222.00 41.67
223.00 49.13
224.00 50.91
225.00 43.36
226.00 41.05
227.00 41.93
228.00 47.84
229.00 55.16
230.00 41.34
231.00 37.02
232.00 35.55
233.00 35.97
234.00 37.79
235.00 39.72
236.00 39.81
237.00 38.94
238.00 38.77
239.00 39.74
240.00 42.16
241.00 46.71
242.00 49.33
243.00 43.60
244.00 39.79
245.00 38.03
246.00 37.70
247.00 38.38
248.00 39.71
249.00 41.25
250.00 42.23
251.00 41.58
252.00 39.37
253.00 37.09
254.00 35.68
255.00 35.47
256.00 36.60
257.00 39.04
258.00 41.90
259.00 41.93
260.00 39.10
261.00 36.30
262.00 34.31
263.00 33.21
264.00 32.94
265.00 33.26
266.00 33.69
267.00 33.62
268.00 32.66
269.00 31.17
270.00 29.72
271.00 28.71
272.00 28.26
273.00 28.33
274.00 28.76
275.00 29.30
276.00 29.73
277.00 29.94
278.00 30.04
279.00 30.22
280.00 30.56
281.00 30.99
282.00 31.31
283.00 31.42
284.00 31.54
285.00 32.05
286.00 33.28
287.00 35.20
288.00 36.76
289.00 36.02
290.00 33.51
291.00 30.80
292.00 28.33
293.00 26.18
294.00 24.44
295.00 23.16
296.00 22.33
297.00 21.89
298.00 21.83
299.00 22.17
300.00 22.94
301.00 24.14
302.00 25.60
303.00 26.90
304.00 28.01
305.00 29.72
306.00 33.24
307.00 36.92
308.00 32.35
309.00 27.97
310.00 25.53
311.00 24.33
312.00 24.13
313.00 25.08
314.00 27.90
315.00 33.44
316.00 30.03
317.00 23.57
318.00 20.11
319.00 18.39
320.00 17.85
321.00 18.20
322.00 19.34
323.00 21.27
324.00 23.42
325.00 23.00
326.00 19.85
327.00 17.05
328.00 15.28
329.00 14.42
330.00 14.31
331.00 14.82
332.00 15.93
333.00 17.70
334.00 20.36
335.00 24.26
336.00 29.29
337.00 30.57
338.00 27.01
339.00 23.96
340.00 21.67
341.00 20.05
342.00 19.30
343.00 19.78
344.00 22.23
345.00 28.91
346.00 32.96
347.00 23.64
348.00 20.45
349.00 20.10
350.00 22.35
351.00 29.94
352.00 35.26
353.00 23.30
354.00 19.75
355.00 18.99
356.00 20.44
357.00 24.64
358.00 32.37
359.00 31.86
