NAME ATR4518R7_2350_X_CO_M45_01T_yyR
FREQUENCY 2350
GAIN 15.66 dBd
TILT	ELECTRICAL
COMMENT DATE 05.08.2013 -45 degrees polarized system Lever position 01T deg
HORIZONTAL 360
0.00 0.03
1.00 0.01
2.00 0.00
3.00 0.00
4.00 0.01
5.00 0.03
6.00 0.06
7.00 0.09
8.00 0.13
9.00 0.19
10.00 0.25
11.00 0.31
12.00 0.39
13.00 0.47
14.00 0.55
15.00 0.65
16.00 0.74
17.00 0.85
18.00 0.96
19.00 1.08
20.00 1.20
21.00 1.32
22.00 1.46
23.00 1.60
24.00 1.75
25.00 1.90
26.00 2.07
27.00 2.24
28.00 2.42
29.00 2.62
30.00 2.82
31.00 3.04
32.00 3.27
33.00 3.51
34.00 3.77
35.00 4.04
36.00 4.32
37.00 4.62
38.00 4.94
39.00 5.26
40.00 5.61
41.00 5.97
42.00 6.35
43.00 6.74
44.00 7.14
45.00 7.56
46.00 7.99
47.00 8.44
48.00 8.89
49.00 9.36
50.00 9.84
51.00 10.32
52.00 10.81
53.00 11.31
54.00 11.81
55.00 12.32
56.00 12.83
57.00 13.34
58.00 13.85
59.00 14.37
60.00 14.89
61.00 15.41
62.00 15.94
63.00 16.47
64.00 17.00
65.00 17.54
66.00 18.09
67.00 18.64
68.00 19.21
69.00 19.78
70.00 20.37
71.00 20.96
72.00 21.57
73.00 22.18
74.00 22.81
75.00 23.43
76.00 24.06
77.00 24.69
78.00 25.30
79.00 25.90
80.00 26.49
81.00 27.04
82.00 27.55
83.00 28.03
84.00 28.46
85.00 28.84
86.00 29.17
87.00 29.46
88.00 29.71
89.00 29.94
90.00 30.14
91.00 30.32
92.00 30.49
93.00 30.66
94.00 30.82
95.00 30.97
96.00 31.12
97.00 31.24
98.00 31.35
99.00 31.42
100.00 31.45
101.00 31.44
102.00 31.38
103.00 31.28
104.00 31.13
105.00 30.94
106.00 30.73
107.00 30.51
108.00 30.29
109.00 30.09
110.00 29.90
111.00 29.75
112.00 29.63
113.00 29.55
114.00 29.52
115.00 29.53
116.00 29.60
117.00 29.72
118.00 29.90
119.00 30.13
120.00 30.42
121.00 30.76
122.00 31.16
123.00 31.61
124.00 32.11
125.00 32.67
126.00 33.27
127.00 33.92
128.00 34.61
129.00 35.34
130.00 36.12
131.00 36.93
132.00 37.80
133.00 38.73
134.00 39.76
135.00 40.93
136.00 42.29
137.00 43.96
138.00 46.12
139.00 49.15
140.00 54.07
141.00 64.49
142.00 56.68
143.00 50.06
144.00 46.22
145.00 43.55
146.00 41.52
147.00 39.91
148.00 38.60
149.00 37.54
150.00 36.67
151.00 35.97
152.00 35.42
153.00 35.01
154.00 34.73
155.00 34.57
156.00 34.55
157.00 34.65
158.00 34.88
159.00 35.27
160.00 35.81
161.00 36.53
162.00 37.47
163.00 38.67
164.00 40.21
165.00 42.18
166.00 44.71
167.00 47.64
168.00 49.08
169.00 47.00
170.00 43.98
171.00 41.44
172.00 39.44
173.00 37.85
174.00 36.58
175.00 35.55
176.00 34.73
177.00 34.07
178.00 33.56
179.00 33.18
180.00 32.92
181.00 32.77
182.00 32.71
183.00 32.75
184.00 32.88
185.00 33.10
186.00 33.40
187.00 33.77
188.00 34.22
189.00 34.71
190.00 35.25
191.00 35.81
192.00 36.36
193.00 36.87
194.00 37.31
195.00 37.64
196.00 37.87
197.00 37.99
198.00 38.03
199.00 38.04
200.00 38.04
201.00 38.07
202.00 38.16
203.00 38.34
204.00 38.62
205.00 39.03
206.00 39.57
207.00 40.26
208.00 41.13
209.00 42.15
210.00 43.30
211.00 44.50
212.00 45.50
213.00 45.92
214.00 45.55
215.00 44.57
216.00 43.35
217.00 42.16
218.00 41.10
219.00 40.21
220.00 39.50
221.00 38.96
222.00 38.58
223.00 38.35
224.00 38.28
225.00 38.35
226.00 38.56
227.00 38.91
228.00 39.39
229.00 39.98
230.00 40.63
231.00 41.23
232.00 41.63
233.00 41.62
234.00 41.14
235.00 40.24
236.00 39.11
237.00 37.92
238.00 36.76
239.00 35.68
240.00 34.70
241.00 33.81
242.00 33.03
243.00 32.34
244.00 31.73
245.00 31.21
246.00 30.75
247.00 30.36
248.00 30.04
249.00 29.77
250.00 29.55
251.00 29.38
252.00 29.26
253.00 29.17
254.00 29.11
255.00 29.08
256.00 29.06
257.00 29.05
258.00 29.03
259.00 28.99
260.00 28.92
261.00 28.81
262.00 28.63
263.00 28.39
264.00 28.08
265.00 27.71
266.00 27.28
267.00 26.80
268.00 26.28
269.00 25.74
270.00 25.19
271.00 24.63
272.00 24.08
273.00 23.53
274.00 23.00
275.00 22.48
276.00 21.97
277.00 21.49
278.00 21.01
279.00 20.56
280.00 20.11
281.00 19.68
282.00 19.26
283.00 18.85
284.00 18.44
285.00 18.04
286.00 17.64
287.00 17.25
288.00 16.85
289.00 16.46
290.00 16.06
291.00 15.66
292.00 15.25
293.00 14.84
294.00 14.43
295.00 14.01
296.00 13.59
297.00 13.16
298.00 12.74
299.00 12.31
300.00 11.88
301.00 11.45
302.00 11.02
303.00 10.60
304.00 10.18
305.00 9.76
306.00 9.35
307.00 8.95
308.00 8.55
309.00 8.16
310.00 7.78
311.00 7.41
312.00 7.04
313.00 6.69
314.00 6.36
315.00 6.03
316.00 5.71
317.00 5.41
318.00 5.12
319.00 4.84
320.00 4.57
321.00 4.32
322.00 4.07
323.00 3.84
324.00 3.63
325.00 3.42
326.00 3.23
327.00 3.04
328.00 2.87
329.00 2.71
330.00 2.56
331.00 2.42
332.00 2.28
333.00 2.16
334.00 2.04
335.00 1.92
336.00 1.82
337.00 1.72
338.00 1.62
339.00 1.52
340.00 1.43
341.00 1.34
342.00 1.25
343.00 1.16
344.00 1.08
345.00 0.99
346.00 0.91
347.00 0.82
348.00 0.74
349.00 0.66
350.00 0.58
351.00 0.50
352.00 0.43
353.00 0.36
354.00 0.29
355.00 0.23
356.00 0.18
357.00 0.13
358.00 0.09
359.00 0.06
VERTICAL 360
0.00 0.48
1.00 0.00
2.00 0.59
3.00 2.40
4.00 5.90
5.00 12.80
6.00 24.19
7.00 14.75
8.00 11.65
9.00 12.40
10.00 16.92
11.00 24.97
12.00 17.67
13.00 13.52
14.00 12.88
15.00 14.70
16.00 19.08
17.00 23.09
18.00 20.73
19.00 19.34
20.00 20.95
21.00 25.56
22.00 26.39
23.00 21.56
24.00 18.35
25.00 16.50
26.00 15.79
27.00 16.36
28.00 18.17
29.00 20.55
30.00 21.66
31.00 20.21
32.00 17.81
33.00 16.15
34.00 15.74
35.00 16.54
36.00 18.39
37.00 21.28
38.00 25.92
39.00 35.23
40.00 31.34
41.00 25.51
42.00 24.08
43.00 25.41
44.00 29.54
45.00 35.27
46.00 32.73
47.00 28.90
48.00 26.95
49.00 26.10
50.00 26.20
51.00 27.34
52.00 29.73
53.00 33.15
54.00 34.35
55.00 32.30
56.00 30.86
57.00 30.55
58.00 30.86
59.00 31.52
60.00 32.29
61.00 32.52
62.00 31.72
63.00 30.66
64.00 30.14
65.00 29.99
66.00 29.73
67.00 29.41
68.00 29.36
69.00 29.55
70.00 29.81
71.00 30.06
72.00 30.56
73.00 31.37
74.00 32.03
75.00 32.00
76.00 31.17
77.00 29.77
78.00 28.29
79.00 27.20
80.00 26.72
81.00 26.67
82.00 26.70
83.00 26.84
84.00 27.24
85.00 27.80
86.00 28.49
87.00 29.04
88.00 29.10
89.00 29.07
90.00 29.15
91.00 29.13
92.00 29.49
93.00 30.54
94.00 31.51
95.00 32.24
96.00 33.55
97.00 35.00
98.00 36.07
99.00 37.27
100.00 37.69
101.00 37.48
102.00 38.18
103.00 39.07
104.00 39.07
105.00 39.50
106.00 41.27
107.00 43.75
108.00 44.79
109.00 43.49
110.00 41.87
111.00 41.20
112.00 41.68
113.00 43.04
114.00 44.56
115.00 45.15
116.00 45.02
117.00 46.42
118.00 51.25
119.00 49.03
120.00 43.84
121.00 42.24
122.00 42.13
123.00 41.28
124.00 40.41
125.00 41.47
126.00 45.70
127.00 53.09
128.00 52.63
129.00 46.66
130.00 41.79
131.00 39.33
132.00 38.86
133.00 39.63
134.00 40.86
135.00 42.10
136.00 43.41
137.00 44.10
138.00 43.21
139.00 43.42
140.00 45.28
141.00 41.93
142.00 38.12
143.00 37.22
144.00 38.51
145.00 40.76
146.00 42.61
147.00 44.69
148.00 52.49
149.00 50.53
150.00 41.18
151.00 39.04
152.00 40.44
153.00 44.04
154.00 47.93
155.00 50.39
156.00 50.30
157.00 50.91
158.00 43.48
159.00 38.08
160.00 36.42
161.00 37.32
162.00 39.82
163.00 41.74
164.00 39.94
165.00 37.54
166.00 37.15
167.00 38.62
168.00 40.50
169.00 40.64
170.00 39.17
171.00 38.10
172.00 38.59
173.00 41.00
174.00 44.55
175.00 42.53
176.00 37.77
177.00 34.78
178.00 33.26
179.00 32.72
180.00 32.56
181.00 32.61
182.00 33.39
183.00 35.76
184.00 39.79
185.00 42.48
186.00 43.35
187.00 46.29
188.00 51.89
189.00 51.03
190.00 43.96
191.00 40.09
192.00 39.04
193.00 40.01
194.00 41.87
195.00 41.95
196.00 38.18
197.00 34.99
198.00 34.69
199.00 38.58
200.00 47.55
201.00 40.95
202.00 38.23
203.00 39.09
204.00 39.92
205.00 37.49
206.00 34.07
207.00 32.72
208.00 34.49
209.00 41.65
210.00 49.32
211.00 39.94
212.00 37.31
213.00 36.47
214.00 36.71
215.00 37.23
216.00 36.98
217.00 36.99
218.00 38.34
219.00 40.64
220.00 41.56
221.00 40.59
222.00 40.18
223.00 41.01
224.00 42.62
225.00 44.96
226.00 46.81
227.00 45.04
228.00 43.05
229.00 41.76
230.00 39.69
231.00 37.84
232.00 37.53
233.00 39.09
234.00 42.26
235.00 45.14
236.00 45.25
237.00 43.85
238.00 41.24
239.00 37.66
240.00 34.54
241.00 32.77
242.00 32.76
243.00 35.01
244.00 41.02
245.00 51.43
246.00 43.55
247.00 39.75
248.00 37.97
249.00 36.58
250.00 35.60
251.00 35.30
252.00 35.55
253.00 35.58
254.00 35.00
255.00 34.41
256.00 34.14
257.00 34.03
258.00 33.70
259.00 32.93
260.00 31.72
261.00 30.31
262.00 28.99
263.00 27.80
264.00 26.63
265.00 25.38
266.00 24.12
267.00 23.06
268.00 22.31
269.00 21.87
270.00 21.70
271.00 21.76
272.00 21.92
273.00 22.01
274.00 21.96
275.00 21.83
276.00 21.76
277.00 21.97
278.00 22.65
279.00 23.74
280.00 24.96
281.00 25.86
282.00 26.28
283.00 26.37
284.00 26.50
285.00 26.96
286.00 27.99
287.00 29.82
288.00 32.49
289.00 35.65
290.00 38.64
291.00 42.15
292.00 53.55
293.00 43.06
294.00 34.09
295.00 29.57
296.00 27.10
297.00 26.09
298.00 26.29
299.00 27.39
300.00 28.80
301.00 29.76
302.00 30.41
303.00 31.09
304.00 30.40
305.00 28.56
306.00 27.70
307.00 28.36
308.00 29.59
309.00 29.63
310.00 29.35
311.00 31.28
312.00 33.62
313.00 28.16
314.00 24.01
315.00 22.69
316.00 23.41
317.00 25.78
318.00 30.07
319.00 37.05
320.00 32.02
321.00 25.54
322.00 22.17
323.00 20.46
324.00 19.67
325.00 19.32
326.00 19.05
327.00 18.63
328.00 18.33
329.00 18.69
330.00 19.62
331.00 20.12
332.00 19.99
333.00 20.29
334.00 21.60
335.00 24.03
336.00 28.13
337.00 37.35
338.00 32.99
339.00 25.54
340.00 22.99
341.00 23.35
342.00 26.20
343.00 28.71
344.00 27.26
345.00 26.71
346.00 29.66
347.00 35.55
348.00 30.07
349.00 25.90
350.00 25.11
351.00 25.31
352.00 23.98
353.00 22.72
354.00 24.96
355.00 26.52
356.00 15.71
357.00 8.94
358.00 4.70
359.00 2.00
