NAME ATR4518R7_0847_X_CO_P45_03T
FREQUENCY 0847
GAIN 14.49 dBd
TILT	ELECTRICAL
COMMENT DATE 05.08.2013 +45 degrees polarized system Lever position 03T deg
HORIZONTAL 360
0.00 0.00
1.00 0.01
2.00 0.02
3.00 0.04
4.00 0.06
5.00 0.09
6.00 0.13
7.00 0.17
8.00 0.22
9.00 0.27
10.00 0.33
11.00 0.40
12.00 0.47
13.00 0.54
14.00 0.63
15.00 0.71
16.00 0.81
17.00 0.91
18.00 1.01
19.00 1.12
20.00 1.24
21.00 1.36
22.00 1.49
23.00 1.63
24.00 1.77
25.00 1.91
26.00 2.06
27.00 2.22
28.00 2.38
29.00 2.55
30.00 2.73
31.00 2.91
32.00 3.09
33.00 3.28
34.00 3.48
35.00 3.68
36.00 3.89
37.00 4.10
38.00 4.32
39.00 4.55
40.00 4.78
41.00 5.01
42.00 5.25
43.00 5.50
44.00 5.75
45.00 6.01
46.00 6.27
47.00 6.54
48.00 6.82
49.00 7.10
50.00 7.38
51.00 7.67
52.00 7.97
53.00 8.27
54.00 8.57
55.00 8.88
56.00 9.20
57.00 9.52
58.00 9.85
59.00 10.18
60.00 10.52
61.00 10.86
62.00 11.21
63.00 11.56
64.00 11.92
65.00 12.29
66.00 12.65
67.00 13.03
68.00 13.41
69.00 13.79
70.00 14.18
71.00 14.57
72.00 14.97
73.00 15.37
74.00 15.78
75.00 16.19
76.00 16.60
77.00 17.02
78.00 17.44
79.00 17.86
80.00 18.29
81.00 18.71
82.00 19.14
83.00 19.56
84.00 19.98
85.00 20.40
86.00 20.82
87.00 21.23
88.00 21.64
89.00 22.03
90.00 22.42
91.00 22.80
92.00 23.16
93.00 23.50
94.00 23.84
95.00 24.15
96.00 24.44
97.00 24.72
98.00 24.97
99.00 25.21
100.00 25.43
101.00 25.63
102.00 25.81
103.00 25.98
104.00 26.13
105.00 26.27
106.00 26.39
107.00 26.51
108.00 26.63
109.00 26.73
110.00 26.83
111.00 26.93
112.00 27.03
113.00 27.13
114.00 27.23
115.00 27.33
116.00 27.43
117.00 27.54
118.00 27.65
119.00 27.76
120.00 27.89
121.00 28.02
122.00 28.15
123.00 28.29
124.00 28.44
125.00 28.59
126.00 28.75
127.00 28.92
128.00 29.09
129.00 29.27
130.00 29.45
131.00 29.64
132.00 29.84
133.00 30.03
134.00 30.24
135.00 30.45
136.00 30.66
137.00 30.88
138.00 31.09
139.00 31.32
140.00 31.54
141.00 31.76
142.00 31.98
143.00 32.20
144.00 32.42
145.00 32.64
146.00 32.85
147.00 33.06
148.00 33.26
149.00 33.46
150.00 33.65
151.00 33.83
152.00 34.01
153.00 34.18
154.00 34.35
155.00 34.50
156.00 34.65
157.00 34.79
158.00 34.92
159.00 35.05
160.00 35.17
161.00 35.28
162.00 35.39
163.00 35.50
164.00 35.61
165.00 35.72
166.00 35.83
167.00 35.93
168.00 36.05
169.00 36.16
170.00 36.28
171.00 36.41
172.00 36.54
173.00 36.68
174.00 36.84
175.00 37.00
176.00 37.17
177.00 37.36
178.00 37.56
179.00 37.77
180.00 38.00
181.00 38.25
182.00 38.52
183.00 38.80
184.00 39.11
185.00 39.45
186.00 39.80
187.00 40.17
188.00 40.59
189.00 41.02
190.00 41.48
191.00 41.99
192.00 42.53
193.00 43.11
194.00 43.71
195.00 44.37
196.00 45.06
197.00 45.77
198.00 46.51
199.00 47.23
200.00 47.91
201.00 48.51
202.00 48.93
203.00 49.14
204.00 49.07
205.00 48.75
206.00 48.24
207.00 47.58
208.00 46.88
209.00 46.11
210.00 45.37
211.00 44.66
212.00 43.95
213.00 43.31
214.00 42.68
215.00 42.10
216.00 41.54
217.00 41.03
218.00 40.54
219.00 40.07
220.00 39.65
221.00 39.24
222.00 38.84
223.00 38.47
224.00 38.10
225.00 37.76
226.00 37.43
227.00 37.10
228.00 36.78
229.00 36.46
230.00 36.15
231.00 35.83
232.00 35.51
233.00 35.19
234.00 34.86
235.00 34.52
236.00 34.17
237.00 33.81
238.00 33.43
239.00 33.05
240.00 32.65
241.00 32.24
242.00 31.82
243.00 31.39
244.00 30.94
245.00 30.49
246.00 30.04
247.00 29.57
248.00 29.10
249.00 28.64
250.00 28.16
251.00 27.69
252.00 27.22
253.00 26.76
254.00 26.29
255.00 25.83
256.00 25.37
257.00 24.92
258.00 24.47
259.00 24.03
260.00 23.60
261.00 23.17
262.00 22.75
263.00 22.34
264.00 21.93
265.00 21.53
266.00 21.13
267.00 20.75
268.00 20.36
269.00 19.99
270.00 19.62
271.00 19.25
272.00 18.89
273.00 18.54
274.00 18.19
275.00 17.84
276.00 17.50
277.00 17.16
278.00 16.82
279.00 16.49
280.00 16.16
281.00 15.84
282.00 15.52
283.00 15.19
284.00 14.87
285.00 14.55
286.00 14.24
287.00 13.92
288.00 13.61
289.00 13.29
290.00 12.98
291.00 12.67
292.00 12.36
293.00 12.05
294.00 11.74
295.00 11.44
296.00 11.13
297.00 10.82
298.00 10.52
299.00 10.22
300.00 9.92
301.00 9.62
302.00 9.33
303.00 9.03
304.00 8.74
305.00 8.45
306.00 8.16
307.00 7.88
308.00 7.60
309.00 7.33
310.00 7.05
311.00 6.78
312.00 6.52
313.00 6.26
314.00 6.00
315.00 5.75
316.00 5.50
317.00 5.25
318.00 5.01
319.00 4.78
320.00 4.55
321.00 4.33
322.00 4.11
323.00 3.89
324.00 3.68
325.00 3.48
326.00 3.28
327.00 3.09
328.00 2.90
329.00 2.72
330.00 2.55
331.00 2.38
332.00 2.21
333.00 2.06
334.00 1.90
335.00 1.76
336.00 1.61
337.00 1.48
338.00 1.35
339.00 1.23
340.00 1.11
341.00 1.00
342.00 0.89
343.00 0.79
344.00 0.70
345.00 0.61
346.00 0.53
347.00 0.45
348.00 0.38
349.00 0.32
350.00 0.26
351.00 0.21
352.00 0.16
353.00 0.12
354.00 0.09
355.00 0.06
356.00 0.03
357.00 0.02
358.00 0.01
359.00 0.00
VERTICAL 360
0.00 1.59
1.00 0.70
2.00 0.18
3.00 0.00
4.00 0.17
5.00 0.68
6.00 1.55
7.00 2.81
8.00 4.53
9.00 6.80
10.00 9.84
11.00 14.07
12.00 20.68
13.00 38.72
14.00 27.63
15.00 23.48
16.00 23.35
17.00 25.95
18.00 31.86
19.00 29.60
20.00 23.40
21.00 19.92
22.00 17.96
23.00 17.00
24.00 16.86
25.00 17.47
26.00 18.88
27.00 21.23
28.00 24.86
29.00 30.87
30.00 45.39
31.00 35.67
32.00 30.75
33.00 29.33
34.00 30.25
35.00 34.76
36.00 46.06
37.00 30.16
38.00 24.24
39.00 20.83
40.00 18.71
41.00 17.40
42.00 16.65
43.00 16.26
44.00 16.13
45.00 16.19
46.00 16.47
47.00 17.03
48.00 17.94
49.00 19.23
50.00 20.89
51.00 22.87
52.00 25.13
53.00 27.73
54.00 31.05
55.00 36.12
56.00 42.81
57.00 37.88
58.00 33.98
59.00 32.61
60.00 32.73
61.00 33.61
62.00 34.23
63.00 33.57
64.00 32.01
65.00 30.75
66.00 30.58
67.00 32.00
68.00 35.52
69.00 40.04
70.00 37.74
71.00 34.55
72.00 32.90
73.00 32.17
74.00 32.33
75.00 33.65
76.00 35.20
77.00 33.56
78.00 30.37
79.00 28.15
80.00 27.08
81.00 27.07
82.00 28.12
83.00 30.08
84.00 31.34
85.00 30.03
86.00 28.29
87.00 27.49
88.00 27.46
89.00 27.72
90.00 28.03
91.00 28.68
92.00 29.93
93.00 31.44
94.00 32.26
95.00 32.12
96.00 31.59
97.00 30.96
98.00 30.41
99.00 30.29
100.00 30.88
101.00 32.25
102.00 34.32
103.00 36.85
104.00 39.56
105.00 42.33
106.00 45.42
107.00 49.16
108.00 52.72
109.00 55.16
110.00 59.89
111.00 54.35
112.00 47.22
113.00 43.34
114.00 41.15
115.00 39.94
116.00 39.51
117.00 39.90
118.00 40.70
119.00 40.42
120.00 38.53
121.00 36.59
122.00 35.36
123.00 34.80
124.00 34.64
125.00 34.50
126.00 34.04
127.00 33.27
128.00 32.56
129.00 32.28
130.00 32.60
131.00 33.54
132.00 34.93
133.00 36.32
134.00 37.00
135.00 36.68
136.00 35.91
137.00 35.21
138.00 34.82
139.00 34.82
140.00 35.31
141.00 36.53
142.00 38.89
143.00 43.06
144.00 46.81
145.00 42.24
146.00 38.36
147.00 36.31
148.00 35.46
149.00 35.35
150.00 35.60
151.00 35.85
152.00 35.92
153.00 35.80
154.00 35.58
155.00 35.34
156.00 35.22
157.00 35.34
158.00 35.89
159.00 37.10
160.00 39.28
161.00 42.97
162.00 48.30
163.00 47.12
164.00 42.62
165.00 40.09
166.00 39.07
167.00 39.40
168.00 41.42
169.00 46.99
170.00 58.52
171.00 43.22
172.00 38.43
173.00 36.16
174.00 35.28
175.00 35.42
176.00 36.35
177.00 37.89
178.00 38.95
179.00 40.00
180.00 40.94
181.00 41.92
182.00 43.00
183.00 43.85
184.00 43.79
185.00 42.97
186.00 41.23
187.00 39.23
188.00 37.37
189.00 35.84
190.00 34.69
191.00 33.88
192.00 33.39
193.00 33.07
194.00 32.81
195.00 32.53
196.00 32.36
197.00 32.47
198.00 33.02
199.00 34.08
200.00 35.60
201.00 37.32
202.00 38.74
203.00 39.25
204.00 38.71
205.00 37.75
206.00 37.09
207.00 37.30
208.00 38.80
209.00 42.29
210.00 49.71
211.00 51.75
212.00 44.67
213.00 41.47
214.00 39.50
215.00 37.78
216.00 36.08
217.00 34.59
218.00 33.56
219.00 33.04
220.00 32.90
221.00 32.80
222.00 32.54
223.00 32.17
224.00 31.89
225.00 31.68
226.00 31.45
227.00 31.21
228.00 31.06
229.00 31.11
230.00 31.29
231.00 31.38
232.00 31.11
233.00 30.42
234.00 29.58
235.00 28.93
236.00 28.60
237.00 28.56
238.00 28.70
239.00 28.97
240.00 29.35
241.00 29.88
242.00 30.59
243.00 31.47
244.00 32.43
245.00 33.25
246.00 33.62
247.00 33.33
248.00 32.55
249.00 31.72
250.00 31.20
251.00 31.23
252.00 31.96
253.00 33.44
254.00 35.40
255.00 36.66
256.00 35.87
257.00 34.01
258.00 32.36
259.00 31.49
260.00 31.71
261.00 33.37
262.00 36.83
263.00 40.59
264.00 38.69
265.00 35.91
266.00 34.37
267.00 33.60
268.00 33.62
269.00 34.70
270.00 36.10
271.00 34.97
272.00 32.32
273.00 30.62
274.00 30.18
275.00 30.77
276.00 32.06
277.00 33.49
278.00 33.92
279.00 32.78
280.00 31.22
281.00 30.19
282.00 29.94
283.00 30.34
284.00 31.15
285.00 31.97
286.00 32.48
287.00 32.80
288.00 33.44
289.00 35.00
290.00 38.16
291.00 44.64
292.00 59.26
293.00 43.77
294.00 39.03
295.00 36.44
296.00 34.78
297.00 33.77
298.00 33.42
299.00 33.95
300.00 35.70
301.00 39.22
302.00 43.17
303.00 38.96
304.00 34.03
305.00 30.45
306.00 27.53
307.00 24.96
308.00 22.68
309.00 20.76
310.00 19.23
311.00 18.09
312.00 17.32
313.00 16.84
314.00 16.58
315.00 16.50
316.00 16.57
317.00 16.79
318.00 17.22
319.00 17.91
320.00 18.94
321.00 20.39
322.00 22.33
323.00 24.90
324.00 28.25
325.00 32.49
326.00 36.97
327.00 38.77
328.00 38.19
329.00 38.13
330.00 39.44
331.00 42.39
332.00 43.21
333.00 38.01
334.00 33.47
335.00 30.13
336.00 27.51
337.00 25.35
338.00 23.55
339.00 22.15
340.00 21.20
341.00 20.80
342.00 21.03
343.00 22.07
344.00 24.24
345.00 28.41
346.00 39.32
347.00 35.25
348.00 27.53
349.00 24.52
350.00 23.75
351.00 25.32
352.00 32.23
353.00 29.42
354.00 19.19
355.00 13.61
356.00 9.74
357.00 6.83
358.00 4.59
359.00 2.87
