NAME ATR4518R7_2140_X_CO_P45_07T_yL
FREQUENCY 2140
GAIN 15.38 dBd
TILT	ELECTRICAL
COMMENT DATE 05.08.2013 +45 degrees polarized system Lever position 07T deg
HORIZONTAL 360
0.00 0.00
1.00 0.01
2.00 0.02
3.00 0.04
4.00 0.06
5.00 0.09
6.00 0.13
7.00 0.17
8.00 0.22
9.00 0.27
10.00 0.33
11.00 0.39
12.00 0.45
13.00 0.52
14.00 0.59
15.00 0.66
16.00 0.73
17.00 0.80
18.00 0.88
19.00 0.96
20.00 1.05
21.00 1.13
22.00 1.23
23.00 1.33
24.00 1.43
25.00 1.54
26.00 1.66
27.00 1.79
28.00 1.93
29.00 2.08
30.00 2.24
31.00 2.42
32.00 2.60
33.00 2.80
34.00 3.01
35.00 3.23
36.00 3.47
37.00 3.71
38.00 3.97
39.00 4.24
40.00 4.52
41.00 4.80
42.00 5.10
43.00 5.40
44.00 5.71
45.00 6.02
46.00 6.33
47.00 6.65
48.00 6.98
49.00 7.30
50.00 7.62
51.00 7.95
52.00 8.27
53.00 8.59
54.00 8.91
55.00 9.23
56.00 9.55
57.00 9.87
58.00 10.18
59.00 10.49
60.00 10.81
61.00 11.13
62.00 11.44
63.00 11.76
64.00 12.08
65.00 12.41
66.00 12.73
67.00 13.07
68.00 13.40
69.00 13.74
70.00 14.09
71.00 14.45
72.00 14.81
73.00 15.18
74.00 15.55
75.00 15.92
76.00 16.30
77.00 16.69
78.00 17.07
79.00 17.45
80.00 17.83
81.00 18.21
82.00 18.58
83.00 18.94
84.00 19.28
85.00 19.61
86.00 19.93
87.00 20.24
88.00 20.53
89.00 20.81
90.00 21.08
91.00 21.35
92.00 21.61
93.00 21.87
94.00 22.14
95.00 22.41
96.00 22.71
97.00 23.01
98.00 23.34
99.00 23.70
100.00 24.08
101.00 24.49
102.00 24.93
103.00 25.41
104.00 25.91
105.00 26.44
106.00 27.00
107.00 27.57
108.00 28.15
109.00 28.72
110.00 29.27
111.00 29.77
112.00 30.19
113.00 30.53
114.00 30.75
115.00 30.86
116.00 30.85
117.00 30.76
118.00 30.59
119.00 30.38
120.00 30.15
121.00 29.93
122.00 29.72
123.00 29.55
124.00 29.42
125.00 29.34
126.00 29.32
127.00 29.36
128.00 29.47
129.00 29.65
130.00 29.91
131.00 30.25
132.00 30.66
133.00 31.15
134.00 31.71
135.00 32.34
136.00 32.99
137.00 33.63
138.00 34.18
139.00 34.57
140.00 34.71
141.00 34.58
142.00 34.21
143.00 33.69
144.00 33.09
145.00 32.48
146.00 31.91
147.00 31.41
148.00 30.99
149.00 30.66
150.00 30.41
151.00 30.26
152.00 30.19
153.00 30.21
154.00 30.31
155.00 30.50
156.00 30.77
157.00 31.12
158.00 31.55
159.00 32.06
160.00 32.63
161.00 33.28
162.00 33.98
163.00 34.74
164.00 35.55
165.00 36.40
166.00 37.27
167.00 38.16
168.00 39.06
169.00 39.97
170.00 40.86
171.00 41.71
172.00 42.47
173.00 43.04
174.00 43.31
175.00 43.17
176.00 42.61
177.00 41.74
178.00 40.69
179.00 39.59
180.00 38.53
181.00 37.53
182.00 36.64
183.00 35.84
184.00 35.14
185.00 34.53
186.00 34.02
187.00 33.59
188.00 33.25
189.00 32.99
190.00 32.79
191.00 32.67
192.00 32.60
193.00 32.59
194.00 32.62
195.00 32.70
196.00 32.81
197.00 32.95
198.00 33.11
199.00 33.29
200.00 33.48
201.00 33.68
202.00 33.89
203.00 34.11
204.00 34.33
205.00 34.58
206.00 34.85
207.00 35.15
208.00 35.49
209.00 35.88
210.00 36.33
211.00 36.86
212.00 37.45
213.00 38.14
214.00 38.93
215.00 39.81
216.00 40.80
217.00 41.86
218.00 42.97
219.00 43.99
220.00 44.74
221.00 45.00
222.00 44.68
223.00 43.93
224.00 42.92
225.00 41.85
226.00 40.82
227.00 39.85
228.00 38.97
229.00 38.18
230.00 37.46
231.00 36.81
232.00 36.24
233.00 35.72
234.00 35.27
235.00 34.88
236.00 34.55
237.00 34.28
238.00 34.07
239.00 33.93
240.00 33.85
241.00 33.83
242.00 33.89
243.00 34.01
244.00 34.20
245.00 34.44
246.00 34.72
247.00 35.02
248.00 35.30
249.00 35.50
250.00 35.55
251.00 35.40
252.00 35.01
253.00 34.41
254.00 33.64
255.00 32.77
256.00 31.86
257.00 30.95
258.00 30.06
259.00 29.22
260.00 28.43
261.00 27.69
262.00 27.00
263.00 26.35
264.00 25.75
265.00 25.19
266.00 24.66
267.00 24.17
268.00 23.70
269.00 23.25
270.00 22.82
271.00 22.40
272.00 22.00
273.00 21.60
274.00 21.21
275.00 20.83
276.00 20.45
277.00 20.07
278.00 19.69
279.00 19.32
280.00 18.95
281.00 18.58
282.00 18.21
283.00 17.85
284.00 17.49
285.00 17.14
286.00 16.80
287.00 16.45
288.00 16.12
289.00 15.79
290.00 15.46
291.00 15.14
292.00 14.82
293.00 14.50
294.00 14.18
295.00 13.86
296.00 13.54
297.00 13.22
298.00 12.89
299.00 12.57
300.00 12.23
301.00 11.89
302.00 11.54
303.00 11.19
304.00 10.83
305.00 10.47
306.00 10.10
307.00 9.73
308.00 9.36
309.00 8.99
310.00 8.62
311.00 8.26
312.00 7.90
313.00 7.54
314.00 7.19
315.00 6.85
316.00 6.51
317.00 6.19
318.00 5.87
319.00 5.56
320.00 5.26
321.00 4.97
322.00 4.69
323.00 4.41
324.00 4.15
325.00 3.89
326.00 3.64
327.00 3.41
328.00 3.18
329.00 2.96
330.00 2.74
331.00 2.54
332.00 2.34
333.00 2.16
334.00 1.98
335.00 1.81
336.00 1.65
337.00 1.50
338.00 1.36
339.00 1.22
340.00 1.10
341.00 0.98
342.00 0.88
343.00 0.78
344.00 0.68
345.00 0.60
346.00 0.52
347.00 0.45
348.00 0.38
349.00 0.32
350.00 0.26
351.00 0.21
352.00 0.17
353.00 0.13
354.00 0.09
355.00 0.06
356.00 0.04
357.00 0.02
358.00 0.01
359.00 0.00
VERTICAL 360
0.00 22.93
1.00 16.97
2.00 11.23
3.00 6.93
4.00 3.83
5.00 1.72
6.00 0.46
7.00 0.00
8.00 0.35
9.00 1.61
10.00 4.00
11.00 8.15
12.00 16.35
13.00 26.33
14.00 15.01
15.00 12.88
16.00 13.79
17.00 17.44
18.00 24.55
19.00 21.05
20.00 16.34
21.00 14.74
22.00 15.39
23.00 18.48
24.00 25.96
25.00 28.03
26.00 21.38
27.00 19.62
28.00 20.66
29.00 24.67
30.00 34.67
31.00 28.21
32.00 22.37
33.00 19.63
34.00 18.43
35.00 18.51
36.00 20.03
37.00 23.26
38.00 26.31
39.00 24.22
40.00 22.02
41.00 21.70
42.00 23.05
43.00 25.35
44.00 26.45
45.00 25.15
46.00 23.50
47.00 22.50
48.00 22.42
49.00 23.46
50.00 25.88
51.00 29.52
52.00 31.57
53.00 30.48
54.00 30.11
55.00 31.49
56.00 33.74
57.00 34.06
58.00 32.90
59.00 32.90
60.00 34.88
61.00 39.73
62.00 51.77
63.00 44.28
64.00 38.81
65.00 36.40
66.00 35.23
67.00 34.66
68.00 34.41
69.00 34.35
70.00 34.39
71.00 34.42
72.00 34.43
73.00 34.54
74.00 34.88
75.00 35.54
76.00 36.50
77.00 37.64
78.00 38.83
79.00 39.89
80.00 40.40
81.00 40.26
82.00 40.12
83.00 40.53
84.00 41.49
85.00 42.41
86.00 42.69
87.00 42.65
88.00 42.87
89.00 43.43
90.00 43.63
91.00 42.08
92.00 39.31
93.00 37.02
94.00 35.90
95.00 36.17
96.00 38.12
97.00 42.25
98.00 47.91
99.00 47.66
100.00 46.41
101.00 47.38
102.00 50.32
103.00 57.65
104.00 59.94
105.00 52.58
106.00 50.70
107.00 48.00
108.00 44.89
109.00 43.75
110.00 44.80
111.00 47.14
112.00 47.70
113.00 44.96
114.00 41.72
115.00 39.50
116.00 38.59
117.00 38.88
118.00 40.11
119.00 41.73
120.00 42.62
121.00 41.95
122.00 40.95
123.00 40.98
124.00 42.68
125.00 45.37
126.00 43.67
127.00 40.02
128.00 38.18
129.00 38.33
130.00 40.35
131.00 41.34
132.00 37.71
133.00 34.46
134.00 32.80
135.00 32.45
136.00 33.13
137.00 34.44
138.00 35.54
139.00 35.88
140.00 36.19
141.00 37.53
142.00 40.42
143.00 44.03
144.00 44.36
145.00 42.36
146.00 40.64
147.00 40.08
148.00 41.29
149.00 42.02
150.00 38.63
151.00 35.74
152.00 34.66
153.00 35.09
154.00 36.97
155.00 41.08
156.00 47.24
157.00 44.05
158.00 42.87
159.00 47.18
160.00 46.31
161.00 41.55
162.00 42.58
163.00 54.22
164.00 43.09
165.00 38.15
166.00 37.97
167.00 40.97
168.00 43.43
169.00 42.02
170.00 42.25
171.00 42.71
172.00 40.36
173.00 39.05
174.00 40.60
175.00 46.24
176.00 59.06
177.00 57.34
178.00 53.28
179.00 43.62
180.00 40.21
181.00 40.88
182.00 46.38
183.00 68.75
184.00 54.12
185.00 54.74
186.00 43.47
187.00 38.65
188.00 37.05
189.00 36.82
190.00 36.29
191.00 35.50
192.00 35.64
193.00 37.18
194.00 39.69
195.00 41.81
196.00 44.23
197.00 51.55
198.00 55.60
199.00 46.71
200.00 45.07
201.00 43.07
202.00 39.98
203.00 38.05
204.00 36.78
205.00 35.35
206.00 34.33
207.00 34.50
208.00 35.98
209.00 38.08
210.00 39.13
211.00 39.09
212.00 39.69
213.00 41.98
214.00 46.95
215.00 57.45
216.00 54.51
217.00 48.21
218.00 44.94
219.00 43.74
220.00 44.92
221.00 50.24
222.00 55.05
223.00 43.98
224.00 39.21
225.00 36.80
226.00 36.00
227.00 36.99
228.00 41.22
229.00 63.63
230.00 40.50
231.00 35.84
232.00 35.24
233.00 38.05
234.00 47.66
235.00 46.89
236.00 39.82
237.00 38.09
238.00 38.33
239.00 39.95
240.00 43.78
241.00 49.73
242.00 42.30
243.00 37.25
244.00 34.87
245.00 34.00
246.00 33.83
247.00 33.82
248.00 33.99
249.00 34.69
250.00 35.87
251.00 36.86
252.00 36.98
253.00 36.90
254.00 37.74
255.00 39.43
256.00 39.51
257.00 37.68
258.00 36.40
259.00 35.93
260.00 35.51
261.00 34.53
262.00 33.00
263.00 31.25
264.00 29.48
265.00 27.77
266.00 26.23
267.00 24.91
268.00 23.70
269.00 22.45
270.00 21.13
271.00 19.84
272.00 18.75
273.00 18.01
274.00 17.61
275.00 17.45
276.00 17.36
277.00 17.22
278.00 17.07
279.00 16.97
280.00 16.99
281.00 17.06
282.00 17.05
283.00 16.88
284.00 16.61
285.00 16.36
286.00 16.24
287.00 16.32
288.00 16.73
289.00 17.56
290.00 18.89
291.00 20.68
292.00 22.76
293.00 24.95
294.00 27.51
295.00 31.61
296.00 37.42
297.00 31.59
298.00 26.72
299.00 24.55
300.00 24.18
301.00 25.22
302.00 27.23
303.00 29.63
304.00 32.55
305.00 38.58
306.00 44.87
307.00 32.04
308.00 26.97
309.00 24.29
310.00 23.01
311.00 22.81
312.00 23.75
313.00 26.13
314.00 29.54
315.00 28.39
316.00 24.79
317.00 22.98
318.00 23.01
319.00 24.78
320.00 28.40
321.00 31.58
322.00 27.42
323.00 22.41
324.00 18.88
325.00 16.79
326.00 16.15
327.00 17.05
328.00 19.70
329.00 23.87
330.00 24.50
331.00 21.37
332.00 19.45
333.00 18.92
334.00 19.50
335.00 20.80
336.00 21.96
337.00 22.30
338.00 22.54
339.00 23.78
340.00 27.09
341.00 35.81
342.00 31.36
343.00 23.89
344.00 20.76
345.00 20.23
346.00 22.48
347.00 30.23
348.00 34.01
349.00 24.82
350.00 23.15
351.00 25.13
352.00 30.37
353.00 26.21
354.00 20.98
355.00 18.68
356.00 18.40
357.00 19.69
358.00 21.93
359.00 23.95
