NAME ATR4518R7_0880_X_CO_P45_05T
FREQUENCY 0880
GAIN 14.69 dBd
TILT	ELECTRICAL
COMMENT DATE 05.08.2013 +45 degrees polarized system Lever position 05T deg
HORIZONTAL 360
0.00 0.01
1.00 0.00
2.00 0.01
3.00 0.01
4.00 0.03
5.00 0.05
6.00 0.07
7.00 0.11
8.00 0.14
9.00 0.19
10.00 0.24
11.00 0.30
12.00 0.36
13.00 0.43
14.00 0.51
15.00 0.59
16.00 0.68
17.00 0.78
18.00 0.88
19.00 0.99
20.00 1.11
21.00 1.23
22.00 1.35
23.00 1.49
24.00 1.63
25.00 1.78
26.00 1.93
27.00 2.09
28.00 2.25
29.00 2.42
30.00 2.60
31.00 2.78
32.00 2.97
33.00 3.17
34.00 3.37
35.00 3.58
36.00 3.79
37.00 4.01
38.00 4.24
39.00 4.47
40.00 4.70
41.00 4.95
42.00 5.19
43.00 5.45
44.00 5.71
45.00 5.97
46.00 6.24
47.00 6.52
48.00 6.80
49.00 7.08
50.00 7.37
51.00 7.67
52.00 7.97
53.00 8.27
54.00 8.58
55.00 8.90
56.00 9.22
57.00 9.54
58.00 9.87
59.00 10.21
60.00 10.55
61.00 10.89
62.00 11.24
63.00 11.59
64.00 11.95
65.00 12.31
66.00 12.67
67.00 13.05
68.00 13.43
69.00 13.81
70.00 14.19
71.00 14.59
72.00 14.98
73.00 15.39
74.00 15.79
75.00 16.21
76.00 16.63
77.00 17.05
78.00 17.48
79.00 17.92
80.00 18.36
81.00 18.80
82.00 19.25
83.00 19.70
84.00 20.16
85.00 20.62
86.00 21.08
87.00 21.54
88.00 21.99
89.00 22.45
90.00 22.90
91.00 23.33
92.00 23.76
93.00 24.17
94.00 24.57
95.00 24.94
96.00 25.29
97.00 25.60
98.00 25.89
99.00 26.15
100.00 26.38
101.00 26.57
102.00 26.72
103.00 26.85
104.00 26.95
105.00 27.03
106.00 27.08
107.00 27.11
108.00 27.14
109.00 27.15
110.00 27.15
111.00 27.15
112.00 27.14
113.00 27.14
114.00 27.14
115.00 27.14
116.00 27.15
117.00 27.16
118.00 27.19
119.00 27.22
120.00 27.26
121.00 27.32
122.00 27.38
123.00 27.45
124.00 27.54
125.00 27.64
126.00 27.76
127.00 27.88
128.00 28.02
129.00 28.18
130.00 28.35
131.00 28.53
132.00 28.73
133.00 28.95
134.00 29.19
135.00 29.44
136.00 29.71
137.00 30.00
138.00 30.32
139.00 30.66
140.00 31.02
141.00 31.41
142.00 31.83
143.00 32.28
144.00 32.77
145.00 33.30
146.00 33.87
147.00 34.48
148.00 35.16
149.00 35.90
150.00 36.72
151.00 37.62
152.00 38.63
153.00 39.78
154.00 41.09
155.00 42.63
156.00 44.44
157.00 46.62
158.00 49.17
159.00 51.74
160.00 52.48
161.00 50.55
162.00 47.96
163.00 45.68
164.00 43.79
165.00 42.23
166.00 40.91
167.00 39.77
168.00 38.79
169.00 37.93
170.00 37.17
171.00 36.49
172.00 35.88
173.00 35.34
174.00 34.85
175.00 34.41
176.00 34.02
177.00 33.66
178.00 33.35
179.00 33.06
180.00 32.81
181.00 32.59
182.00 32.39
183.00 32.22
184.00 32.08
185.00 31.96
186.00 31.86
187.00 31.78
188.00 31.73
189.00 31.69
190.00 31.68
191.00 31.68
192.00 31.70
193.00 31.74
194.00 31.79
195.00 31.86
196.00 31.94
197.00 32.04
198.00 32.15
199.00 32.27
200.00 32.40
201.00 32.54
202.00 32.69
203.00 32.84
204.00 33.00
205.00 33.16
206.00 33.33
207.00 33.48
208.00 33.64
209.00 33.79
210.00 33.93
211.00 34.07
212.00 34.18
213.00 34.29
214.00 34.37
215.00 34.44
216.00 34.49
217.00 34.52
218.00 34.53
219.00 34.53
220.00 34.50
221.00 34.46
222.00 34.41
223.00 34.33
224.00 34.25
225.00 34.15
226.00 34.04
227.00 33.92
228.00 33.79
229.00 33.66
230.00 33.51
231.00 33.36
232.00 33.21
233.00 33.05
234.00 32.88
235.00 32.71
236.00 32.54
237.00 32.35
238.00 32.17
239.00 31.98
240.00 31.78
241.00 31.58
242.00 31.38
243.00 31.16
244.00 30.95
245.00 30.72
246.00 30.49
247.00 30.25
248.00 30.01
249.00 29.75
250.00 29.49
251.00 29.21
252.00 28.93
253.00 28.63
254.00 28.32
255.00 28.00
256.00 27.67
257.00 27.33
258.00 26.97
259.00 26.61
260.00 26.23
261.00 25.84
262.00 25.44
263.00 25.04
264.00 24.62
265.00 24.20
266.00 23.78
267.00 23.35
268.00 22.91
269.00 22.48
270.00 22.04
271.00 21.60
272.00 21.17
273.00 20.73
274.00 20.29
275.00 19.86
276.00 19.43
277.00 19.01
278.00 18.59
279.00 18.17
280.00 17.76
281.00 17.35
282.00 16.95
283.00 16.55
284.00 16.16
285.00 15.77
286.00 15.39
287.00 15.01
288.00 14.64
289.00 14.27
290.00 13.91
291.00 13.55
292.00 13.20
293.00 12.85
294.00 12.51
295.00 12.17
296.00 11.84
297.00 11.51
298.00 11.18
299.00 10.86
300.00 10.54
301.00 10.23
302.00 9.92
303.00 9.61
304.00 9.31
305.00 9.02
306.00 8.73
307.00 8.44
308.00 8.15
309.00 7.87
310.00 7.59
311.00 7.32
312.00 7.05
313.00 6.79
314.00 6.53
315.00 6.27
316.00 6.02
317.00 5.77
318.00 5.53
319.00 5.29
320.00 5.05
321.00 4.82
322.00 4.59
323.00 4.37
324.00 4.16
325.00 3.95
326.00 3.74
327.00 3.54
328.00 3.34
329.00 3.15
330.00 2.96
331.00 2.78
332.00 2.61
333.00 2.44
334.00 2.27
335.00 2.11
336.00 1.96
337.00 1.81
338.00 1.67
339.00 1.53
340.00 1.40
341.00 1.27
342.00 1.15
343.00 1.04
344.00 0.93
345.00 0.83
346.00 0.73
347.00 0.64
348.00 0.55
349.00 0.47
350.00 0.40
351.00 0.33
352.00 0.27
353.00 0.22
354.00 0.17
355.00 0.13
356.00 0.09
357.00 0.06
358.00 0.04
359.00 0.02
VERTICAL 360
0.00 4.10
1.00 2.53
2.00 1.35
3.00 0.55
4.00 0.10
5.00 0.00
6.00 0.26
7.00 0.88
8.00 1.86
9.00 3.25
10.00 5.10
11.00 7.49
12.00 10.61
13.00 14.74
14.00 20.34
15.00 26.15
16.00 25.59
17.00 24.20
18.00 24.78
19.00 27.50
20.00 33.17
21.00 33.40
22.00 27.15
23.00 23.71
24.00 22.01
25.00 21.53
26.00 22.12
27.00 23.75
28.00 26.61
29.00 31.33
30.00 40.85
31.00 40.93
32.00 33.68
33.00 31.30
34.00 31.54
35.00 34.84
36.00 38.40
37.00 30.11
38.00 24.71
39.00 21.45
40.00 19.43
41.00 18.23
42.00 17.55
43.00 17.23
44.00 17.16
45.00 17.34
46.00 17.78
47.00 18.55
48.00 19.65
49.00 21.07
50.00 22.76
51.00 24.69
52.00 26.90
53.00 29.58
54.00 33.18
55.00 38.67
56.00 44.07
57.00 38.70
58.00 34.77
59.00 32.70
60.00 31.81
61.00 31.82
62.00 32.46
63.00 33.66
64.00 35.80
65.00 39.40
66.00 40.25
67.00 36.03
68.00 33.29
69.00 32.36
70.00 32.79
71.00 34.16
72.00 35.72
73.00 36.23
74.00 35.41
75.00 34.18
76.00 33.03
77.00 31.87
78.00 30.55
79.00 29.15
80.00 27.98
81.00 27.41
82.00 27.53
83.00 28.21
84.00 28.89
85.00 28.80
86.00 27.92
87.00 26.75
88.00 25.81
89.00 25.42
90.00 25.61
91.00 26.23
92.00 26.95
93.00 27.52
94.00 27.85
95.00 28.10
96.00 28.43
97.00 28.95
98.00 29.60
99.00 30.14
100.00 30.39
101.00 30.30
102.00 30.12
103.00 30.22
104.00 30.84
105.00 32.04
106.00 33.56
107.00 34.45
108.00 33.92
109.00 32.83
110.00 32.20
111.00 32.33
112.00 33.34
113.00 35.38
114.00 38.22
115.00 39.89
116.00 39.05
117.00 38.05
118.00 37.69
119.00 37.81
120.00 38.64
121.00 40.55
122.00 43.25
123.00 44.94
124.00 44.97
125.00 44.06
126.00 42.10
127.00 40.39
128.00 39.88
129.00 40.63
130.00 42.30
131.00 44.15
132.00 45.37
133.00 46.38
134.00 48.82
135.00 52.11
136.00 46.77
137.00 41.87
138.00 39.22
139.00 38.00
140.00 37.69
141.00 37.99
142.00 38.69
143.00 39.57
144.00 40.38
145.00 40.85
146.00 41.05
147.00 41.27
148.00 41.73
149.00 42.29
150.00 42.55
151.00 42.27
152.00 41.25
153.00 39.51
154.00 37.76
155.00 36.68
156.00 36.51
157.00 37.15
158.00 38.29
159.00 39.71
160.00 41.18
161.00 41.79
162.00 40.77
163.00 39.54
164.00 39.21
165.00 39.85
166.00 40.87
167.00 40.78
168.00 38.80
169.00 36.34
170.00 34.47
171.00 33.41
172.00 33.01
173.00 32.94
174.00 32.85
175.00 32.49
176.00 32.09
177.00 31.77
178.00 31.81
179.00 32.31
180.00 33.17
181.00 34.20
182.00 35.26
183.00 36.44
184.00 38.07
185.00 40.38
186.00 42.29
187.00 41.09
188.00 38.69
189.00 36.95
190.00 35.89
191.00 35.17
192.00 34.60
193.00 34.18
194.00 34.04
195.00 34.32
196.00 35.07
197.00 36.26
198.00 37.90
199.00 40.18
200.00 43.27
201.00 46.58
202.00 46.20
203.00 42.74
204.00 39.90
205.00 38.27
206.00 37.77
207.00 38.29
208.00 39.80
209.00 42.41
210.00 46.31
211.00 49.79
212.00 48.85
213.00 47.52
214.00 48.12
215.00 51.29
216.00 56.83
217.00 52.35
218.00 47.45
219.00 44.59
220.00 42.41
221.00 40.19
222.00 37.91
223.00 35.91
224.00 34.53
225.00 33.88
226.00 33.82
227.00 33.93
228.00 33.69
229.00 32.85
230.00 31.76
231.00 31.07
232.00 31.31
233.00 32.84
234.00 35.99
235.00 41.08
236.00 47.83
237.00 53.88
238.00 51.85
239.00 46.49
240.00 44.31
241.00 44.90
242.00 48.17
243.00 50.63
244.00 46.19
245.00 43.34
246.00 42.92
247.00 43.41
248.00 42.05
249.00 40.15
250.00 39.88
251.00 41.48
252.00 43.11
253.00 41.31
254.00 38.59
255.00 36.94
256.00 36.70
257.00 37.96
258.00 39.45
259.00 38.29
260.00 36.35
261.00 35.42
262.00 35.17
263.00 35.21
264.00 35.61
265.00 35.88
266.00 35.09
267.00 34.07
268.00 33.81
269.00 34.07
270.00 34.34
271.00 34.92
272.00 35.84
273.00 35.20
274.00 33.08
275.00 31.67
276.00 31.40
277.00 31.84
278.00 32.47
279.00 32.99
280.00 33.10
281.00 32.65
282.00 32.19
283.00 32.23
284.00 32.69
285.00 33.09
286.00 32.84
287.00 32.00
288.00 31.25
289.00 31.17
290.00 31.97
291.00 33.57
292.00 35.69
293.00 37.51
294.00 37.77
295.00 37.17
296.00 37.40
297.00 39.02
298.00 41.50
299.00 42.96
300.00 43.09
301.00 42.88
302.00 41.97
303.00 40.38
304.00 38.86
305.00 38.21
306.00 39.03
307.00 40.64
308.00 38.49
309.00 34.14
310.00 30.78
311.00 28.37
312.00 26.50
313.00 24.85
314.00 23.17
315.00 21.51
316.00 20.08
317.00 19.05
318.00 18.49
319.00 18.39
320.00 18.67
321.00 19.21
322.00 19.84
323.00 20.48
324.00 21.27
325.00 22.52
326.00 24.54
327.00 27.78
328.00 32.97
329.00 39.21
330.00 36.83
331.00 34.35
332.00 33.51
333.00 32.90
334.00 32.32
335.00 32.53
336.00 34.09
337.00 36.71
338.00 36.54
339.00 32.67
340.00 29.06
341.00 26.19
342.00 23.91
343.00 22.30
344.00 21.49
345.00 21.63
346.00 22.94
347.00 25.93
348.00 32.43
349.00 43.31
350.00 29.79
351.00 25.53
352.00 23.90
353.00 23.96
354.00 24.45
355.00 21.50
356.00 16.43
357.00 12.12
358.00 8.76
359.00 6.14
