NAME ATR4518R7_0880_X_CO_P45_08T
FREQUENCY 0880
GAIN 14.70 dBd
TILT	ELECTRICAL
COMMENT DATE 05.08.2013 +45 degrees polarized system Lever position 08T deg
HORIZONTAL 360
0.00 0.01
1.00 0.00
2.00 0.00
3.00 0.00
4.00 0.01
5.00 0.03
6.00 0.06
7.00 0.09
8.00 0.12
9.00 0.16
10.00 0.21
11.00 0.27
12.00 0.33
13.00 0.39
14.00 0.47
15.00 0.55
16.00 0.63
17.00 0.72
18.00 0.82
19.00 0.92
20.00 1.04
21.00 1.15
22.00 1.27
23.00 1.40
24.00 1.54
25.00 1.68
26.00 1.82
27.00 1.97
28.00 2.13
29.00 2.30
30.00 2.46
31.00 2.64
32.00 2.82
33.00 3.01
34.00 3.20
35.00 3.40
36.00 3.60
37.00 3.81
38.00 4.02
39.00 4.24
40.00 4.47
41.00 4.70
42.00 4.93
43.00 5.17
44.00 5.42
45.00 5.67
46.00 5.93
47.00 6.19
48.00 6.45
49.00 6.72
50.00 7.00
51.00 7.27
52.00 7.56
53.00 7.85
54.00 8.14
55.00 8.43
56.00 8.74
57.00 9.04
58.00 9.35
59.00 9.67
60.00 9.99
61.00 10.31
62.00 10.64
63.00 10.97
64.00 11.31
65.00 11.65
66.00 12.00
67.00 12.35
68.00 12.70
69.00 13.06
70.00 13.43
71.00 13.80
72.00 14.18
73.00 14.56
74.00 14.94
75.00 15.34
76.00 15.73
77.00 16.14
78.00 16.55
79.00 16.96
80.00 17.38
81.00 17.81
82.00 18.24
83.00 18.68
84.00 19.12
85.00 19.57
86.00 20.02
87.00 20.48
88.00 20.93
89.00 21.39
90.00 21.85
91.00 22.31
92.00 22.77
93.00 23.22
94.00 23.66
95.00 24.10
96.00 24.53
97.00 24.94
98.00 25.33
99.00 25.71
100.00 26.06
101.00 26.39
102.00 26.69
103.00 26.97
104.00 27.21
105.00 27.44
106.00 27.63
107.00 27.80
108.00 27.94
109.00 28.06
110.00 28.17
111.00 28.26
112.00 28.33
113.00 28.40
114.00 28.45
115.00 28.51
116.00 28.56
117.00 28.61
118.00 28.66
119.00 28.71
120.00 28.77
121.00 28.83
122.00 28.90
123.00 28.97
124.00 29.06
125.00 29.15
126.00 29.25
127.00 29.36
128.00 29.49
129.00 29.62
130.00 29.76
131.00 29.92
132.00 30.08
133.00 30.27
134.00 30.46
135.00 30.67
136.00 30.90
137.00 31.14
138.00 31.40
139.00 31.68
140.00 31.98
141.00 32.30
142.00 32.65
143.00 33.02
144.00 33.41
145.00 33.84
146.00 34.31
147.00 34.80
148.00 35.34
149.00 35.93
150.00 36.56
151.00 37.26
152.00 38.01
153.00 38.83
154.00 39.73
155.00 40.70
156.00 41.74
157.00 42.84
158.00 43.90
159.00 44.80
160.00 45.34
161.00 45.39
162.00 44.90
163.00 44.03
164.00 42.98
165.00 41.90
166.00 40.85
167.00 39.86
168.00 38.96
169.00 38.13
170.00 37.38
171.00 36.69
172.00 36.07
173.00 35.50
174.00 34.99
175.00 34.52
176.00 34.10
177.00 33.71
178.00 33.36
179.00 33.05
180.00 32.77
181.00 32.52
182.00 32.30
183.00 32.12
184.00 31.95
185.00 31.82
186.00 31.71
187.00 31.63
188.00 31.57
189.00 31.53
190.00 31.51
191.00 31.52
192.00 31.55
193.00 31.60
194.00 31.67
195.00 31.75
196.00 31.86
197.00 31.98
198.00 32.13
199.00 32.28
200.00 32.45
201.00 32.63
202.00 32.82
203.00 33.02
204.00 33.22
205.00 33.42
206.00 33.61
207.00 33.80
208.00 33.98
209.00 34.13
210.00 34.26
211.00 34.37
212.00 34.44
213.00 34.48
214.00 34.48
215.00 34.44
216.00 34.37
217.00 34.28
218.00 34.15
219.00 33.99
220.00 33.81
221.00 33.62
222.00 33.42
223.00 33.21
224.00 32.99
225.00 32.77
226.00 32.55
227.00 32.33
228.00 32.12
229.00 31.91
230.00 31.70
231.00 31.50
232.00 31.30
233.00 31.11
234.00 30.92
235.00 30.74
236.00 30.56
237.00 30.38
238.00 30.20
239.00 30.03
240.00 29.86
241.00 29.68
242.00 29.50
243.00 29.33
244.00 29.14
245.00 28.96
246.00 28.77
247.00 28.58
248.00 28.37
249.00 28.17
250.00 27.95
251.00 27.72
252.00 27.49
253.00 27.25
254.00 26.99
255.00 26.73
256.00 26.45
257.00 26.17
258.00 25.87
259.00 25.56
260.00 25.24
261.00 24.92
262.00 24.58
263.00 24.23
264.00 23.87
265.00 23.51
266.00 23.14
267.00 22.76
268.00 22.38
269.00 22.00
270.00 21.61
271.00 21.21
272.00 20.82
273.00 20.42
274.00 20.02
275.00 19.62
276.00 19.23
277.00 18.83
278.00 18.44
279.00 18.05
280.00 17.66
281.00 17.27
282.00 16.88
283.00 16.50
284.00 16.13
285.00 15.75
286.00 15.38
287.00 15.02
288.00 14.65
289.00 14.29
290.00 13.94
291.00 13.59
292.00 13.24
293.00 12.90
294.00 12.56
295.00 12.23
296.00 11.89
297.00 11.57
298.00 11.24
299.00 10.92
300.00 10.61
301.00 10.29
302.00 9.99
303.00 9.68
304.00 9.38
305.00 9.08
306.00 8.79
307.00 8.50
308.00 8.21
309.00 7.93
310.00 7.66
311.00 7.38
312.00 7.11
313.00 6.85
314.00 6.58
315.00 6.33
316.00 6.07
317.00 5.82
318.00 5.58
319.00 5.34
320.00 5.10
321.00 4.87
322.00 4.64
323.00 4.42
324.00 4.20
325.00 3.99
326.00 3.78
327.00 3.58
328.00 3.38
329.00 3.19
330.00 3.00
331.00 2.82
332.00 2.64
333.00 2.47
334.00 2.30
335.00 2.14
336.00 1.99
337.00 1.84
338.00 1.69
339.00 1.56
340.00 1.42
341.00 1.30
342.00 1.17
343.00 1.06
344.00 0.95
345.00 0.84
346.00 0.75
347.00 0.65
348.00 0.57
349.00 0.49
350.00 0.41
351.00 0.35
352.00 0.28
353.00 0.23
354.00 0.18
355.00 0.13
356.00 0.10
357.00 0.07
358.00 0.04
359.00 0.02
VERTICAL 360
0.00 12.40
1.00 8.93
2.00 6.24
3.00 4.14
4.00 2.52
5.00 1.34
6.00 0.53
7.00 0.09
8.00 0.00
9.00 0.25
10.00 0.84
11.00 1.80
12.00 3.17
13.00 4.99
14.00 7.38
15.00 10.53
16.00 14.84
17.00 21.37
18.00 32.10
19.00 26.31
20.00 22.75
21.00 22.05
22.00 23.18
23.00 26.28
24.00 33.23
25.00 39.79
26.00 29.14
27.00 25.14
28.00 23.31
29.00 22.71
30.00 23.02
31.00 24.13
32.00 26.02
33.00 28.73
34.00 32.34
35.00 36.88
36.00 42.66
37.00 54.19
38.00 47.04
39.00 38.22
40.00 33.31
41.00 30.05
42.00 27.77
43.00 26.10
44.00 24.77
45.00 23.65
46.00 22.77
47.00 22.21
48.00 22.06
49.00 22.34
50.00 23.06
51.00 24.20
52.00 25.77
53.00 27.85
54.00 30.72
55.00 35.20
56.00 43.92
57.00 42.17
58.00 35.53
59.00 32.68
60.00 31.60
61.00 31.62
62.00 32.29
63.00 33.06
64.00 33.33
65.00 32.91
66.00 32.23
67.00 31.85
68.00 32.02
69.00 32.73
70.00 33.83
71.00 35.20
72.00 36.74
73.00 38.50
74.00 40.63
75.00 41.64
76.00 38.61
77.00 35.09
78.00 32.98
79.00 32.24
80.00 32.61
81.00 33.57
82.00 33.81
83.00 32.35
84.00 30.37
85.00 29.00
86.00 28.49
87.00 28.66
88.00 29.04
89.00 29.01
90.00 28.38
91.00 27.54
92.00 26.91
93.00 26.75
94.00 27.15
95.00 28.08
96.00 29.34
97.00 30.53
98.00 31.14
99.00 31.02
100.00 30.68
101.00 30.73
102.00 31.42
103.00 32.73
104.00 34.62
105.00 36.97
106.00 38.57
107.00 37.58
108.00 35.80
109.00 34.84
110.00 34.85
111.00 35.68
112.00 37.35
113.00 40.03
114.00 43.20
115.00 44.49
116.00 43.77
117.00 43.12
118.00 42.72
119.00 42.66
120.00 43.40
121.00 44.96
122.00 46.42
123.00 46.94
124.00 46.91
125.00 46.47
126.00 45.97
127.00 46.19
128.00 47.22
129.00 47.96
130.00 47.57
131.00 46.84
132.00 46.18
133.00 45.26
134.00 43.78
135.00 41.84
136.00 40.03
137.00 38.91
138.00 38.76
139.00 39.63
140.00 41.51
141.00 44.34
142.00 47.71
143.00 49.93
144.00 49.75
145.00 49.36
146.00 50.20
147.00 52.85
148.00 58.70
149.00 68.77
150.00 55.21
151.00 48.64
152.00 44.15
153.00 41.00
154.00 39.04
155.00 38.12
156.00 38.08
157.00 38.67
158.00 39.71
159.00 41.20
160.00 43.14
161.00 44.27
162.00 42.71
163.00 40.16
164.00 38.06
165.00 36.43
166.00 35.08
167.00 33.93
168.00 33.02
169.00 32.39
170.00 32.04
171.00 31.98
172.00 32.18
173.00 32.49
174.00 32.97
175.00 33.53
176.00 34.12
177.00 34.71
178.00 35.40
179.00 36.40
180.00 37.89
181.00 39.99
182.00 42.75
183.00 46.21
184.00 50.79
185.00 53.28
186.00 47.45
187.00 42.58
188.00 39.41
189.00 37.52
190.00 36.68
191.00 36.76
192.00 37.60
193.00 38.99
194.00 40.58
195.00 42.07
196.00 43.67
197.00 46.14
198.00 50.09
199.00 52.14
200.00 49.24
201.00 47.35
202.00 47.01
203.00 47.51
204.00 48.11
205.00 48.26
206.00 47.89
207.00 47.43
208.00 46.98
209.00 46.05
210.00 44.92
211.00 44.66
212.00 46.07
213.00 49.12
214.00 49.25
215.00 45.64
216.00 43.01
217.00 41.29
218.00 39.73
219.00 38.00
220.00 36.28
221.00 34.91
222.00 34.16
223.00 34.11
224.00 34.62
225.00 35.35
226.00 35.86
227.00 36.00
228.00 35.93
229.00 36.04
230.00 36.83
231.00 38.96
232.00 43.70
233.00 59.04
234.00 48.26
235.00 42.95
236.00 41.56
237.00 42.01
238.00 43.41
239.00 44.81
240.00 45.37
241.00 44.93
242.00 43.84
243.00 42.81
244.00 42.61
245.00 43.77
246.00 45.85
247.00 44.41
248.00 40.26
249.00 37.18
250.00 35.30
251.00 34.21
252.00 33.58
253.00 33.07
254.00 32.45
255.00 31.68
256.00 31.00
257.00 30.66
258.00 30.81
259.00 31.43
260.00 32.34
261.00 33.17
262.00 33.32
263.00 32.50
264.00 31.27
265.00 30.32
266.00 30.00
267.00 30.40
268.00 31.52
269.00 33.29
270.00 35.23
271.00 36.12
272.00 35.34
273.00 34.21
274.00 33.69
275.00 34.01
276.00 35.14
277.00 36.63
278.00 37.36
279.00 36.59
280.00 35.27
281.00 34.44
282.00 34.58
283.00 35.96
284.00 38.62
285.00 40.48
286.00 38.31
287.00 35.53
288.00 33.79
289.00 33.13
290.00 33.60
291.00 35.38
292.00 38.44
293.00 40.15
294.00 37.60
295.00 34.90
296.00 33.30
297.00 32.70
298.00 32.94
299.00 33.80
300.00 34.78
301.00 35.48
302.00 36.14
303.00 37.47
304.00 40.10
305.00 45.18
306.00 58.83
307.00 50.83
308.00 45.28
309.00 42.34
310.00 39.12
311.00 35.97
312.00 33.56
313.00 31.81
314.00 30.25
315.00 28.51
316.00 26.65
317.00 24.95
318.00 23.63
319.00 22.82
320.00 22.51
321.00 22.66
322.00 23.19
323.00 24.04
324.00 25.33
325.00 27.42
326.00 31.25
327.00 41.08
328.00 37.91
329.00 29.66
330.00 26.11
331.00 24.44
332.00 23.96
333.00 24.41
334.00 25.65
335.00 27.69
336.00 30.81
337.00 35.97
338.00 44.35
339.00 38.14
340.00 33.65
341.00 31.98
342.00 31.60
343.00 30.64
344.00 28.04
345.00 25.23
346.00 23.15
347.00 21.93
348.00 21.53
349.00 21.91
350.00 23.05
351.00 24.86
352.00 26.68
353.00 26.93
354.00 25.84
355.00 25.30
356.00 26.35
357.00 27.92
358.00 23.08
359.00 16.98
