NAME ATR4518R7_2140_X_CO_M45_00T_yyR
FREQUENCY 2140
GAIN 15.62 dBd
TILT	ELECTRICAL
COMMENT DATE 05.08.2013 -45 degrees polarized system Lever position 00T deg
HORIZONTAL 360
0.00 0.00
1.00 0.00
2.00 0.01
3.00 0.02
4.00 0.03
5.00 0.05
6.00 0.07
7.00 0.09
8.00 0.11
9.00 0.14
10.00 0.16
11.00 0.19
12.00 0.23
13.00 0.27
14.00 0.32
15.00 0.37
16.00 0.43
17.00 0.50
18.00 0.59
19.00 0.68
20.00 0.78
21.00 0.90
22.00 1.04
23.00 1.19
24.00 1.35
25.00 1.54
26.00 1.74
27.00 1.96
28.00 2.20
29.00 2.46
30.00 2.74
31.00 3.04
32.00 3.36
33.00 3.71
34.00 4.07
35.00 4.46
36.00 4.87
37.00 5.30
38.00 5.75
39.00 6.22
40.00 6.71
41.00 7.21
42.00 7.73
43.00 8.27
44.00 8.82
45.00 9.38
46.00 9.94
47.00 10.51
48.00 11.07
49.00 11.64
50.00 12.19
51.00 12.73
52.00 13.26
53.00 13.78
54.00 14.27
55.00 14.74
56.00 15.20
57.00 15.64
58.00 16.05
59.00 16.45
60.00 16.84
61.00 17.21
62.00 17.57
63.00 17.92
64.00 18.25
65.00 18.57
66.00 18.88
67.00 19.17
68.00 19.45
69.00 19.70
70.00 19.94
71.00 20.17
72.00 20.37
73.00 20.56
74.00 20.74
75.00 20.91
76.00 21.08
77.00 21.24
78.00 21.41
79.00 21.59
80.00 21.78
81.00 21.99
82.00 22.23
83.00 22.49
84.00 22.78
85.00 23.11
86.00 23.47
87.00 23.87
88.00 24.31
89.00 24.79
90.00 25.31
91.00 25.87
92.00 26.46
93.00 27.09
94.00 27.74
95.00 28.40
96.00 29.04
97.00 29.64
98.00 30.18
99.00 30.63
100.00 30.95
101.00 31.14
102.00 31.21
103.00 31.17
104.00 31.05
105.00 30.87
106.00 30.68
107.00 30.48
108.00 30.29
109.00 30.12
110.00 29.99
111.00 29.90
112.00 29.84
113.00 29.83
114.00 29.86
115.00 29.93
116.00 30.05
117.00 30.21
118.00 30.42
119.00 30.67
120.00 30.96
121.00 31.29
122.00 31.66
123.00 32.06
124.00 32.46
125.00 32.86
126.00 33.21
127.00 33.50
128.00 33.68
129.00 33.73
130.00 33.64
131.00 33.43
132.00 33.12
133.00 32.74
134.00 32.33
135.00 31.92
136.00 31.54
137.00 31.21
138.00 30.93
139.00 30.73
140.00 30.60
141.00 30.55
142.00 30.59
143.00 30.73
144.00 30.96
145.00 31.31
146.00 31.78
147.00 32.37
148.00 33.13
149.00 34.07
150.00 35.23
151.00 36.67
152.00 38.50
153.00 40.89
154.00 44.15
155.00 48.79
156.00 52.37
157.00 48.20
158.00 44.07
159.00 41.26
160.00 39.26
161.00 37.78
162.00 36.67
163.00 35.86
164.00 35.26
165.00 34.86
166.00 34.63
167.00 34.56
168.00 34.63
169.00 34.83
170.00 35.15
171.00 35.60
172.00 36.16
173.00 36.80
174.00 37.51
175.00 38.23
176.00 38.88
177.00 39.39
178.00 39.66
179.00 39.69
180.00 39.49
181.00 39.16
182.00 38.78
183.00 38.43
184.00 38.14
185.00 37.95
186.00 37.85
187.00 37.86
188.00 37.96
189.00 38.12
190.00 38.30
191.00 38.45
192.00 38.48
193.00 38.35
194.00 38.00
195.00 37.46
196.00 36.76
197.00 35.99
198.00 35.21
199.00 34.46
200.00 33.77
201.00 33.16
202.00 32.64
203.00 32.21
204.00 31.88
205.00 31.64
206.00 31.49
207.00 31.44
208.00 31.49
209.00 31.63
210.00 31.86
211.00 32.19
212.00 32.60
213.00 33.11
214.00 33.69
215.00 34.33
216.00 35.00
217.00 35.64
218.00 36.20
219.00 36.59
220.00 36.75
221.00 36.66
222.00 36.37
223.00 35.95
224.00 35.46
225.00 34.97
226.00 34.52
227.00 34.12
228.00 33.80
229.00 33.55
230.00 33.38
231.00 33.28
232.00 33.24
233.00 33.26
234.00 33.32
235.00 33.40
236.00 33.50
237.00 33.60
238.00 33.68
239.00 33.72
240.00 33.71
241.00 33.64
242.00 33.52
243.00 33.34
244.00 33.12
245.00 32.87
246.00 32.60
247.00 32.33
248.00 32.05
249.00 31.78
250.00 31.53
251.00 31.29
252.00 31.06
253.00 30.84
254.00 30.63
255.00 30.43
256.00 30.23
257.00 30.03
258.00 29.82
259.00 29.61
260.00 29.38
261.00 29.14
262.00 28.89
263.00 28.61
264.00 28.32
265.00 28.00
266.00 27.66
267.00 27.29
268.00 26.90
269.00 26.48
270.00 26.04
271.00 25.58
272.00 25.10
273.00 24.60
274.00 24.09
275.00 23.56
276.00 23.03
277.00 22.50
278.00 21.96
279.00 21.43
280.00 20.89
281.00 20.37
282.00 19.85
283.00 19.34
284.00 18.85
285.00 18.36
286.00 17.88
287.00 17.42
288.00 16.97
289.00 16.52
290.00 16.09
291.00 15.68
292.00 15.27
293.00 14.87
294.00 14.48
295.00 14.10
296.00 13.73
297.00 13.37
298.00 13.01
299.00 12.66
300.00 12.32
301.00 11.99
302.00 11.66
303.00 11.34
304.00 11.02
305.00 10.71
306.00 10.40
307.00 10.10
308.00 9.80
309.00 9.51
310.00 9.22
311.00 8.93
312.00 8.65
313.00 8.38
314.00 8.10
315.00 7.83
316.00 7.55
317.00 7.29
318.00 7.02
319.00 6.75
320.00 6.49
321.00 6.22
322.00 5.96
323.00 5.70
324.00 5.44
325.00 5.18
326.00 4.92
327.00 4.67
328.00 4.41
329.00 4.16
330.00 3.91
331.00 3.66
332.00 3.42
333.00 3.18
334.00 2.95
335.00 2.72
336.00 2.50
337.00 2.28
338.00 2.07
339.00 1.88
340.00 1.69
341.00 1.50
342.00 1.33
343.00 1.17
344.00 1.02
345.00 0.88
346.00 0.75
347.00 0.63
348.00 0.52
349.00 0.43
350.00 0.34
351.00 0.27
352.00 0.21
353.00 0.15
354.00 0.11
355.00 0.07
356.00 0.04
357.00 0.02
358.00 0.01
359.00 0.00
VERTICAL 360
0.00 0.00
1.00 0.50
2.00 1.99
3.00 4.77
4.00 9.67
5.00 20.31
6.00 21.04
7.00 14.27
8.00 13.16
9.00 14.81
10.00 18.77
11.00 21.04
12.00 18.09
13.00 16.35
14.00 17.15
15.00 21.40
16.00 35.48
17.00 23.64
18.00 17.88
19.00 16.03
20.00 16.24
21.00 18.40
22.00 23.66
23.00 31.95
24.00 23.87
25.00 19.22
26.00 17.66
27.00 17.90
28.00 19.47
29.00 21.90
30.00 24.30
31.00 25.55
32.00 25.14
33.00 23.55
34.00 21.76
35.00 20.43
36.00 19.76
37.00 19.74
38.00 20.38
39.00 21.79
40.00 24.29
41.00 28.51
42.00 35.14
43.00 35.10
44.00 30.22
45.00 27.58
46.00 26.46
47.00 26.55
48.00 28.01
49.00 31.05
50.00 34.62
51.00 34.65
52.00 33.04
53.00 32.64
54.00 33.27
55.00 34.43
56.00 36.13
57.00 38.31
58.00 38.27
59.00 35.16
60.00 32.68
61.00 31.67
62.00 31.68
63.00 32.08
64.00 32.38
65.00 32.62
66.00 33.22
67.00 34.69
68.00 37.32
69.00 41.24
70.00 46.56
71.00 51.11
72.00 46.82
73.00 40.76
74.00 36.71
75.00 34.59
76.00 33.98
77.00 34.05
78.00 33.73
79.00 32.46
80.00 30.67
81.00 29.32
82.00 29.01
83.00 29.76
84.00 31.10
85.00 32.02
86.00 31.55
87.00 30.52
88.00 30.57
89.00 32.72
90.00 37.74
91.00 41.32
92.00 38.02
93.00 35.53
94.00 33.91
95.00 33.10
96.00 33.59
97.00 35.67
98.00 39.53
99.00 44.97
100.00 48.23
101.00 48.06
102.00 46.94
103.00 44.44
104.00 42.63
105.00 42.33
106.00 42.84
107.00 42.79
108.00 41.83
109.00 40.99
110.00 40.88
111.00 41.41
112.00 42.41
113.00 43.95
114.00 45.53
115.00 46.26
116.00 46.35
117.00 45.86
118.00 45.41
119.00 46.40
120.00 48.49
121.00 48.16
122.00 45.84
123.00 43.72
124.00 42.25
125.00 41.97
126.00 42.89
127.00 44.38
128.00 45.51
129.00 45.03
130.00 43.44
131.00 42.96
132.00 44.33
133.00 45.88
134.00 45.42
135.00 44.38
136.00 42.83
137.00 40.80
138.00 39.49
139.00 39.32
140.00 39.96
141.00 40.77
142.00 41.13
143.00 41.03
144.00 41.13
145.00 42.09
146.00 43.91
147.00 44.39
148.00 42.09
149.00 39.76
150.00 38.40
151.00 37.74
152.00 37.30
153.00 37.00
154.00 37.66
155.00 41.19
156.00 46.02
157.00 38.61
158.00 34.08
159.00 32.71
160.00 33.37
161.00 35.50
162.00 38.40
163.00 40.99
164.00 41.49
165.00 39.36
166.00 37.12
167.00 36.34
168.00 37.39
169.00 39.98
170.00 41.34
171.00 39.58
172.00 37.76
173.00 36.68
174.00 36.03
175.00 35.75
176.00 36.05
177.00 37.10
178.00 38.39
179.00 39.08
180.00 39.49
181.00 40.53
182.00 42.01
183.00 42.94
184.00 43.03
185.00 43.13
186.00 44.24
187.00 47.00
188.00 48.18
189.00 43.56
190.00 39.64
191.00 37.89
192.00 37.78
193.00 38.28
194.00 38.34
195.00 38.36
196.00 39.12
197.00 40.36
198.00 41.12
199.00 41.04
200.00 40.98
201.00 41.82
202.00 43.52
203.00 45.69
204.00 49.40
205.00 48.49
206.00 42.50
207.00 39.40
208.00 38.31
209.00 38.00
210.00 37.23
211.00 35.21
212.00 32.81
213.00 31.15
214.00 30.41
215.00 30.37
216.00 31.00
217.00 32.73
218.00 36.21
219.00 40.90
220.00 41.13
221.00 38.77
222.00 37.10
223.00 35.98
224.00 35.92
225.00 37.64
226.00 42.08
227.00 51.75
228.00 52.05
229.00 47.47
230.00 46.34
231.00 45.24
232.00 43.57
233.00 42.24
234.00 41.88
235.00 42.52
236.00 43.59
237.00 44.14
238.00 43.88
239.00 43.19
240.00 42.29
241.00 41.13
242.00 40.04
243.00 39.76
244.00 40.90
245.00 43.88
246.00 49.61
247.00 58.06
248.00 53.11
249.00 49.24
250.00 48.16
251.00 48.43
252.00 49.07
253.00 47.44
254.00 44.25
255.00 42.31
256.00 42.04
257.00 42.94
258.00 44.00
259.00 44.39
260.00 44.88
261.00 47.19
262.00 51.20
263.00 48.37
264.00 45.06
265.00 45.29
266.00 49.04
267.00 56.17
268.00 54.13
269.00 46.36
270.00 40.98
271.00 37.90
272.00 36.68
273.00 36.62
274.00 36.55
275.00 35.70
276.00 34.79
277.00 34.55
278.00 34.97
279.00 35.47
280.00 35.26
281.00 34.30
282.00 33.40
283.00 33.22
284.00 33.99
285.00 35.48
286.00 36.98
287.00 37.35
288.00 36.05
289.00 34.01
290.00 32.30
291.00 31.30
292.00 30.87
293.00 30.67
294.00 30.36
295.00 29.80
296.00 29.23
297.00 29.03
298.00 29.42
299.00 30.46
300.00 32.14
301.00 34.67
302.00 38.89
303.00 48.59
304.00 44.20
305.00 36.11
306.00 32.17
307.00 30.15
308.00 29.77
309.00 31.51
310.00 37.68
311.00 41.90
312.00 30.76
313.00 25.77
314.00 22.82
315.00 20.83
316.00 19.42
317.00 18.42
318.00 17.79
319.00 17.48
320.00 17.43
321.00 17.55
322.00 17.79
323.00 18.07
324.00 18.24
325.00 18.10
326.00 17.58
327.00 16.89
328.00 16.42
329.00 16.54
330.00 17.64
331.00 20.35
332.00 26.28
333.00 30.76
334.00 23.63
335.00 20.15
336.00 19.33
337.00 20.64
338.00 24.82
339.00 39.64
340.00 29.36
341.00 22.88
342.00 21.02
343.00 21.77
344.00 25.23
345.00 28.13
346.00 23.86
347.00 20.76
348.00 20.21
349.00 21.86
350.00 25.28
351.00 27.89
352.00 30.38
353.00 35.29
354.00 19.81
355.00 11.92
356.00 7.02
357.00 3.73
358.00 1.57
359.00 0.36
