NAME ATR4518R7_0806_X_CO_P45_03T
FREQUENCY 0806
GAIN 14.12 dBd
TILT	ELECTRICAL
COMMENT DATE 05.08.2013 +45 degrees polarized system Lever position 03T deg
HORIZONTAL 360
0.00 0.00
1.00 0.00
2.00 0.02
3.00 0.03
4.00 0.06
5.00 0.09
6.00 0.12
7.00 0.16
8.00 0.21
9.00 0.26
10.00 0.31
11.00 0.37
12.00 0.44
13.00 0.52
14.00 0.59
15.00 0.68
16.00 0.77
17.00 0.86
18.00 0.96
19.00 1.07
20.00 1.18
21.00 1.30
22.00 1.42
23.00 1.55
24.00 1.68
25.00 1.82
26.00 1.96
27.00 2.11
28.00 2.26
29.00 2.42
30.00 2.59
31.00 2.76
32.00 2.93
33.00 3.11
34.00 3.30
35.00 3.49
36.00 3.69
37.00 3.89
38.00 4.10
39.00 4.31
40.00 4.52
41.00 4.75
42.00 4.97
43.00 5.20
44.00 5.44
45.00 5.68
46.00 5.92
47.00 6.18
48.00 6.43
49.00 6.69
50.00 6.96
51.00 7.22
52.00 7.50
53.00 7.77
54.00 8.06
55.00 8.34
56.00 8.63
57.00 8.93
58.00 9.22
59.00 9.53
60.00 9.83
61.00 10.14
62.00 10.46
63.00 10.77
64.00 11.10
65.00 11.42
66.00 11.75
67.00 12.08
68.00 12.42
69.00 12.76
70.00 13.10
71.00 13.45
72.00 13.80
73.00 14.16
74.00 14.52
75.00 14.88
76.00 15.25
77.00 15.62
78.00 15.99
79.00 16.38
80.00 16.76
81.00 17.15
82.00 17.55
83.00 17.95
84.00 18.36
85.00 18.78
86.00 19.20
87.00 19.63
88.00 20.06
89.00 20.51
90.00 20.96
91.00 21.42
92.00 21.89
93.00 22.36
94.00 22.85
95.00 23.35
96.00 23.85
97.00 24.37
98.00 24.89
99.00 25.42
100.00 25.96
101.00 26.49
102.00 27.03
103.00 27.57
104.00 28.10
105.00 28.61
106.00 29.10
107.00 29.56
108.00 29.98
109.00 30.35
110.00 30.67
111.00 30.92
112.00 31.10
113.00 31.21
114.00 31.25
115.00 31.23
116.00 31.15
117.00 31.04
118.00 30.89
119.00 30.71
120.00 30.52
121.00 30.32
122.00 30.12
123.00 29.91
124.00 29.71
125.00 29.52
126.00 29.34
127.00 29.17
128.00 29.01
129.00 28.86
130.00 28.73
131.00 28.61
132.00 28.51
133.00 28.42
134.00 28.34
135.00 28.27
136.00 28.22
137.00 28.18
138.00 28.15
139.00 28.13
140.00 28.13
141.00 28.14
142.00 28.15
143.00 28.19
144.00 28.23
145.00 28.28
146.00 28.34
147.00 28.42
148.00 28.50
149.00 28.60
150.00 28.70
151.00 28.82
152.00 28.94
153.00 29.07
154.00 29.22
155.00 29.37
156.00 29.54
157.00 29.71
158.00 29.90
159.00 30.09
160.00 30.30
161.00 30.51
162.00 30.74
163.00 30.98
164.00 31.23
165.00 31.49
166.00 31.77
167.00 32.06
168.00 32.36
169.00 32.67
170.00 33.01
171.00 33.35
172.00 33.72
173.00 34.10
174.00 34.50
175.00 34.92
176.00 35.36
177.00 35.83
178.00 36.33
179.00 36.85
180.00 37.40
181.00 37.99
182.00 38.62
183.00 39.29
184.00 40.00
185.00 40.76
186.00 41.58
187.00 42.47
188.00 43.42
189.00 44.43
190.00 45.50
191.00 46.61
192.00 47.71
193.00 48.70
194.00 49.42
195.00 49.73
196.00 49.54
197.00 48.96
198.00 48.12
199.00 47.19
200.00 46.26
201.00 45.37
202.00 44.54
203.00 43.78
204.00 43.09
205.00 42.46
206.00 41.89
207.00 41.37
208.00 40.90
209.00 40.48
210.00 40.09
211.00 39.74
212.00 39.43
213.00 39.16
214.00 38.91
215.00 38.70
216.00 38.52
217.00 38.36
218.00 38.23
219.00 38.13
220.00 38.05
221.00 38.00
222.00 37.98
223.00 37.97
224.00 37.99
225.00 38.03
226.00 38.09
227.00 38.16
228.00 38.25
229.00 38.35
230.00 38.44
231.00 38.52
232.00 38.59
233.00 38.60
234.00 38.58
235.00 38.48
236.00 38.29
237.00 38.02
238.00 37.65
239.00 37.18
240.00 36.64
241.00 36.02
242.00 35.36
243.00 34.65
244.00 33.93
245.00 33.20
246.00 32.47
247.00 31.74
248.00 31.02
249.00 30.31
250.00 29.62
251.00 28.95
252.00 28.29
253.00 27.65
254.00 27.03
255.00 26.43
256.00 25.85
257.00 25.28
258.00 24.73
259.00 24.19
260.00 23.67
261.00 23.17
262.00 22.68
263.00 22.20
264.00 21.73
265.00 21.28
266.00 20.83
267.00 20.40
268.00 19.98
269.00 19.57
270.00 19.17
271.00 18.77
272.00 18.39
273.00 18.01
274.00 17.64
275.00 17.27
276.00 16.91
277.00 16.56
278.00 16.21
279.00 15.87
280.00 15.53
281.00 15.20
282.00 14.87
283.00 14.54
284.00 14.22
285.00 13.90
286.00 13.58
287.00 13.27
288.00 12.96
289.00 12.65
290.00 12.34
291.00 12.04
292.00 11.73
293.00 11.43
294.00 11.13
295.00 10.84
296.00 10.54
297.00 10.25
298.00 9.96
299.00 9.67
300.00 9.38
301.00 9.10
302.00 8.81
303.00 8.54
304.00 8.26
305.00 7.99
306.00 7.71
307.00 7.44
308.00 7.18
309.00 6.92
310.00 6.66
311.00 6.41
312.00 6.15
313.00 5.91
314.00 5.67
315.00 5.43
316.00 5.19
317.00 4.96
318.00 4.74
319.00 4.52
320.00 4.30
321.00 4.09
322.00 3.88
323.00 3.68
324.00 3.48
325.00 3.29
326.00 3.10
327.00 2.92
328.00 2.74
329.00 2.57
330.00 2.41
331.00 2.25
332.00 2.09
333.00 1.94
334.00 1.80
335.00 1.66
336.00 1.53
337.00 1.40
338.00 1.28
339.00 1.16
340.00 1.05
341.00 0.94
342.00 0.84
343.00 0.75
344.00 0.66
345.00 0.57
346.00 0.50
347.00 0.43
348.00 0.36
349.00 0.30
350.00 0.24
351.00 0.19
352.00 0.15
353.00 0.11
354.00 0.08
355.00 0.05
356.00 0.03
357.00 0.01
358.00 0.00
359.00 0.00
VERTICAL 360
0.00 1.36
1.00 0.60
2.00 0.15
3.00 0.00
4.00 0.15
5.00 0.61
6.00 1.40
7.00 2.54
8.00 4.09
9.00 6.10
10.00 8.70
11.00 12.09
12.00 16.74
13.00 24.05
14.00 41.59
15.00 28.42
16.00 25.22
17.00 25.42
18.00 28.39
19.00 37.77
20.00 34.94
21.00 26.34
22.00 22.56
23.00 20.59
24.00 19.73
25.00 19.74
26.00 20.56
27.00 22.22
28.00 24.92
29.00 28.95
30.00 33.26
31.00 31.89
32.00 28.83
33.00 27.21
34.00 26.94
35.00 28.01
36.00 30.92
37.00 37.55
38.00 36.89
39.00 28.93
40.00 24.56
41.00 21.78
42.00 19.90
43.00 18.61
44.00 17.77
45.00 17.27
46.00 17.06
47.00 17.12
48.00 17.42
49.00 17.97
50.00 18.77
51.00 19.82
52.00 21.10
53.00 22.62
54.00 24.33
55.00 26.19
56.00 28.13
57.00 30.13
58.00 32.14
59.00 34.03
60.00 35.29
61.00 35.27
62.00 34.34
63.00 33.34
64.00 32.65
65.00 32.25
66.00 32.02
67.00 31.93
68.00 32.04
69.00 32.44
70.00 33.12
71.00 33.97
72.00 34.85
73.00 35.60
74.00 35.79
75.00 34.84
76.00 33.04
77.00 31.27
78.00 30.02
79.00 29.40
80.00 29.36
81.00 29.75
82.00 30.29
83.00 30.58
84.00 30.38
85.00 29.84
86.00 29.31
87.00 29.07
88.00 29.26
89.00 29.88
90.00 30.77
91.00 31.63
92.00 32.12
93.00 32.17
94.00 31.95
95.00 31.64
96.00 31.32
97.00 31.06
98.00 30.91
99.00 30.92
100.00 31.10
101.00 31.47
102.00 32.09
103.00 33.04
104.00 34.39
105.00 36.12
106.00 38.02
107.00 39.64
108.00 40.32
109.00 39.72
110.00 38.31
111.00 36.82
112.00 35.69
113.00 35.05
114.00 34.91
115.00 35.21
116.00 35.90
117.00 36.90
118.00 38.11
119.00 39.28
120.00 40.18
121.00 40.79
122.00 41.49
123.00 42.78
124.00 45.24
125.00 49.62
126.00 53.04
127.00 47.74
128.00 43.49
129.00 40.80
130.00 38.97
131.00 37.59
132.00 36.49
133.00 35.64
134.00 35.15
135.00 35.13
136.00 35.73
137.00 37.15
138.00 39.76
139.00 44.43
140.00 48.81
141.00 42.68
142.00 38.07
143.00 35.31
144.00 33.69
145.00 32.92
146.00 32.90
147.00 33.60
148.00 35.09
149.00 37.49
150.00 40.70
151.00 42.66
152.00 40.61
153.00 37.84
154.00 35.87
155.00 34.67
156.00 34.07
157.00 33.92
158.00 34.12
159.00 34.54
160.00 35.11
161.00 35.73
162.00 36.44
163.00 37.34
164.00 38.60
165.00 40.49
166.00 43.45
167.00 48.74
168.00 57.31
169.00 47.90
170.00 42.29
171.00 39.03
172.00 37.01
173.00 35.89
174.00 35.51
175.00 35.81
176.00 36.54
177.00 37.12
178.00 36.98
179.00 35.85
180.00 34.61
181.00 33.74
182.00 33.36
183.00 33.54
184.00 33.80
185.00 34.44
186.00 35.49
187.00 37.01
188.00 39.09
189.00 41.72
190.00 43.97
191.00 43.30
192.00 40.65
193.00 38.33
194.00 36.79
195.00 35.98
196.00 35.77
197.00 36.01
198.00 36.48
199.00 36.93
200.00 37.12
201.00 37.04
202.00 36.80
203.00 36.62
204.00 36.67
205.00 37.05
206.00 37.75
207.00 38.61
208.00 39.47
209.00 40.50
210.00 42.18
211.00 45.18
212.00 49.60
213.00 49.29
214.00 45.54
215.00 43.61
216.00 43.30
217.00 44.19
218.00 45.68
219.00 46.60
220.00 45.94
221.00 44.20
222.00 42.36
223.00 41.01
224.00 40.46
225.00 40.89
226.00 42.45
227.00 45.31
228.00 48.87
229.00 49.12
230.00 46.00
231.00 43.10
232.00 40.89
233.00 39.33
234.00 38.46
235.00 38.30
236.00 38.76
237.00 39.64
238.00 40.55
239.00 40.95
240.00 40.55
241.00 39.54
242.00 38.35
243.00 37.39
244.00 36.93
245.00 37.14
246.00 38.15
247.00 40.01
248.00 42.49
249.00 44.38
250.00 44.22
251.00 43.14
252.00 42.19
253.00 41.33
254.00 40.51
255.00 39.99
256.00 40.21
257.00 41.66
258.00 45.16
259.00 52.30
260.00 48.34
261.00 42.25
262.00 39.10
263.00 37.54
264.00 37.15
265.00 37.84
266.00 39.79
267.00 43.21
268.00 46.18
269.00 43.71
270.00 40.66
271.00 38.97
272.00 38.28
273.00 38.21
274.00 38.52
275.00 39.17
276.00 40.30
277.00 42.01
278.00 44.07
279.00 45.90
280.00 47.29
281.00 48.88
282.00 49.82
283.00 47.40
284.00 44.08
285.00 41.73
286.00 40.33
287.00 39.54
288.00 39.03
289.00 38.56
290.00 38.06
291.00 37.62
292.00 37.43
293.00 37.69
294.00 38.68
295.00 40.83
296.00 44.92
297.00 48.27
298.00 41.83
299.00 36.49
300.00 32.62
301.00 29.52
302.00 26.88
303.00 24.58
304.00 22.59
305.00 20.90
306.00 19.52
307.00 18.44
308.00 17.64
309.00 17.11
310.00 16.81
311.00 16.68
312.00 16.71
313.00 16.85
314.00 17.11
315.00 17.50
316.00 18.08
317.00 18.93
318.00 20.15
319.00 21.87
320.00 24.27
321.00 27.64
322.00 32.68
323.00 41.86
324.00 45.90
325.00 38.78
326.00 37.13
327.00 38.02
328.00 41.30
329.00 48.61
330.00 66.59
331.00 51.33
332.00 48.95
333.00 43.29
334.00 37.33
335.00 33.11
336.00 30.20
337.00 28.18
338.00 26.79
339.00 25.88
340.00 25.42
341.00 25.48
342.00 26.27
343.00 28.26
344.00 32.76
345.00 48.28
346.00 32.78
347.00 26.50
348.00 23.45
349.00 22.22
350.00 22.75
351.00 26.04
352.00 34.87
353.00 23.00
354.00 15.95
355.00 11.48
356.00 8.26
357.00 5.81
358.00 3.91
359.00 2.45
