NAME ATR4518R7_2655_X_CO_M45_00T_yL
FREQUENCY 2655
GAIN 15.76 dBd
TILT	ELECTRICAL
COMMENT DATE 05.08.2013 -45 degrees polarized system Lever position 00T deg
HORIZONTAL 360
0.00 0.06
1.00 0.10
2.00 0.16
3.00 0.23
4.00 0.30
5.00 0.38
6.00 0.46
7.00 0.54
8.00 0.62
9.00 0.70
10.00 0.78
11.00 0.85
12.00 0.92
13.00 0.99
14.00 1.06
15.00 1.14
16.00 1.22
17.00 1.31
18.00 1.42
19.00 1.54
20.00 1.67
21.00 1.83
22.00 1.99
23.00 2.18
24.00 2.38
25.00 2.60
26.00 2.83
27.00 3.07
28.00 3.32
29.00 3.58
30.00 3.85
31.00 4.11
32.00 4.38
33.00 4.64
34.00 4.89
35.00 5.14
36.00 5.37
37.00 5.60
38.00 5.81
39.00 6.02
40.00 6.21
41.00 6.40
42.00 6.58
43.00 6.76
44.00 6.93
45.00 7.11
46.00 7.28
47.00 7.46
48.00 7.65
49.00 7.84
50.00 8.04
51.00 8.25
52.00 8.46
53.00 8.69
54.00 8.93
55.00 9.17
56.00 9.43
57.00 9.69
58.00 9.97
59.00 10.25
60.00 10.54
61.00 10.84
62.00 11.15
63.00 11.47
64.00 11.80
65.00 12.13
66.00 12.48
67.00 12.83
68.00 13.19
69.00 13.55
70.00 13.93
71.00 14.32
72.00 14.72
73.00 15.12
74.00 15.55
75.00 15.98
76.00 16.44
77.00 16.92
78.00 17.43
79.00 17.96
80.00 18.53
81.00 19.14
82.00 19.78
83.00 20.48
84.00 21.23
85.00 22.04
86.00 22.91
87.00 23.85
88.00 24.85
89.00 25.91
90.00 27.03
91.00 28.18
92.00 29.33
93.00 30.42
94.00 31.40
95.00 32.21
96.00 32.81
97.00 33.23
98.00 33.51
99.00 33.73
100.00 33.93
101.00 34.16
102.00 34.41
103.00 34.65
104.00 34.84
105.00 34.89
106.00 34.73
107.00 34.32
108.00 33.70
109.00 32.95
110.00 32.15
111.00 31.36
112.00 30.63
113.00 29.98
114.00 29.44
115.00 28.99
116.00 28.65
117.00 28.40
118.00 28.24
119.00 28.15
120.00 28.13
121.00 28.15
122.00 28.20
123.00 28.26
124.00 28.31
125.00 28.34
126.00 28.34
127.00 28.31
128.00 28.27
129.00 28.23
130.00 28.22
131.00 28.25
132.00 28.36
133.00 28.55
134.00 28.84
135.00 29.25
136.00 29.79
137.00 30.45
138.00 31.24
139.00 32.12
140.00 33.02
141.00 33.80
142.00 34.30
143.00 34.37
144.00 34.03
145.00 33.42
146.00 32.72
147.00 32.06
148.00 31.51
149.00 31.11
150.00 30.85
151.00 30.76
152.00 30.82
153.00 31.04
154.00 31.41
155.00 31.93
156.00 32.58
157.00 33.36
158.00 34.25
159.00 35.24
160.00 36.29
161.00 37.38
162.00 38.48
163.00 39.61
164.00 40.81
165.00 42.18
166.00 43.90
167.00 46.25
168.00 49.73
169.00 54.39
170.00 52.91
171.00 47.63
172.00 43.85
173.00 41.13
174.00 39.11
175.00 37.57
176.00 36.40
177.00 35.54
178.00 34.95
179.00 34.60
180.00 34.49
181.00 34.63
182.00 35.01
183.00 35.68
184.00 36.68
185.00 38.09
186.00 40.05
187.00 42.78
188.00 46.48
189.00 49.03
190.00 46.11
191.00 42.39
192.00 39.63
193.00 37.64
194.00 36.18
195.00 35.13
196.00 34.39
197.00 33.94
198.00 33.73
199.00 33.75
200.00 33.98
201.00 34.41
202.00 35.00
203.00 35.68
204.00 36.28
205.00 36.57
206.00 36.32
207.00 35.54
208.00 34.43
209.00 33.25
210.00 32.12
211.00 31.14
212.00 30.33
213.00 29.69
214.00 29.23
215.00 28.94
216.00 28.83
217.00 28.89
218.00 29.14
219.00 29.59
220.00 30.26
221.00 31.17
222.00 32.38
223.00 33.93
224.00 35.91
225.00 38.30
226.00 40.61
227.00 41.15
228.00 39.39
229.00 37.10
230.00 35.16
231.00 33.64
232.00 32.51
233.00 31.67
234.00 31.09
235.00 30.71
236.00 30.52
237.00 30.47
238.00 30.53
239.00 30.66
240.00 30.81
241.00 30.92
242.00 30.93
243.00 30.79
244.00 30.50
245.00 30.06
246.00 29.54
247.00 28.97
248.00 28.42
249.00 27.90
250.00 27.45
251.00 27.07
252.00 26.77
253.00 26.56
254.00 26.42
255.00 26.37
256.00 26.40
257.00 26.50
258.00 26.68
259.00 26.92
260.00 27.21
261.00 27.54
262.00 27.88
263.00 28.21
264.00 28.49
265.00 28.67
266.00 28.71
267.00 28.59
268.00 28.29
269.00 27.86
270.00 27.31
271.00 26.71
272.00 26.08
273.00 25.45
274.00 24.85
275.00 24.29
276.00 23.77
277.00 23.31
278.00 22.89
279.00 22.52
280.00 22.20
281.00 21.92
282.00 21.68
283.00 21.47
284.00 21.28
285.00 21.10
286.00 20.93
287.00 20.76
288.00 20.57
289.00 20.35
290.00 20.09
291.00 19.80
292.00 19.46
293.00 19.09
294.00 18.68
295.00 18.24
296.00 17.78
297.00 17.31
298.00 16.83
299.00 16.34
300.00 15.86
301.00 15.37
302.00 14.88
303.00 14.40
304.00 13.91
305.00 13.42
306.00 12.91
307.00 12.40
308.00 11.88
309.00 11.35
310.00 10.81
311.00 10.26
312.00 9.71
313.00 9.16
314.00 8.61
315.00 8.08
316.00 7.55
317.00 7.04
318.00 6.55
319.00 6.09
320.00 5.65
321.00 5.23
322.00 4.84
323.00 4.48
324.00 4.14
325.00 3.83
326.00 3.55
327.00 3.29
328.00 3.05
329.00 2.84
330.00 2.65
331.00 2.47
332.00 2.31
333.00 2.17
334.00 2.04
335.00 1.92
336.00 1.81
337.00 1.70
338.00 1.60
339.00 1.51
340.00 1.41
341.00 1.32
342.00 1.22
343.00 1.12
344.00 1.02
345.00 0.92
346.00 0.82
347.00 0.71
348.00 0.61
349.00 0.50
350.00 0.40
351.00 0.31
352.00 0.23
353.00 0.16
354.00 0.10
355.00 0.05
356.00 0.02
357.00 0.00
358.00 0.01
359.00 0.02
VERTICAL 360
0.00 0.07
1.00 0.28
2.00 1.96
3.00 5.61
4.00 12.95
5.00 21.37
6.00 13.37
7.00 12.12
8.00 14.21
9.00 16.43
10.00 14.23
11.00 12.68
12.00 13.57
13.00 16.79
14.00 18.82
15.00 16.64
16.00 16.08
17.00 18.86
18.00 25.16
19.00 20.32
20.00 16.26
21.00 15.16
22.00 15.68
23.00 16.84
24.00 18.03
25.00 19.45
26.00 21.67
27.00 23.46
28.00 20.94
29.00 17.84
30.00 16.62
31.00 17.61
32.00 21.57
33.00 29.55
34.00 23.65
35.00 19.71
36.00 19.19
37.00 21.36
38.00 27.39
39.00 40.38
40.00 27.67
41.00 24.25
42.00 23.63
43.00 24.52
44.00 26.03
45.00 26.76
46.00 26.26
47.00 25.89
48.00 26.62
49.00 28.84
50.00 31.44
51.00 30.28
52.00 27.97
53.00 27.40
54.00 28.41
55.00 28.72
56.00 25.89
57.00 22.38
58.00 19.51
59.00 17.34
60.00 15.83
61.00 14.94
62.00 14.57
63.00 14.60
64.00 14.94
65.00 15.55
66.00 16.38
67.00 17.43
68.00 18.67
69.00 20.04
70.00 21.44
71.00 22.74
72.00 24.02
73.00 25.63
74.00 27.62
75.00 29.67
76.00 31.28
77.00 31.87
78.00 33.13
79.00 38.36
80.00 49.19
81.00 40.13
82.00 40.18
83.00 39.69
84.00 36.66
85.00 34.95
86.00 33.45
87.00 33.07
88.00 35.01
89.00 38.64
90.00 36.73
91.00 31.85
92.00 29.24
93.00 29.33
94.00 32.48
95.00 39.78
96.00 48.32
97.00 55.14
98.00 44.09
99.00 38.35
100.00 37.61
101.00 39.72
102.00 42.64
103.00 42.72
104.00 39.80
105.00 37.20
106.00 36.20
107.00 36.61
108.00 37.48
109.00 37.31
110.00 35.74
111.00 33.81
112.00 32.44
113.00 31.82
114.00 31.70
115.00 31.81
116.00 32.19
117.00 33.22
118.00 34.85
119.00 36.01
120.00 36.65
121.00 38.76
122.00 43.08
123.00 44.65
124.00 44.70
125.00 47.33
126.00 46.73
127.00 44.82
128.00 43.94
129.00 44.69
130.00 50.38
131.00 47.85
132.00 43.64
133.00 45.15
134.00 44.40
135.00 41.38
136.00 43.14
137.00 55.04
138.00 49.74
139.00 45.02
140.00 43.98
141.00 43.90
142.00 43.25
143.00 40.30
144.00 37.82
145.00 36.34
146.00 35.28
147.00 34.20
148.00 33.01
149.00 31.72
150.00 29.85
151.00 28.06
152.00 27.30
153.00 27.36
154.00 27.90
155.00 29.94
156.00 35.89
157.00 41.48
158.00 34.46
159.00 31.94
160.00 31.19
161.00 32.50
162.00 34.54
163.00 32.66
164.00 31.92
165.00 34.60
166.00 40.17
167.00 51.48
168.00 42.98
169.00 35.91
170.00 34.69
171.00 34.06
172.00 31.57
173.00 30.81
174.00 32.30
175.00 33.61
176.00 33.52
177.00 33.34
178.00 32.67
179.00 33.44
180.00 38.58
181.00 60.28
182.00 41.34
183.00 38.97
184.00 37.62
185.00 37.73
186.00 35.84
187.00 31.75
188.00 30.54
189.00 32.75
190.00 38.63
191.00 45.72
192.00 40.93
193.00 36.15
194.00 34.42
195.00 33.63
196.00 32.85
197.00 34.10
198.00 37.25
199.00 36.42
200.00 36.10
201.00 40.07
202.00 48.40
203.00 45.64
204.00 38.26
205.00 34.40
206.00 33.20
207.00 33.50
208.00 34.96
209.00 37.25
210.00 37.80
211.00 38.94
212.00 46.35
213.00 49.24
214.00 40.71
215.00 35.93
216.00 32.84
217.00 32.57
218.00 35.41
219.00 40.93
220.00 44.69
221.00 47.21
222.00 47.21
223.00 44.56
224.00 41.70
225.00 39.29
226.00 38.98
227.00 40.86
228.00 43.18
229.00 43.95
230.00 46.06
231.00 47.76
232.00 43.28
233.00 41.28
234.00 41.80
235.00 43.02
236.00 44.30
237.00 43.29
238.00 39.33
239.00 36.63
240.00 35.20
241.00 34.09
242.00 32.76
243.00 31.36
244.00 30.31
245.00 29.85
246.00 29.99
247.00 30.76
248.00 32.14
249.00 33.88
250.00 35.73
251.00 37.66
252.00 40.03
253.00 44.20
254.00 47.57
255.00 43.39
256.00 42.21
257.00 44.10
258.00 46.23
259.00 42.86
260.00 38.28
261.00 35.99
262.00 36.36
263.00 39.70
264.00 46.00
265.00 47.49
266.00 43.14
267.00 39.45
268.00 38.01
269.00 39.22
270.00 42.40
271.00 42.93
272.00 41.35
273.00 41.11
274.00 41.50
275.00 41.20
276.00 38.99
277.00 35.71
278.00 33.16
279.00 31.73
280.00 31.07
281.00 30.64
282.00 30.00
283.00 29.22
284.00 28.68
285.00 28.76
286.00 29.62
287.00 31.13
288.00 33.04
289.00 35.34
290.00 38.62
291.00 38.33
292.00 31.34
293.00 26.18
294.00 22.81
295.00 20.60
296.00 19.12
297.00 18.11
298.00 17.49
299.00 17.34
300.00 17.81
301.00 19.06
302.00 21.27
303.00 24.90
304.00 31.81
305.00 45.32
306.00 29.48
307.00 25.21
308.00 23.65
309.00 23.91
310.00 26.23
311.00 31.47
312.00 29.78
313.00 23.95
314.00 21.15
315.00 20.44
316.00 21.45
317.00 24.21
318.00 26.77
319.00 23.60
320.00 20.43
321.00 19.59
322.00 21.43
323.00 27.60
324.00 29.45
325.00 21.72
326.00 18.32
327.00 16.72
328.00 16.01
329.00 15.65
330.00 15.16
331.00 14.32
332.00 13.37
333.00 12.60
334.00 12.24
335.00 12.46
336.00 13.61
337.00 16.35
338.00 22.59
339.00 36.52
340.00 21.81
341.00 18.65
342.00 19.25
343.00 24.22
344.00 31.84
345.00 21.18
346.00 18.05
347.00 18.58
348.00 22.83
349.00 27.26
350.00 21.51
351.00 19.34
352.00 20.36
353.00 23.47
354.00 27.95
355.00 32.12
356.00 15.54
357.00 8.19
358.00 3.78
359.00 1.20
