NAME ATR4518R7_2535_X_CO_P45_02T_yL
FREQUENCY 2535
GAIN 15.58 dBd
TILT	ELECTRICAL
COMMENT DATE 05.08.2013 +45 degrees polarized system Lever position 02T deg
HORIZONTAL 360
0.00 0.01
1.00 0.00
2.00 0.00
3.00 0.01
4.00 0.02
5.00 0.04
6.00 0.07
7.00 0.10
8.00 0.14
9.00 0.19
10.00 0.24
11.00 0.30
12.00 0.37
13.00 0.45
14.00 0.54
15.00 0.64
16.00 0.75
17.00 0.87
18.00 1.00
19.00 1.15
20.00 1.31
21.00 1.49
22.00 1.67
23.00 1.87
24.00 2.08
25.00 2.30
26.00 2.53
27.00 2.76
28.00 3.00
29.00 3.24
30.00 3.47
31.00 3.70
32.00 3.93
33.00 4.15
34.00 4.36
35.00 4.56
36.00 4.76
37.00 4.95
38.00 5.13
39.00 5.31
40.00 5.49
41.00 5.67
42.00 5.86
43.00 6.05
44.00 6.24
45.00 6.45
46.00 6.66
47.00 6.89
48.00 7.13
49.00 7.38
50.00 7.64
51.00 7.92
52.00 8.21
53.00 8.51
54.00 8.83
55.00 9.15
56.00 9.48
57.00 9.82
58.00 10.17
59.00 10.52
60.00 10.87
61.00 11.23
62.00 11.59
63.00 11.94
64.00 12.30
65.00 12.64
66.00 12.99
67.00 13.33
68.00 13.66
69.00 13.98
70.00 14.29
71.00 14.60
72.00 14.89
73.00 15.18
74.00 15.45
75.00 15.71
76.00 15.96
77.00 16.21
78.00 16.44
79.00 16.67
80.00 16.88
81.00 17.10
82.00 17.31
83.00 17.52
84.00 17.73
85.00 17.95
86.00 18.18
87.00 18.42
88.00 18.68
89.00 18.95
90.00 19.25
91.00 19.56
92.00 19.90
93.00 20.26
94.00 20.65
95.00 21.05
96.00 21.48
97.00 21.91
98.00 22.37
99.00 22.83
100.00 23.30
101.00 23.77
102.00 24.24
103.00 24.72
104.00 25.19
105.00 25.67
106.00 26.15
107.00 26.65
108.00 27.18
109.00 27.74
110.00 28.34
111.00 29.00
112.00 29.73
113.00 30.54
114.00 31.44
115.00 32.45
116.00 33.59
117.00 34.86
118.00 36.29
119.00 37.90
120.00 39.67
121.00 41.55
122.00 43.31
123.00 44.52
124.00 44.75
125.00 44.15
126.00 43.20
127.00 42.26
128.00 41.45
129.00 40.82
130.00 40.35
131.00 40.03
132.00 39.82
133.00 39.71
134.00 39.63
135.00 39.54
136.00 39.39
137.00 39.12
138.00 38.71
139.00 38.16
140.00 37.49
141.00 36.75
142.00 35.99
143.00 35.25
144.00 34.58
145.00 33.97
146.00 33.47
147.00 33.05
148.00 32.75
149.00 32.55
150.00 32.47
151.00 32.51
152.00 32.66
153.00 32.92
154.00 33.31
155.00 33.81
156.00 34.41
157.00 35.08
158.00 35.79
159.00 36.46
160.00 36.98
161.00 37.26
162.00 37.24
163.00 36.95
164.00 36.48
165.00 35.95
166.00 35.41
167.00 34.95
168.00 34.57
169.00 34.29
170.00 34.11
171.00 34.04
172.00 34.06
173.00 34.16
174.00 34.35
175.00 34.62
176.00 34.96
177.00 35.37
178.00 35.85
179.00 36.41
180.00 37.09
181.00 37.91
182.00 38.92
183.00 40.20
184.00 41.89
185.00 44.23
186.00 47.73
187.00 53.55
188.00 55.48
189.00 48.49
190.00 44.01
191.00 40.98
192.00 38.75
193.00 37.03
194.00 35.69
195.00 34.63
196.00 33.82
197.00 33.22
198.00 32.81
199.00 32.59
200.00 32.55
201.00 32.70
202.00 33.04
203.00 33.61
204.00 34.43
205.00 35.57
206.00 37.12
207.00 39.28
208.00 42.46
209.00 47.94
210.00 67.57
211.00 49.63
212.00 43.22
213.00 39.69
214.00 37.32
215.00 35.62
216.00 34.35
217.00 33.42
218.00 32.74
219.00 32.28
220.00 32.02
221.00 31.93
222.00 32.01
223.00 32.26
224.00 32.67
225.00 33.26
226.00 34.02
227.00 34.97
228.00 36.14
229.00 37.50
230.00 39.05
231.00 40.65
232.00 41.96
233.00 42.44
234.00 41.89
235.00 40.73
236.00 39.42
237.00 38.20
238.00 37.13
239.00 36.20
240.00 35.39
241.00 34.67
242.00 34.01
243.00 33.38
244.00 32.77
245.00 32.16
246.00 31.55
247.00 30.94
248.00 30.33
249.00 29.73
250.00 29.14
251.00 28.57
252.00 28.04
253.00 27.54
254.00 27.08
255.00 26.67
256.00 26.30
257.00 25.98
258.00 25.71
259.00 25.49
260.00 25.31
261.00 25.19
262.00 25.11
263.00 25.08
264.00 25.08
265.00 25.11
266.00 25.16
267.00 25.21
268.00 25.24
269.00 25.24
270.00 25.17
271.00 25.02
272.00 24.79
273.00 24.45
274.00 24.04
275.00 23.55
276.00 23.01
277.00 22.44
278.00 21.86
279.00 21.28
280.00 20.71
281.00 20.15
282.00 19.62
283.00 19.12
284.00 18.63
285.00 18.17
286.00 17.74
287.00 17.32
288.00 16.92
289.00 16.53
290.00 16.16
291.00 15.80
292.00 15.45
293.00 15.10
294.00 14.76
295.00 14.43
296.00 14.10
297.00 13.77
298.00 13.45
299.00 13.13
300.00 12.80
301.00 12.48
302.00 12.16
303.00 11.84
304.00 11.51
305.00 11.18
306.00 10.84
307.00 10.50
308.00 10.15
309.00 9.80
310.00 9.44
311.00 9.08
312.00 8.71
313.00 8.34
314.00 7.96
315.00 7.60
316.00 7.23
317.00 6.87
318.00 6.51
319.00 6.17
320.00 5.84
321.00 5.52
322.00 5.21
323.00 4.91
324.00 4.63
325.00 4.37
326.00 4.12
327.00 3.88
328.00 3.65
329.00 3.44
330.00 3.24
331.00 3.05
332.00 2.87
333.00 2.69
334.00 2.53
335.00 2.37
336.00 2.22
337.00 2.07
338.00 1.93
339.00 1.79
340.00 1.65
341.00 1.53
342.00 1.40
343.00 1.28
344.00 1.16
345.00 1.04
346.00 0.93
347.00 0.83
348.00 0.73
349.00 0.63
350.00 0.54
351.00 0.45
352.00 0.37
353.00 0.30
354.00 0.24
355.00 0.18
356.00 0.13
357.00 0.09
358.00 0.05
359.00 0.03
VERTICAL 360
0.00 2.77
1.00 0.78
2.00 0.00
3.00 0.45
4.00 2.27
5.00 5.97
6.00 13.41
7.00 22.05
8.00 12.89
9.00 11.13
10.00 12.75
11.00 16.47
12.00 16.29
13.00 13.84
14.00 13.70
15.00 16.18
16.00 20.41
17.00 18.80
18.00 15.85
19.00 15.63
20.00 18.64
21.00 28.05
22.00 23.29
23.00 17.54
24.00 15.92
25.00 16.57
26.00 19.10
27.00 23.83
28.00 31.73
29.00 29.70
30.00 24.52
31.00 21.89
32.00 20.47
33.00 19.79
34.00 19.92
35.00 21.30
36.00 24.52
37.00 28.51
38.00 25.40
39.00 21.74
40.00 20.33
41.00 20.94
42.00 23.70
43.00 29.68
44.00 38.08
45.00 29.64
46.00 25.31
47.00 23.28
48.00 22.91
49.00 24.15
50.00 27.18
51.00 32.42
52.00 36.95
53.00 33.49
54.00 30.58
55.00 29.49
56.00 29.84
57.00 31.02
58.00 32.39
59.00 33.73
60.00 34.11
61.00 33.32
62.00 32.54
63.00 31.44
64.00 29.77
65.00 28.35
66.00 27.52
67.00 27.09
68.00 26.66
69.00 26.09
70.00 25.66
71.00 25.61
72.00 25.90
73.00 26.27
74.00 26.40
75.00 26.30
76.00 26.38
77.00 27.04
78.00 28.43
79.00 30.40
80.00 32.19
81.00 33.12
82.00 34.25
83.00 36.74
84.00 37.40
85.00 33.66
86.00 29.66
87.00 26.62
88.00 25.36
89.00 26.48
90.00 30.88
91.00 41.21
92.00 45.34
93.00 49.24
94.00 38.94
95.00 33.86
96.00 33.30
97.00 35.21
98.00 36.90
99.00 35.48
100.00 33.33
101.00 32.64
102.00 33.83
103.00 36.34
104.00 38.23
105.00 37.58
106.00 35.76
107.00 34.76
108.00 35.02
109.00 35.78
110.00 35.76
111.00 34.60
112.00 33.24
113.00 32.55
114.00 32.71
115.00 33.26
116.00 33.33
117.00 32.48
118.00 31.50
119.00 31.26
120.00 31.93
121.00 32.86
122.00 33.32
123.00 33.60
124.00 34.31
125.00 35.53
126.00 36.98
127.00 38.36
128.00 39.32
129.00 39.73
130.00 39.56
131.00 38.85
132.00 38.25
133.00 38.40
134.00 39.15
135.00 40.42
136.00 42.99
137.00 46.16
138.00 43.59
139.00 39.60
140.00 36.69
141.00 34.93
142.00 34.40
143.00 34.83
144.00 35.62
145.00 36.28
146.00 37.15
147.00 39.29
148.00 43.67
149.00 44.33
150.00 40.42
151.00 39.09
152.00 39.58
153.00 39.46
154.00 36.96
155.00 34.20
156.00 32.51
157.00 32.11
158.00 32.91
159.00 34.50
160.00 36.24
161.00 38.01
162.00 39.96
163.00 41.36
164.00 42.21
165.00 43.01
166.00 41.80
167.00 39.25
168.00 37.87
169.00 38.49
170.00 41.53
171.00 43.25
172.00 39.93
173.00 39.31
174.00 42.85
175.00 45.23
176.00 40.92
177.00 39.36
178.00 38.92
179.00 39.32
180.00 40.27
181.00 37.44
182.00 34.67
183.00 34.57
184.00 37.15
185.00 41.53
186.00 40.61
187.00 36.80
188.00 34.86
189.00 34.59
190.00 35.07
191.00 35.17
192.00 34.73
193.00 34.11
194.00 33.52
195.00 33.53
196.00 34.15
197.00 33.93
198.00 33.14
199.00 33.83
200.00 36.81
201.00 41.60
202.00 43.30
203.00 40.04
204.00 38.60
205.00 41.02
206.00 42.61
207.00 37.10
208.00 34.55
209.00 34.31
210.00 35.88
211.00 40.45
212.00 49.75
213.00 42.56
214.00 40.78
215.00 43.85
216.00 51.19
217.00 46.46
218.00 41.14
219.00 38.88
220.00 39.66
221.00 45.60
222.00 52.56
223.00 40.64
224.00 36.41
225.00 33.59
226.00 31.81
227.00 31.44
228.00 32.32
229.00 33.44
230.00 33.78
231.00 34.11
232.00 35.52
233.00 38.30
234.00 40.35
235.00 39.23
236.00 38.36
237.00 39.21
238.00 41.93
239.00 47.39
240.00 60.47
241.00 51.79
242.00 47.02
243.00 45.96
244.00 48.35
245.00 57.67
246.00 46.61
247.00 40.03
248.00 36.22
249.00 33.82
250.00 32.84
251.00 33.50
252.00 35.86
253.00 38.90
254.00 39.04
255.00 37.15
256.00 36.30
257.00 37.22
258.00 39.77
259.00 42.18
260.00 41.43
261.00 39.36
262.00 38.01
263.00 37.26
264.00 36.09
265.00 34.59
266.00 34.25
267.00 36.75
268.00 48.48
269.00 38.06
270.00 30.55
271.00 26.80
272.00 24.95
273.00 24.66
274.00 25.76
275.00 28.13
276.00 31.99
277.00 38.67
278.00 45.08
279.00 39.89
280.00 35.29
281.00 31.00
282.00 28.19
283.00 26.65
284.00 25.78
285.00 25.18
286.00 24.57
287.00 23.72
288.00 22.47
289.00 20.93
290.00 19.41
291.00 18.15
292.00 17.21
293.00 16.47
294.00 15.78
295.00 15.10
296.00 14.52
297.00 14.16
298.00 14.12
299.00 14.54
300.00 15.56
301.00 17.42
302.00 20.56
303.00 26.18
304.00 38.33
305.00 28.08
306.00 22.89
307.00 20.58
308.00 19.88
309.00 20.59
310.00 22.88
311.00 26.71
312.00 26.42
313.00 22.52
314.00 20.64
315.00 20.94
316.00 23.39
317.00 27.59
318.00 27.64
319.00 23.64
320.00 21.10
321.00 20.51
322.00 22.50
323.00 29.92
324.00 28.47
325.00 20.31
326.00 16.87
327.00 15.46
328.00 15.51
329.00 17.10
330.00 20.62
331.00 25.77
332.00 27.41
333.00 24.51
334.00 20.40
335.00 17.03
336.00 15.22
337.00 15.08
338.00 16.94
339.00 22.32
340.00 47.92
341.00 22.60
342.00 19.01
343.00 19.42
344.00 23.88
345.00 36.68
346.00 23.66
347.00 19.70
348.00 19.43
349.00 22.32
350.00 29.66
351.00 26.08
352.00 21.23
353.00 20.15
354.00 21.79
355.00 26.41
356.00 28.17
357.00 18.12
358.00 11.02
359.00 6.10
