NAME ATR4518R7_2350_X_CO_P45_10T_yyR
FREQUENCY 2350
GAIN 14.76 dBd
TILT	ELECTRICAL
COMMENT DATE 05.08.2013 +45 degrees polarized system Lever position 10T deg
HORIZONTAL 360
0.00 0.07
1.00 0.10
2.00 0.14
3.00 0.17
4.00 0.22
5.00 0.26
6.00 0.30
7.00 0.35
8.00 0.39
9.00 0.44
10.00 0.49
11.00 0.55
12.00 0.61
13.00 0.67
14.00 0.73
15.00 0.81
16.00 0.88
17.00 0.97
18.00 1.06
19.00 1.15
20.00 1.26
21.00 1.37
22.00 1.50
23.00 1.63
24.00 1.76
25.00 1.91
26.00 2.07
27.00 2.23
28.00 2.41
29.00 2.59
30.00 2.77
31.00 2.97
32.00 3.17
33.00 3.37
34.00 3.58
35.00 3.79
36.00 4.01
37.00 4.23
38.00 4.45
39.00 4.67
40.00 4.90
41.00 5.13
42.00 5.36
43.00 5.60
44.00 5.84
45.00 6.09
46.00 6.34
47.00 6.60
48.00 6.87
49.00 7.15
50.00 7.43
51.00 7.74
52.00 8.05
53.00 8.38
54.00 8.72
55.00 9.08
56.00 9.45
57.00 9.84
58.00 10.25
59.00 10.67
60.00 11.11
61.00 11.56
62.00 12.03
63.00 12.51
64.00 13.00
65.00 13.51
66.00 14.03
67.00 14.56
68.00 15.09
69.00 15.64
70.00 16.19
71.00 16.75
72.00 17.31
73.00 17.89
74.00 18.47
75.00 19.06
76.00 19.66
77.00 20.27
78.00 20.91
79.00 21.56
80.00 22.23
81.00 22.94
82.00 23.67
83.00 24.44
84.00 25.25
85.00 26.10
86.00 26.99
87.00 27.92
88.00 28.91
89.00 29.93
90.00 30.98
91.00 32.06
92.00 33.13
93.00 34.18
94.00 35.17
95.00 36.07
96.00 36.85
97.00 37.51
98.00 38.08
99.00 38.58
100.00 39.07
101.00 39.60
102.00 40.20
103.00 40.92
104.00 41.79
105.00 42.79
106.00 43.88
107.00 44.88
108.00 45.46
109.00 45.23
110.00 44.24
111.00 42.81
112.00 41.32
113.00 39.93
114.00 38.69
115.00 37.63
116.00 36.70
117.00 35.93
118.00 35.27
119.00 34.73
120.00 34.30
121.00 33.96
122.00 33.72
123.00 33.56
124.00 33.49
125.00 33.50
126.00 33.59
127.00 33.77
128.00 34.05
129.00 34.42
130.00 34.90
131.00 35.50
132.00 36.24
133.00 37.14
134.00 38.24
135.00 39.53
136.00 41.02
137.00 42.55
138.00 43.64
139.00 43.59
140.00 42.32
141.00 40.52
142.00 38.74
143.00 37.14
144.00 35.77
145.00 34.59
146.00 33.61
147.00 32.78
148.00 32.09
149.00 31.54
150.00 31.10
151.00 30.78
152.00 30.55
153.00 30.42
154.00 30.39
155.00 30.43
156.00 30.55
157.00 30.74
158.00 30.99
159.00 31.28
160.00 31.60
161.00 31.92
162.00 32.22
163.00 32.48
164.00 32.68
165.00 32.81
166.00 32.88
167.00 32.91
168.00 32.91
169.00 32.92
170.00 32.96
171.00 33.05
172.00 33.22
173.00 33.50
174.00 33.89
175.00 34.41
176.00 35.10
177.00 35.97
178.00 37.06
179.00 38.44
180.00 40.18
181.00 42.43
182.00 45.50
183.00 50.07
184.00 57.16
185.00 54.69
186.00 48.96
187.00 45.53
188.00 43.23
189.00 41.56
190.00 40.26
191.00 39.18
192.00 38.24
193.00 37.35
194.00 36.49
195.00 35.63
196.00 34.76
197.00 33.91
198.00 33.07
199.00 32.29
200.00 31.56
201.00 30.90
202.00 30.33
203.00 29.84
204.00 29.45
205.00 29.16
206.00 28.97
207.00 28.88
208.00 28.91
209.00 29.05
210.00 29.32
211.00 29.72
212.00 30.26
213.00 30.95
214.00 31.80
215.00 32.84
216.00 34.05
217.00 35.39
218.00 36.73
219.00 37.74
220.00 38.00
221.00 37.40
222.00 36.30
223.00 35.06
224.00 33.92
225.00 32.94
226.00 32.14
227.00 31.52
228.00 31.06
229.00 30.75
230.00 30.59
231.00 30.56
232.00 30.66
233.00 30.89
234.00 31.24
235.00 31.73
236.00 32.35
237.00 33.12
238.00 34.04
239.00 35.15
240.00 36.47
241.00 38.06
242.00 40.01
243.00 42.50
244.00 45.92
245.00 51.39
246.00 68.10
247.00 54.72
248.00 47.96
249.00 44.30
250.00 41.76
251.00 39.83
252.00 38.27
253.00 36.97
254.00 35.85
255.00 34.87
256.00 34.02
257.00 33.27
258.00 32.61
259.00 32.03
260.00 31.53
261.00 31.10
262.00 30.72
263.00 30.38
264.00 30.09
265.00 29.81
266.00 29.55
267.00 29.28
268.00 28.98
269.00 28.65
270.00 28.27
271.00 27.84
272.00 27.35
273.00 26.81
274.00 26.22
275.00 25.61
276.00 24.97
277.00 24.33
278.00 23.69
279.00 23.06
280.00 22.44
281.00 21.83
282.00 21.25
283.00 20.68
284.00 20.13
285.00 19.61
286.00 19.09
287.00 18.60
288.00 18.12
289.00 17.65
290.00 17.20
291.00 16.75
292.00 16.31
293.00 15.88
294.00 15.46
295.00 15.04
296.00 14.62
297.00 14.22
298.00 13.81
299.00 13.41
300.00 13.02
301.00 12.62
302.00 12.24
303.00 11.86
304.00 11.48
305.00 11.12
306.00 10.76
307.00 10.41
308.00 10.06
309.00 9.72
310.00 9.39
311.00 9.06
312.00 8.75
313.00 8.44
314.00 8.14
315.00 7.84
316.00 7.54
317.00 7.26
318.00 6.97
319.00 6.69
320.00 6.41
321.00 6.14
322.00 5.86
323.00 5.58
324.00 5.31
325.00 5.04
326.00 4.77
327.00 4.49
328.00 4.22
329.00 3.96
330.00 3.69
331.00 3.43
332.00 3.17
333.00 2.91
334.00 2.67
335.00 2.42
336.00 2.19
337.00 1.97
338.00 1.75
339.00 1.55
340.00 1.35
341.00 1.17
342.00 1.00
343.00 0.85
344.00 0.71
345.00 0.58
346.00 0.46
347.00 0.36
348.00 0.27
349.00 0.20
350.00 0.14
351.00 0.09
352.00 0.05
353.00 0.02
354.00 0.01
355.00 0.00
356.00 0.00
357.00 0.01
358.00 0.02
359.00 0.05
VERTICAL 360
0.00 22.86
1.00 23.17
2.00 23.38
3.00 20.95
4.00 15.83
5.00 10.85
6.00 6.85
7.00 3.83
8.00 1.69
9.00 0.40
10.00 0.00
11.00 0.57
12.00 2.35
13.00 5.87
14.00 13.16
15.00 35.07
16.00 13.34
17.00 10.31
18.00 10.51
19.00 13.04
20.00 17.69
21.00 19.96
22.00 17.14
23.00 15.95
24.00 17.20
25.00 20.62
26.00 21.58
27.00 18.29
28.00 16.88
29.00 18.05
30.00 22.55
31.00 33.56
32.00 25.22
33.00 19.36
34.00 17.00
35.00 16.58
36.00 17.97
37.00 21.68
38.00 28.62
39.00 27.96
40.00 22.90
41.00 21.03
42.00 21.20
43.00 23.31
44.00 28.17
45.00 35.99
46.00 32.91
47.00 30.04
48.00 29.82
49.00 30.81
50.00 33.92
51.00 36.79
52.00 30.29
53.00 26.06
54.00 24.36
55.00 24.36
56.00 25.61
57.00 27.66
58.00 29.94
59.00 31.40
60.00 30.43
61.00 28.52
62.00 27.36
63.00 27.01
64.00 27.11
65.00 27.38
66.00 27.80
67.00 28.57
68.00 29.78
69.00 31.27
70.00 32.52
71.00 32.92
72.00 32.59
73.00 32.05
74.00 31.45
75.00 30.74
76.00 30.00
77.00 29.30
78.00 28.39
79.00 27.44
80.00 27.01
81.00 27.25
82.00 28.04
83.00 29.10
84.00 29.13
85.00 27.81
86.00 26.28
87.00 25.55
88.00 25.88
89.00 26.81
90.00 27.63
91.00 27.94
92.00 27.73
93.00 27.53
94.00 27.77
95.00 27.84
96.00 27.06
97.00 26.14
98.00 25.96
99.00 26.86
100.00 29.05
101.00 32.26
102.00 33.71
103.00 32.33
104.00 31.93
105.00 33.87
106.00 38.72
107.00 45.91
108.00 47.50
109.00 44.99
110.00 42.27
111.00 40.04
112.00 38.44
113.00 38.43
114.00 40.57
115.00 43.71
116.00 44.25
117.00 41.96
118.00 40.37
119.00 40.78
120.00 42.12
121.00 43.08
122.00 41.70
123.00 37.82
124.00 35.66
125.00 35.25
126.00 35.23
127.00 35.92
128.00 39.37
129.00 47.05
130.00 45.09
131.00 42.48
132.00 42.87
133.00 42.32
134.00 39.44
135.00 36.39
136.00 34.61
137.00 34.18
138.00 34.67
139.00 35.70
140.00 37.44
141.00 40.77
142.00 47.16
143.00 47.37
144.00 42.13
145.00 40.95
146.00 43.24
147.00 45.49
148.00 40.65
149.00 37.32
150.00 35.72
151.00 34.55
152.00 33.96
153.00 34.99
154.00 38.70
155.00 46.18
156.00 45.69
157.00 41.89
158.00 41.70
159.00 44.04
160.00 45.44
161.00 39.50
162.00 34.80
163.00 32.71
164.00 32.99
165.00 35.77
166.00 40.76
167.00 41.49
168.00 37.78
169.00 35.51
170.00 34.73
171.00 35.07
172.00 36.30
173.00 38.81
174.00 42.99
175.00 46.21
176.00 46.04
177.00 44.86
178.00 43.52
179.00 44.73
180.00 53.15
181.00 44.96
182.00 37.57
183.00 35.28
184.00 36.14
185.00 38.30
186.00 37.66
187.00 37.26
188.00 39.94
189.00 40.97
190.00 37.72
191.00 36.64
192.00 36.37
193.00 35.47
194.00 35.64
195.00 38.02
196.00 41.93
197.00 44.42
198.00 43.41
199.00 40.76
200.00 37.99
201.00 35.43
202.00 34.55
203.00 36.52
204.00 40.86
205.00 40.59
206.00 39.62
207.00 42.48
208.00 50.98
209.00 49.76
210.00 40.32
211.00 37.23
212.00 37.79
213.00 41.45
214.00 45.62
215.00 42.19
216.00 37.43
217.00 34.79
218.00 33.98
219.00 34.30
220.00 34.59
221.00 33.97
222.00 33.14
223.00 33.09
224.00 33.90
225.00 34.94
226.00 35.49
227.00 35.49
228.00 35.10
229.00 34.42
230.00 33.80
231.00 33.71
232.00 34.50
233.00 36.17
234.00 37.07
235.00 35.18
236.00 32.70
237.00 30.90
238.00 29.75
239.00 29.18
240.00 29.19
241.00 29.70
242.00 30.70
243.00 32.41
244.00 35.52
245.00 41.82
246.00 53.74
247.00 44.96
248.00 42.75
249.00 43.79
250.00 45.27
251.00 45.10
252.00 44.07
253.00 44.26
254.00 46.30
255.00 46.48
256.00 42.77
257.00 39.65
258.00 37.66
259.00 36.66
260.00 36.70
261.00 37.74
262.00 38.83
263.00 38.24
264.00 36.97
265.00 36.46
266.00 36.29
267.00 35.69
268.00 34.87
269.00 34.70
270.00 35.88
271.00 38.98
272.00 45.77
273.00 58.36
274.00 43.02
275.00 39.10
276.00 38.37
277.00 39.82
278.00 45.33
279.00 47.39
280.00 38.00
281.00 35.52
282.00 36.80
283.00 38.17
284.00 35.80
285.00 34.68
286.00 35.38
287.00 34.84
288.00 32.24
289.00 30.34
290.00 30.17
291.00 31.94
292.00 33.52
293.00 30.97
294.00 27.52
295.00 24.58
296.00 22.05
297.00 19.87
298.00 18.05
299.00 16.58
300.00 15.42
301.00 14.58
302.00 14.06
303.00 13.94
304.00 14.27
305.00 15.03
306.00 16.13
307.00 17.52
308.00 19.11
309.00 20.80
310.00 22.06
311.00 21.24
312.00 18.75
313.00 17.39
314.00 17.54
315.00 19.31
316.00 22.83
317.00 26.52
318.00 25.35
319.00 23.24
320.00 23.01
321.00 25.18
322.00 32.33
323.00 32.14
324.00 23.23
325.00 19.78
326.00 18.92
327.00 20.26
328.00 24.65
329.00 32.30
330.00 24.60
331.00 19.39
332.00 17.07
333.00 16.66
334.00 18.24
335.00 21.61
336.00 20.54
337.00 16.46
338.00 13.64
339.00 12.25
340.00 12.21
341.00 13.44
342.00 15.88
343.00 19.55
344.00 24.06
345.00 25.77
346.00 22.49
347.00 19.86
348.00 18.49
349.00 18.27
350.00 19.37
351.00 22.28
352.00 25.61
353.00 22.45
354.00 19.11
355.00 18.42
356.00 20.17
357.00 23.77
358.00 25.35
359.00 23.65
