NAME ATR4518R7_2535_X_CO_P45_05T_yyR
FREQUENCY 2535
GAIN 15.37 dBd
TILT	ELECTRICAL
COMMENT DATE 05.08.2013 +45 degrees polarized system Lever position 05T deg
HORIZONTAL 360
0.00 0.01
1.00 0.02
2.00 0.05
3.00 0.08
4.00 0.12
5.00 0.17
6.00 0.23
7.00 0.29
8.00 0.36
9.00 0.44
10.00 0.52
11.00 0.61
12.00 0.70
13.00 0.79
14.00 0.89
15.00 0.98
16.00 1.08
17.00 1.18
18.00 1.27
19.00 1.37
20.00 1.47
21.00 1.56
22.00 1.66
23.00 1.76
24.00 1.87
25.00 1.97
26.00 2.08
27.00 2.20
28.00 2.32
29.00 2.45
30.00 2.59
31.00 2.74
32.00 2.90
33.00 3.07
34.00 3.25
35.00 3.44
36.00 3.64
37.00 3.86
38.00 4.08
39.00 4.33
40.00 4.58
41.00 4.85
42.00 5.12
43.00 5.41
44.00 5.72
45.00 6.03
46.00 6.36
47.00 6.70
48.00 7.06
49.00 7.43
50.00 7.82
51.00 8.22
52.00 8.63
53.00 9.07
54.00 9.52
55.00 10.00
56.00 10.48
57.00 10.99
58.00 11.52
59.00 12.07
60.00 12.63
61.00 13.20
62.00 13.79
63.00 14.39
64.00 14.99
65.00 15.59
66.00 16.18
67.00 16.75
68.00 17.31
69.00 17.84
70.00 18.35
71.00 18.83
72.00 19.29
73.00 19.74
74.00 20.18
75.00 20.62
76.00 21.08
77.00 21.57
78.00 22.09
79.00 22.67
80.00 23.30
81.00 24.01
82.00 24.79
83.00 25.65
84.00 26.59
85.00 27.60
86.00 28.63
87.00 29.61
88.00 30.44
89.00 30.99
90.00 31.17
91.00 31.00
92.00 30.58
93.00 30.05
94.00 29.51
95.00 29.02
96.00 28.61
97.00 28.31
98.00 28.10
99.00 28.00
100.00 28.00
101.00 28.09
102.00 28.27
103.00 28.52
104.00 28.83
105.00 29.20
106.00 29.59
107.00 30.01
108.00 30.42
109.00 30.80
110.00 31.16
111.00 31.48
112.00 31.78
113.00 32.08
114.00 32.40
115.00 32.78
116.00 33.24
117.00 33.83
118.00 34.60
119.00 35.59
120.00 36.87
121.00 38.54
122.00 40.74
123.00 43.56
124.00 46.24
125.00 45.75
126.00 42.70
127.00 39.81
128.00 37.55
129.00 35.80
130.00 34.45
131.00 33.40
132.00 32.61
133.00 32.03
134.00 31.65
135.00 31.46
136.00 31.43
137.00 31.58
138.00 31.91
139.00 32.43
140.00 33.16
141.00 34.12
142.00 35.36
143.00 36.95
144.00 38.98
145.00 41.56
146.00 44.62
147.00 46.71
148.00 45.41
149.00 42.71
150.00 40.43
151.00 38.72
152.00 37.47
153.00 36.58
154.00 36.00
155.00 35.66
156.00 35.53
157.00 35.58
158.00 35.78
159.00 36.08
160.00 36.42
161.00 36.73
162.00 36.90
163.00 36.85
164.00 36.58
165.00 36.10
166.00 35.53
167.00 34.93
168.00 34.38
169.00 33.92
170.00 33.59
171.00 33.39
172.00 33.34
173.00 33.45
174.00 33.73
175.00 34.20
176.00 34.88
177.00 35.79
178.00 36.97
179.00 38.47
180.00 40.34
181.00 42.53
182.00 44.59
183.00 45.23
184.00 43.92
185.00 41.94
186.00 40.16
187.00 38.75
188.00 37.71
189.00 36.98
190.00 36.53
191.00 36.33
192.00 36.39
193.00 36.69
194.00 37.25
195.00 38.10
196.00 39.30
197.00 40.95
198.00 43.21
199.00 46.37
200.00 50.52
201.00 52.01
202.00 48.16
203.00 44.63
204.00 42.13
205.00 40.34
206.00 39.05
207.00 38.14
208.00 37.52
209.00 37.18
210.00 37.07
211.00 37.17
212.00 37.49
213.00 38.03
214.00 38.77
215.00 39.70
216.00 40.75
217.00 41.74
218.00 42.36
219.00 42.27
220.00 41.47
221.00 40.27
222.00 38.99
223.00 37.80
224.00 36.77
225.00 35.90
226.00 35.19
227.00 34.63
228.00 34.21
229.00 33.90
230.00 33.71
231.00 33.63
232.00 33.63
233.00 33.72
234.00 33.89
235.00 34.13
236.00 34.43
237.00 34.78
238.00 35.16
239.00 35.58
240.00 36.02
241.00 36.45
242.00 36.87
243.00 37.27
244.00 37.61
245.00 37.90
246.00 38.11
247.00 38.23
248.00 38.26
249.00 38.21
250.00 38.08
251.00 37.90
252.00 37.69
253.00 37.50
254.00 37.32
255.00 37.22
256.00 37.19
257.00 37.28
258.00 37.50
259.00 37.91
260.00 38.55
261.00 39.48
262.00 40.85
263.00 42.88
264.00 46.11
265.00 52.25
266.00 58.97
267.00 47.86
268.00 42.41
269.00 38.85
270.00 36.19
271.00 34.06
272.00 32.28
273.00 30.76
274.00 29.44
275.00 28.27
276.00 27.23
277.00 26.30
278.00 25.45
279.00 24.67
280.00 23.96
281.00 23.29
282.00 22.67
283.00 22.07
284.00 21.51
285.00 20.96
286.00 20.42
287.00 19.90
288.00 19.37
289.00 18.85
290.00 18.33
291.00 17.80
292.00 17.28
293.00 16.75
294.00 16.21
295.00 15.68
296.00 15.15
297.00 14.62
298.00 14.09
299.00 13.57
300.00 13.05
301.00 12.54
302.00 12.03
303.00 11.54
304.00 11.05
305.00 10.57
306.00 10.11
307.00 9.65
308.00 9.21
309.00 8.77
310.00 8.35
311.00 7.94
312.00 7.54
313.00 7.16
314.00 6.78
315.00 6.42
316.00 6.07
317.00 5.73
318.00 5.40
319.00 5.08
320.00 4.78
321.00 4.48
322.00 4.21
323.00 3.94
324.00 3.68
325.00 3.44
326.00 3.20
327.00 2.98
328.00 2.77
329.00 2.58
330.00 2.39
331.00 2.22
332.00 2.05
333.00 1.90
334.00 1.76
335.00 1.62
336.00 1.50
337.00 1.38
338.00 1.27
339.00 1.16
340.00 1.07
341.00 0.97
342.00 0.88
343.00 0.80
344.00 0.72
345.00 0.64
346.00 0.56
347.00 0.49
348.00 0.42
349.00 0.36
350.00 0.30
351.00 0.24
352.00 0.19
353.00 0.14
354.00 0.10
355.00 0.06
356.00 0.04
357.00 0.02
358.00 0.00
359.00 0.00
VERTICAL 360
0.00 15.48
1.00 9.49
2.00 5.04
3.00 2.12
4.00 0.48
5.00 0.00
6.00 0.71
7.00 2.84
8.00 7.11
9.00 17.26
10.00 22.60
11.00 12.98
12.00 12.18
13.00 15.21
14.00 20.08
15.00 16.34
16.00 12.57
17.00 11.70
18.00 13.24
19.00 17.91
20.00 29.47
21.00 23.45
22.00 18.61
23.00 18.66
24.00 23.21
25.00 33.50
26.00 22.32
27.00 18.00
28.00 17.28
29.00 18.70
30.00 21.42
31.00 23.96
32.00 25.39
33.00 25.26
34.00 22.37
35.00 19.27
36.00 17.59
37.00 17.34
38.00 18.32
39.00 20.57
40.00 24.93
41.00 31.69
42.00 26.44
43.00 21.61
44.00 20.42
45.00 22.00
46.00 26.86
47.00 36.56
48.00 33.58
49.00 28.60
50.00 26.36
51.00 25.55
52.00 26.34
53.00 28.83
54.00 31.00
55.00 29.41
56.00 27.14
57.00 25.89
58.00 25.42
59.00 25.67
60.00 27.03
61.00 30.32
62.00 36.69
63.00 39.16
64.00 34.12
65.00 31.47
66.00 30.14
67.00 29.49
68.00 29.42
69.00 29.84
70.00 30.45
71.00 30.74
72.00 30.63
73.00 30.58
74.00 31.19
75.00 32.68
76.00 34.42
77.00 36.35
78.00 40.60
79.00 39.75
80.00 33.06
81.00 30.06
82.00 29.39
83.00 29.93
84.00 30.48
85.00 30.18
86.00 29.67
87.00 30.41
88.00 33.12
89.00 36.27
90.00 35.35
91.00 31.44
92.00 28.36
93.00 27.72
94.00 30.07
95.00 35.21
96.00 36.99
97.00 34.49
98.00 31.78
99.00 30.58
100.00 32.69
101.00 39.60
102.00 42.46
103.00 42.09
104.00 48.94
105.00 42.51
106.00 40.58
107.00 44.20
108.00 50.91
109.00 48.79
110.00 41.10
111.00 37.87
112.00 37.35
113.00 38.05
114.00 39.62
115.00 40.97
116.00 39.61
117.00 38.84
118.00 40.47
119.00 42.46
120.00 42.06
121.00 42.52
122.00 46.20
123.00 43.47
124.00 38.69
125.00 37.82
126.00 38.13
127.00 37.39
128.00 37.99
129.00 40.84
130.00 41.57
131.00 39.92
132.00 38.29
133.00 37.16
134.00 36.93
135.00 35.75
136.00 34.64
137.00 35.48
138.00 37.29
139.00 39.38
140.00 42.11
141.00 37.47
142.00 33.99
143.00 33.89
144.00 34.36
145.00 33.26
146.00 32.59
147.00 33.12
148.00 33.97
149.00 34.17
150.00 34.04
151.00 34.91
152.00 37.15
153.00 39.05
154.00 38.72
155.00 37.59
156.00 37.41
157.00 38.30
158.00 38.62
159.00 38.91
160.00 41.43
161.00 46.16
162.00 51.63
163.00 60.77
164.00 49.47
165.00 47.35
166.00 48.41
167.00 45.34
168.00 42.84
169.00 41.83
170.00 40.99
171.00 41.50
172.00 45.46
173.00 52.64
174.00 44.03
175.00 38.47
176.00 35.56
177.00 34.21
178.00 33.94
179.00 34.92
180.00 36.77
181.00 36.41
182.00 34.15
183.00 33.46
184.00 34.77
185.00 37.51
186.00 40.33
187.00 40.60
188.00 38.93
189.00 37.94
190.00 38.06
191.00 38.88
192.00 39.71
193.00 40.35
194.00 40.94
195.00 40.60
196.00 39.44
197.00 39.71
198.00 43.98
199.00 52.69
200.00 42.82
201.00 39.23
202.00 38.37
203.00 37.69
204.00 37.09
205.00 37.40
206.00 38.77
207.00 40.49
208.00 41.57
209.00 44.08
210.00 55.02
211.00 48.31
212.00 42.01
213.00 41.07
214.00 44.00
215.00 50.94
216.00 47.35
217.00 45.34
218.00 45.49
219.00 43.02
220.00 41.89
221.00 40.73
222.00 38.73
223.00 38.65
224.00 40.47
225.00 41.03
226.00 38.08
227.00 34.68
228.00 33.00
229.00 33.13
230.00 34.20
231.00 35.16
232.00 35.58
233.00 35.52
234.00 35.22
235.00 34.77
236.00 34.14
237.00 33.30
238.00 32.50
239.00 32.37
240.00 33.21
241.00 34.61
242.00 36.16
243.00 37.98
244.00 39.79
245.00 41.15
246.00 41.60
247.00 39.25
248.00 36.16
249.00 34.77
250.00 35.12
251.00 35.81
252.00 35.12
253.00 33.32
254.00 31.62
255.00 31.16
256.00 32.61
257.00 35.75
258.00 39.06
259.00 43.11
260.00 53.65
261.00 52.83
262.00 58.86
263.00 45.71
264.00 37.59
265.00 35.01
266.00 35.70
267.00 39.04
268.00 42.04
269.00 39.56
270.00 35.17
271.00 32.11
272.00 30.76
273.00 30.69
274.00 32.11
275.00 36.98
276.00 45.16
277.00 38.31
278.00 36.92
279.00 39.66
280.00 46.02
281.00 53.54
282.00 37.11
283.00 33.67
284.00 34.89
285.00 41.09
286.00 55.85
287.00 56.05
288.00 56.32
289.00 48.82
290.00 38.98
291.00 32.00
292.00 27.28
293.00 23.85
294.00 21.24
295.00 19.17
296.00 17.48
297.00 16.04
298.00 14.78
299.00 13.70
300.00 12.87
301.00 12.34
302.00 12.10
303.00 12.13
304.00 12.53
305.00 13.57
306.00 15.67
307.00 19.57
308.00 27.27
309.00 28.90
310.00 21.58
311.00 18.53
312.00 17.75
313.00 18.81
314.00 21.87
315.00 26.38
316.00 25.83
317.00 22.04
318.00 20.03
319.00 19.79
320.00 21.49
321.00 25.99
322.00 29.99
323.00 24.44
324.00 20.96
325.00 20.23
326.00 22.06
327.00 26.45
328.00 24.98
329.00 20.00
330.00 17.88
331.00 18.18
332.00 21.28
333.00 31.81
334.00 26.63
335.00 18.73
336.00 15.84
337.00 15.36
338.00 17.03
339.00 21.44
340.00 26.95
341.00 24.30
342.00 22.89
343.00 26.33
344.00 32.43
345.00 24.80
346.00 20.76
347.00 19.85
348.00 21.02
349.00 24.31
350.00 30.20
351.00 33.03
352.00 30.52
353.00 29.89
354.00 27.16
355.00 22.88
356.00 20.04
357.00 18.80
358.00 19.05
359.00 19.56
