NAME ATR4518R7_2140_X_CO_P45_06T_yL
FREQUENCY 2140
GAIN 15.50 dBd
TILT	ELECTRICAL
COMMENT DATE 05.08.2013 +45 degrees polarized system Lever position 06T deg
HORIZONTAL 360
0.00 0.00
1.00 0.01
2.00 0.03
3.00 0.05
4.00 0.07
5.00 0.10
6.00 0.14
7.00 0.18
8.00 0.23
9.00 0.29
10.00 0.35
11.00 0.41
12.00 0.48
13.00 0.55
14.00 0.62
15.00 0.70
16.00 0.78
17.00 0.86
18.00 0.94
19.00 1.02
20.00 1.11
21.00 1.20
22.00 1.30
23.00 1.40
24.00 1.50
25.00 1.61
26.00 1.73
27.00 1.86
28.00 1.99
29.00 2.13
30.00 2.28
31.00 2.44
32.00 2.62
33.00 2.80
34.00 3.00
35.00 3.20
36.00 3.42
37.00 3.65
38.00 3.89
39.00 4.15
40.00 4.41
41.00 4.68
42.00 4.96
43.00 5.25
44.00 5.54
45.00 5.85
46.00 6.15
47.00 6.46
48.00 6.78
49.00 7.10
50.00 7.41
51.00 7.73
52.00 8.05
53.00 8.37
54.00 8.69
55.00 9.00
56.00 9.32
57.00 9.63
58.00 9.95
59.00 10.26
60.00 10.58
61.00 10.89
62.00 11.21
63.00 11.53
64.00 11.85
65.00 12.18
66.00 12.51
67.00 12.85
68.00 13.19
69.00 13.54
70.00 13.89
71.00 14.25
72.00 14.62
73.00 15.00
74.00 15.38
75.00 15.76
76.00 16.15
77.00 16.54
78.00 16.93
79.00 17.32
80.00 17.71
81.00 18.09
82.00 18.46
83.00 18.83
84.00 19.18
85.00 19.52
86.00 19.85
87.00 20.16
88.00 20.47
89.00 20.76
90.00 21.04
91.00 21.32
92.00 21.60
93.00 21.88
94.00 22.17
95.00 22.47
96.00 22.79
97.00 23.12
98.00 23.47
99.00 23.84
100.00 24.25
101.00 24.67
102.00 25.13
103.00 25.62
104.00 26.13
105.00 26.67
106.00 27.23
107.00 27.82
108.00 28.40
109.00 28.99
110.00 29.56
111.00 30.09
112.00 30.56
113.00 30.96
114.00 31.27
115.00 31.48
116.00 31.57
117.00 31.57
118.00 31.50
119.00 31.36
120.00 31.19
121.00 31.01
122.00 30.82
123.00 30.67
124.00 30.54
125.00 30.46
126.00 30.43
127.00 30.46
128.00 30.56
129.00 30.72
130.00 30.97
131.00 31.30
132.00 31.71
133.00 32.21
134.00 32.78
135.00 33.41
136.00 34.07
137.00 34.69
138.00 35.20
139.00 35.50
140.00 35.50
141.00 35.21
142.00 34.69
143.00 34.03
144.00 33.34
145.00 32.68
146.00 32.08
147.00 31.58
148.00 31.17
149.00 30.86
150.00 30.66
151.00 30.57
152.00 30.58
153.00 30.70
154.00 30.93
155.00 31.28
156.00 31.74
157.00 32.33
158.00 33.04
159.00 33.89
160.00 34.88
161.00 36.00
162.00 37.25
163.00 38.59
164.00 39.90
165.00 41.02
166.00 41.71
167.00 41.86
168.00 41.57
169.00 41.07
170.00 40.54
171.00 40.10
172.00 39.79
173.00 39.60
174.00 39.54
175.00 39.58
176.00 39.67
177.00 39.75
178.00 39.77
179.00 39.66
180.00 39.39
181.00 38.96
182.00 38.42
183.00 37.81
184.00 37.19
185.00 36.60
186.00 36.07
187.00 35.61
188.00 35.25
189.00 34.97
190.00 34.78
191.00 34.68
192.00 34.65
193.00 34.70
194.00 34.80
195.00 34.94
196.00 35.11
197.00 35.27
198.00 35.41
199.00 35.50
200.00 35.52
201.00 35.46
202.00 35.33
203.00 35.16
204.00 34.95
205.00 34.73
206.00 34.53
207.00 34.36
208.00 34.24
209.00 34.18
210.00 34.19
211.00 34.28
212.00 34.47
213.00 34.74
214.00 35.12
215.00 35.61
216.00 36.23
217.00 37.00
218.00 37.93
219.00 39.09
220.00 40.51
221.00 42.31
222.00 44.68
223.00 47.95
224.00 52.73
225.00 55.88
226.00 50.94
227.00 46.62
228.00 43.61
229.00 41.37
230.00 39.62
231.00 38.21
232.00 37.05
233.00 36.07
234.00 35.27
235.00 34.59
236.00 34.04
237.00 33.60
238.00 33.26
239.00 33.03
240.00 32.88
241.00 32.82
242.00 32.86
243.00 32.97
244.00 33.17
245.00 33.43
246.00 33.74
247.00 34.07
248.00 34.39
249.00 34.63
250.00 34.73
251.00 34.61
252.00 34.28
253.00 33.74
254.00 33.05
255.00 32.26
256.00 31.44
257.00 30.63
258.00 29.85
259.00 29.12
260.00 28.44
261.00 27.81
262.00 27.22
263.00 26.68
264.00 26.18
265.00 25.72
266.00 25.28
267.00 24.86
268.00 24.46
269.00 24.07
270.00 23.69
271.00 23.30
272.00 22.91
273.00 22.52
274.00 22.13
275.00 21.73
276.00 21.32
277.00 20.91
278.00 20.50
279.00 20.09
280.00 19.68
281.00 19.27
282.00 18.87
283.00 18.48
284.00 18.09
285.00 17.71
286.00 17.34
287.00 16.98
288.00 16.63
289.00 16.28
290.00 15.94
291.00 15.61
292.00 15.28
293.00 14.95
294.00 14.62
295.00 14.30
296.00 13.97
297.00 13.63
298.00 13.30
299.00 12.95
300.00 12.61
301.00 12.25
302.00 11.89
303.00 11.52
304.00 11.15
305.00 10.77
306.00 10.39
307.00 10.00
308.00 9.62
309.00 9.24
310.00 8.86
311.00 8.48
312.00 8.11
313.00 7.75
314.00 7.39
315.00 7.04
316.00 6.70
317.00 6.36
318.00 6.04
319.00 5.72
320.00 5.42
321.00 5.12
322.00 4.83
323.00 4.54
324.00 4.27
325.00 4.01
326.00 3.75
327.00 3.50
328.00 3.26
329.00 3.02
330.00 2.80
331.00 2.58
332.00 2.38
333.00 2.18
334.00 1.99
335.00 1.81
336.00 1.64
337.00 1.48
338.00 1.33
339.00 1.19
340.00 1.06
341.00 0.94
342.00 0.82
343.00 0.72
344.00 0.63
345.00 0.54
346.00 0.46
347.00 0.39
348.00 0.33
349.00 0.27
350.00 0.22
351.00 0.18
352.00 0.14
353.00 0.10
354.00 0.07
355.00 0.05
356.00 0.03
357.00 0.02
358.00 0.01
359.00 0.00
VERTICAL 360
0.00 17.59
1.00 11.50
2.00 7.00
3.00 3.82
4.00 1.69
5.00 0.44
6.00 0.00
7.00 0.38
8.00 1.67
9.00 4.08
10.00 8.22
11.00 16.31
12.00 27.01
13.00 15.39
14.00 13.33
15.00 14.48
16.00 18.57
17.00 24.17
18.00 19.62
19.00 16.01
20.00 14.87
21.00 15.71
22.00 18.89
23.00 26.25
24.00 26.78
25.00 21.00
26.00 19.54
27.00 20.93
28.00 25.80
29.00 34.82
30.00 25.50
31.00 21.20
32.00 19.47
33.00 19.04
34.00 19.47
35.00 20.75
36.00 22.96
37.00 24.92
38.00 23.80
39.00 21.88
40.00 21.41
41.00 22.69
42.00 25.23
43.00 25.90
44.00 23.70
45.00 22.08
46.00 21.72
47.00 22.47
48.00 24.27
49.00 27.33
50.00 31.75
51.00 33.31
52.00 30.13
53.00 28.10
54.00 27.67
55.00 28.50
56.00 30.19
57.00 32.00
58.00 33.22
59.00 34.29
60.00 36.08
61.00 37.76
62.00 36.51
63.00 33.95
64.00 32.15
65.00 31.31
66.00 31.29
67.00 31.98
68.00 33.09
69.00 34.21
70.00 34.94
71.00 35.25
72.00 35.43
73.00 35.76
74.00 36.28
75.00 36.85
76.00 37.28
77.00 37.66
78.00 38.37
79.00 39.70
80.00 41.39
81.00 42.49
82.00 42.50
83.00 42.11
84.00 42.25
85.00 43.36
86.00 45.14
87.00 46.63
88.00 47.10
89.00 47.21
90.00 48.79
91.00 51.01
92.00 45.82
93.00 41.28
94.00 39.11
95.00 38.68
96.00 39.85
97.00 43.19
98.00 50.61
99.00 53.90
100.00 49.23
101.00 50.56
102.00 59.23
103.00 55.70
104.00 49.48
105.00 47.65
106.00 47.94
107.00 48.36
108.00 47.22
109.00 46.68
110.00 48.17
111.00 49.95
112.00 47.91
113.00 44.91
114.00 42.39
115.00 40.62
116.00 40.04
117.00 40.82
118.00 42.76
119.00 44.66
120.00 44.17
121.00 42.15
122.00 40.85
123.00 41.15
124.00 43.86
125.00 50.66
126.00 47.15
127.00 41.31
128.00 39.03
129.00 39.10
130.00 41.34
131.00 43.71
132.00 40.33
133.00 36.64
134.00 34.68
135.00 34.13
136.00 34.67
137.00 35.75
138.00 36.24
139.00 35.58
140.00 34.87
141.00 35.01
142.00 36.30
143.00 38.82
144.00 42.58
145.00 46.08
146.00 44.55
147.00 42.77
148.00 43.55
149.00 44.48
150.00 40.56
151.00 37.07
152.00 35.44
153.00 35.27
154.00 36.55
155.00 39.82
156.00 44.77
157.00 43.71
158.00 42.58
159.00 46.20
160.00 47.74
161.00 42.68
162.00 43.22
163.00 52.56
164.00 43.26
165.00 38.16
166.00 37.64
167.00 40.07
168.00 42.32
169.00 41.34
170.00 41.65
171.00 42.72
172.00 40.60
173.00 38.82
174.00 39.55
175.00 43.28
176.00 50.09
177.00 54.42
178.00 47.89
179.00 41.95
180.00 39.45
181.00 40.24
182.00 45.18
183.00 60.13
184.00 53.84
185.00 52.72
186.00 44.09
187.00 39.35
188.00 37.86
189.00 38.15
190.00 38.25
191.00 37.54
192.00 37.64
193.00 39.36
194.00 41.69
195.00 42.20
196.00 42.88
197.00 46.48
198.00 48.94
199.00 45.22
200.00 44.09
201.00 43.39
202.00 41.14
203.00 39.61
204.00 38.96
205.00 37.69
206.00 36.08
207.00 35.39
208.00 35.94
209.00 37.25
210.00 37.92
211.00 37.25
212.00 36.63
213.00 37.19
214.00 39.48
215.00 44.38
216.00 55.43
217.00 54.30
218.00 48.86
219.00 46.34
220.00 45.09
221.00 46.94
222.00 59.64
223.00 46.38
224.00 39.83
225.00 37.09
226.00 36.19
227.00 36.77
228.00 39.71
229.00 50.42
230.00 44.80
231.00 38.06
232.00 36.82
233.00 39.29
234.00 48.39
235.00 48.27
236.00 40.73
237.00 38.41
238.00 37.84
239.00 38.60
240.00 41.45
241.00 49.52
242.00 46.73
243.00 39.26
244.00 36.11
245.00 34.85
246.00 34.52
247.00 34.55
248.00 34.96
249.00 36.07
250.00 37.86
251.00 39.22
252.00 38.83
253.00 38.08
254.00 38.56
255.00 40.14
256.00 39.74
257.00 37.12
258.00 35.33
259.00 34.66
260.00 34.50
261.00 34.12
262.00 33.15
263.00 31.67
264.00 29.96
265.00 28.24
266.00 26.71
267.00 25.46
268.00 24.37
269.00 23.25
270.00 21.99
271.00 20.69
272.00 19.55
273.00 18.74
274.00 18.27
275.00 18.09
276.00 18.06
277.00 18.09
278.00 18.19
279.00 18.42
280.00 18.81
281.00 19.27
282.00 19.61
283.00 19.70
284.00 19.60
285.00 19.51
286.00 19.56
287.00 19.88
288.00 20.63
289.00 22.03
290.00 24.35
291.00 27.89
292.00 32.90
293.00 38.96
294.00 39.76
295.00 34.25
296.00 29.68
297.00 26.65
298.00 25.02
299.00 24.79
300.00 26.12
301.00 29.45
302.00 36.10
303.00 46.78
304.00 36.36
305.00 31.21
306.00 27.86
307.00 25.64
308.00 24.41
309.00 24.05
310.00 24.48
311.00 25.71
312.00 27.90
313.00 29.71
314.00 27.42
315.00 24.33
316.00 22.92
317.00 23.46
318.00 26.36
319.00 31.45
320.00 28.52
321.00 23.78
322.00 20.94
323.00 18.96
324.00 17.55
325.00 16.94
326.00 17.51
327.00 19.60
328.00 23.15
329.00 24.80
330.00 22.73
331.00 21.42
332.00 21.41
333.00 21.88
334.00 21.71
335.00 20.79
336.00 20.16
337.00 20.69
338.00 23.12
339.00 29.12
340.00 33.83
341.00 25.44
342.00 21.82
343.00 20.52
344.00 21.07
345.00 24.24
346.00 34.68
347.00 29.00
348.00 22.86
349.00 21.78
350.00 24.42
351.00 32.26
352.00 25.98
353.00 20.53
354.00 18.39
355.00 18.17
356.00 19.39
357.00 21.37
358.00 23.16
359.00 23.17
