NAME ATR4518R7_2535_X_CO_M45_08T_yL
FREQUENCY 2535
GAIN 15.49 dBd
TILT	ELECTRICAL
COMMENT DATE 05.08.2013 -45 degrees polarized system Lever position 08T deg
HORIZONTAL 360
0.00 0.03
1.00 0.05
2.00 0.09
3.00 0.14
4.00 0.20
5.00 0.26
6.00 0.34
7.00 0.42
8.00 0.52
9.00 0.62
10.00 0.72
11.00 0.83
12.00 0.94
13.00 1.05
14.00 1.17
15.00 1.29
16.00 1.41
17.00 1.54
18.00 1.67
19.00 1.80
20.00 1.93
21.00 2.07
22.00 2.21
23.00 2.36
24.00 2.52
25.00 2.68
26.00 2.85
27.00 3.02
28.00 3.20
29.00 3.39
30.00 3.58
31.00 3.78
32.00 3.99
33.00 4.20
34.00 4.41
35.00 4.62
36.00 4.84
37.00 5.06
38.00 5.28
39.00 5.50
40.00 5.73
41.00 5.95
42.00 6.18
43.00 6.41
44.00 6.65
45.00 6.88
46.00 7.13
47.00 7.37
48.00 7.62
49.00 7.88
50.00 8.14
51.00 8.41
52.00 8.68
53.00 8.96
54.00 9.25
55.00 9.54
56.00 9.83
57.00 10.14
58.00 10.44
59.00 10.75
60.00 11.06
61.00 11.38
62.00 11.70
63.00 12.02
64.00 12.35
65.00 12.68
66.00 13.01
67.00 13.34
68.00 13.68
69.00 14.01
70.00 14.34
71.00 14.68
72.00 15.01
73.00 15.34
74.00 15.66
75.00 15.98
76.00 16.29
77.00 16.60
78.00 16.90
79.00 17.19
80.00 17.48
81.00 17.76
82.00 18.04
83.00 18.32
84.00 18.61
85.00 18.90
86.00 19.21
87.00 19.52
88.00 19.86
89.00 20.21
90.00 20.58
91.00 20.97
92.00 21.38
93.00 21.81
94.00 22.26
95.00 22.72
96.00 23.19
97.00 23.66
98.00 24.14
99.00 24.61
100.00 25.07
101.00 25.52
102.00 25.96
103.00 26.40
104.00 26.83
105.00 27.27
106.00 27.73
107.00 28.21
108.00 28.74
109.00 29.31
110.00 29.95
111.00 30.67
112.00 31.48
113.00 32.40
114.00 33.44
115.00 34.61
116.00 35.94
117.00 37.44
118.00 39.11
119.00 40.88
120.00 42.55
121.00 43.68
122.00 43.81
123.00 43.05
124.00 41.89
125.00 40.69
126.00 39.62
127.00 38.69
128.00 37.91
129.00 37.26
130.00 36.75
131.00 36.34
132.00 36.04
133.00 35.84
134.00 35.75
135.00 35.76
136.00 35.87
137.00 36.10
138.00 36.45
139.00 36.92
140.00 37.52
141.00 38.25
142.00 39.10
143.00 40.06
144.00 41.06
145.00 42.00
146.00 42.70
147.00 42.98
148.00 42.78
149.00 42.21
150.00 41.47
151.00 40.70
152.00 39.99
153.00 39.37
154.00 38.87
155.00 38.45
156.00 38.11
157.00 37.82
158.00 37.56
159.00 37.29
160.00 36.98
161.00 36.62
162.00 36.19
163.00 35.69
164.00 35.14
165.00 34.55
166.00 33.95
167.00 33.36
168.00 32.80
169.00 32.28
170.00 31.83
171.00 31.45
172.00 31.15
173.00 30.94
174.00 30.83
175.00 30.82
176.00 30.93
177.00 31.16
178.00 31.52
179.00 32.04
180.00 32.73
181.00 33.59
182.00 34.63
183.00 35.83
184.00 37.07
185.00 38.05
186.00 38.37
187.00 37.82
188.00 36.68
189.00 35.39
190.00 34.19
191.00 33.16
192.00 32.35
193.00 31.74
194.00 31.34
195.00 31.15
196.00 31.16
197.00 31.38
198.00 31.84
199.00 32.55
200.00 33.58
201.00 35.00
202.00 36.97
203.00 39.78
204.00 43.93
205.00 48.63
206.00 45.41
207.00 40.71
208.00 37.51
209.00 35.27
210.00 33.64
211.00 32.44
212.00 31.57
213.00 30.97
214.00 30.60
215.00 30.45
216.00 30.50
217.00 30.75
218.00 31.19
219.00 31.84
220.00 32.69
221.00 33.75
222.00 34.98
223.00 36.26
224.00 37.31
225.00 37.67
226.00 37.16
227.00 36.06
228.00 34.79
229.00 33.58
230.00 32.53
231.00 31.66
232.00 30.97
233.00 30.42
234.00 30.01
235.00 29.72
236.00 29.53
237.00 29.44
238.00 29.41
239.00 29.44
240.00 29.51
241.00 29.61
242.00 29.72
243.00 29.81
244.00 29.88
245.00 29.91
246.00 29.90
247.00 29.84
248.00 29.72
249.00 29.56
250.00 29.35
251.00 29.11
252.00 28.84
253.00 28.54
254.00 28.22
255.00 27.88
256.00 27.53
257.00 27.17
258.00 26.79
259.00 26.41
260.00 26.03
261.00 25.65
262.00 25.28
263.00 24.92
264.00 24.57
265.00 24.24
266.00 23.92
267.00 23.63
268.00 23.36
269.00 23.10
270.00 22.87
271.00 22.66
272.00 22.47
273.00 22.28
274.00 22.11
275.00 21.93
276.00 21.75
277.00 21.57
278.00 21.36
279.00 21.14
280.00 20.89
281.00 20.61
282.00 20.30
283.00 19.96
284.00 19.60
285.00 19.22
286.00 18.83
287.00 18.42
288.00 18.00
289.00 17.58
290.00 17.15
291.00 16.73
292.00 16.31
293.00 15.89
294.00 15.48
295.00 15.07
296.00 14.66
297.00 14.26
298.00 13.86
299.00 13.46
300.00 13.07
301.00 12.67
302.00 12.28
303.00 11.88
304.00 11.48
305.00 11.08
306.00 10.68
307.00 10.28
308.00 9.88
309.00 9.47
310.00 9.07
311.00 8.67
312.00 8.27
313.00 7.87
314.00 7.48
315.00 7.08
316.00 6.69
317.00 6.31
318.00 5.93
319.00 5.56
320.00 5.20
321.00 4.85
322.00 4.51
323.00 4.18
324.00 3.86
325.00 3.55
326.00 3.26
327.00 2.99
328.00 2.73
329.00 2.48
330.00 2.25
331.00 2.04
332.00 1.85
333.00 1.67
334.00 1.50
335.00 1.35
336.00 1.22
337.00 1.10
338.00 0.99
339.00 0.89
340.00 0.80
341.00 0.72
342.00 0.65
343.00 0.58
344.00 0.52
345.00 0.47
346.00 0.41
347.00 0.36
348.00 0.31
349.00 0.26
350.00 0.22
351.00 0.17
352.00 0.13
353.00 0.10
354.00 0.06
355.00 0.04
356.00 0.02
357.00 0.01
358.00 0.01
359.00 0.01
VERTICAL 360
0.00 22.29
1.00 22.17
2.00 19.19
3.00 13.66
4.00 8.44
5.00 4.51
6.00 1.87
7.00 0.39
8.00 0.00
9.00 0.79
10.00 3.00
11.00 7.42
12.00 17.40
13.00 17.97
14.00 11.44
15.00 10.46
16.00 12.50
17.00 17.74
18.00 20.30
19.00 15.95
20.00 14.68
21.00 16.47
22.00 22.84
23.00 33.19
24.00 20.63
25.00 18.46
26.00 20.44
27.00 28.38
28.00 29.95
29.00 22.11
30.00 19.98
31.00 21.09
32.00 28.72
33.00 25.39
34.00 16.47
35.00 12.89
36.00 11.56
37.00 11.60
38.00 12.57
39.00 14.49
40.00 17.89
41.00 24.26
42.00 40.37
43.00 29.33
44.00 26.24
45.00 25.35
46.00 24.62
47.00 24.66
48.00 26.37
49.00 30.13
50.00 34.48
51.00 36.16
52.00 39.26
53.00 47.31
54.00 44.47
55.00 42.14
56.00 38.23
57.00 34.00
58.00 32.03
59.00 31.68
60.00 31.93
61.00 32.34
62.00 33.15
63.00 34.72
64.00 37.88
65.00 44.05
66.00 45.01
67.00 42.82
68.00 43.49
69.00 42.48
70.00 43.05
71.00 51.31
72.00 52.35
73.00 48.34
74.00 49.68
75.00 42.34
76.00 41.06
77.00 47.80
78.00 48.21
79.00 41.91
80.00 44.40
81.00 50.29
82.00 42.92
83.00 41.96
84.00 45.33
85.00 48.64
86.00 43.83
87.00 39.94
88.00 38.87
89.00 40.38
90.00 43.32
91.00 44.00
92.00 41.12
93.00 38.72
94.00 38.63
95.00 41.04
96.00 44.89
97.00 46.05
98.00 43.73
99.00 41.73
100.00 41.71
101.00 43.58
102.00 46.86
103.00 51.10
104.00 53.18
105.00 58.09
106.00 55.07
107.00 47.90
108.00 46.99
109.00 45.99
110.00 42.90
111.00 41.71
112.00 41.87
113.00 42.17
114.00 42.33
115.00 41.18
116.00 40.49
117.00 42.78
118.00 48.28
119.00 45.38
120.00 40.40
121.00 36.76
122.00 34.29
123.00 32.55
124.00 31.28
125.00 30.91
126.00 31.96
127.00 34.39
128.00 37.19
129.00 38.29
130.00 37.76
131.00 37.52
132.00 38.35
133.00 40.13
134.00 42.58
135.00 45.02
136.00 44.60
137.00 40.32
138.00 35.64
139.00 32.37
140.00 30.67
141.00 30.24
142.00 30.64
143.00 31.60
144.00 33.18
145.00 35.38
146.00 37.52
147.00 39.23
148.00 41.81
149.00 46.97
150.00 60.39
151.00 53.44
152.00 46.50
153.00 43.11
154.00 41.44
155.00 40.95
156.00 41.17
157.00 42.10
158.00 44.11
159.00 45.93
160.00 44.48
161.00 41.83
162.00 39.92
163.00 39.31
164.00 39.84
165.00 40.88
166.00 43.45
167.00 44.39
168.00 36.94
169.00 32.53
170.00 30.58
171.00 30.27
172.00 31.32
173.00 34.30
174.00 41.58
175.00 51.09
176.00 41.46
177.00 39.79
178.00 37.83
179.00 36.29
180.00 37.48
181.00 40.65
182.00 38.46
183.00 35.05
184.00 33.30
185.00 32.96
186.00 34.54
187.00 39.46
188.00 45.31
189.00 38.71
190.00 35.99
191.00 36.00
192.00 38.47
193.00 44.61
194.00 42.54
195.00 37.49
196.00 36.27
197.00 37.42
198.00 38.74
199.00 37.47
200.00 35.67
201.00 35.25
202.00 36.99
203.00 41.72
204.00 43.38
205.00 38.98
206.00 37.14
207.00 37.33
208.00 38.78
209.00 39.57
210.00 38.21
211.00 36.49
212.00 35.31
213.00 35.11
214.00 36.50
215.00 39.90
216.00 44.51
217.00 45.89
218.00 44.29
219.00 42.88
220.00 43.19
221.00 46.38
222.00 52.06
223.00 48.82
224.00 43.66
225.00 38.54
226.00 34.46
227.00 31.95
228.00 30.91
229.00 31.12
230.00 32.36
231.00 34.03
232.00 34.64
233.00 33.68
234.00 32.73
235.00 32.48
236.00 32.59
237.00 32.45
238.00 31.89
239.00 31.49
240.00 31.99
241.00 33.80
242.00 37.03
243.00 41.45
244.00 47.09
245.00 53.03
246.00 45.48
247.00 39.82
248.00 37.27
249.00 37.05
250.00 38.43
251.00 39.68
252.00 39.13
253.00 38.04
254.00 37.94
255.00 39.40
256.00 42.56
257.00 45.92
258.00 44.64
259.00 43.20
260.00 41.29
261.00 36.83
262.00 33.96
263.00 33.49
264.00 34.96
265.00 37.14
266.00 38.22
267.00 38.18
268.00 38.90
269.00 42.56
270.00 51.62
271.00 42.57
272.00 37.24
273.00 34.95
274.00 34.89
275.00 36.84
276.00 39.88
277.00 43.24
278.00 47.23
279.00 42.86
280.00 39.28
281.00 38.56
282.00 39.32
283.00 40.17
284.00 40.35
285.00 40.59
286.00 42.39
287.00 48.29
288.00 57.61
289.00 45.41
290.00 42.41
291.00 40.21
292.00 36.75
293.00 34.00
294.00 32.59
295.00 32.40
296.00 33.78
297.00 35.81
298.00 31.60
299.00 25.98
300.00 21.83
301.00 18.69
302.00 16.20
303.00 14.23
304.00 12.77
305.00 11.87
306.00 11.52
307.00 11.66
308.00 12.26
309.00 13.35
310.00 15.11
311.00 17.67
312.00 20.65
313.00 21.25
314.00 19.24
315.00 17.85
316.00 17.76
317.00 19.10
318.00 22.32
319.00 28.56
320.00 27.59
321.00 22.13
322.00 19.98
323.00 20.33
324.00 23.51
325.00 32.78
326.00 29.40
327.00 23.02
328.00 21.32
329.00 22.77
330.00 29.63
331.00 33.53
332.00 22.98
333.00 20.03
334.00 20.23
335.00 23.97
336.00 33.42
337.00 22.91
338.00 17.84
339.00 15.70
340.00 15.56
341.00 17.30
342.00 21.25
343.00 27.69
344.00 24.88
345.00 21.52
346.00 21.94
347.00 24.85
348.00 24.03
349.00 20.67
350.00 19.66
351.00 21.25
352.00 25.50
353.00 28.71
354.00 27.03
355.00 28.18
356.00 31.92
357.00 26.97
358.00 23.07
359.00 21.95
