NAME ATR4518R7_1750_X_CO_P45_03T_yyR
FREQUENCY 1750
GAIN 15.20 dBd
TILT	ELECTRICAL
COMMENT DATE 05.08.2013 +45 degrees polarized system Lever position 03T deg
HORIZONTAL 360
0.00 0.01
1.00 0.00
2.00 0.00
3.00 0.00
4.00 0.02
5.00 0.03
6.00 0.05
7.00 0.08
8.00 0.11
9.00 0.15
10.00 0.20
11.00 0.26
12.00 0.32
13.00 0.39
14.00 0.47
15.00 0.56
16.00 0.66
17.00 0.77
18.00 0.88
19.00 1.01
20.00 1.15
21.00 1.29
22.00 1.45
23.00 1.61
24.00 1.79
25.00 1.98
26.00 2.17
27.00 2.38
28.00 2.59
29.00 2.81
30.00 3.04
31.00 3.28
32.00 3.52
33.00 3.78
34.00 4.03
35.00 4.29
36.00 4.55
37.00 4.82
38.00 5.09
39.00 5.36
40.00 5.62
41.00 5.89
42.00 6.15
43.00 6.41
44.00 6.66
45.00 6.91
46.00 7.15
47.00 7.39
48.00 7.62
49.00 7.85
50.00 8.08
51.00 8.30
52.00 8.51
53.00 8.72
54.00 8.93
55.00 9.14
56.00 9.35
57.00 9.56
58.00 9.76
59.00 9.97
60.00 10.17
61.00 10.38
62.00 10.60
63.00 10.81
64.00 11.02
65.00 11.24
66.00 11.46
67.00 11.69
68.00 11.92
69.00 12.15
70.00 12.38
71.00 12.62
72.00 12.86
73.00 13.10
74.00 13.35
75.00 13.61
76.00 13.86
77.00 14.13
78.00 14.39
79.00 14.66
80.00 14.94
81.00 15.22
82.00 15.50
83.00 15.79
84.00 16.08
85.00 16.37
86.00 16.67
87.00 16.96
88.00 17.26
89.00 17.56
90.00 17.85
91.00 18.14
92.00 18.43
93.00 18.70
94.00 18.98
95.00 19.24
96.00 19.50
97.00 19.74
98.00 19.98
99.00 20.21
100.00 20.43
101.00 20.65
102.00 20.86
103.00 21.06
104.00 21.27
105.00 21.47
106.00 21.67
107.00 21.88
108.00 22.08
109.00 22.30
110.00 22.51
111.00 22.74
112.00 22.97
113.00 23.20
114.00 23.44
115.00 23.68
116.00 23.92
117.00 24.16
118.00 24.39
119.00 24.62
120.00 24.85
121.00 25.06
122.00 25.26
123.00 25.46
124.00 25.64
125.00 25.81
126.00 25.97
127.00 26.13
128.00 26.29
129.00 26.45
130.00 26.62
131.00 26.79
132.00 26.99
133.00 27.21
134.00 27.45
135.00 27.73
136.00 28.04
137.00 28.40
138.00 28.80
139.00 29.26
140.00 29.78
141.00 30.36
142.00 31.03
143.00 31.78
144.00 32.64
145.00 33.61
146.00 34.74
147.00 36.05
148.00 37.60
149.00 39.48
150.00 41.85
151.00 45.03
152.00 49.80
153.00 57.97
154.00 54.41
155.00 48.19
156.00 44.59
157.00 42.16
158.00 40.38
159.00 39.00
160.00 37.90
161.00 37.02
162.00 36.29
163.00 35.69
164.00 35.20
165.00 34.80
166.00 34.48
167.00 34.23
168.00 34.03
169.00 33.89
170.00 33.81
171.00 33.78
172.00 33.80
173.00 33.88
174.00 34.00
175.00 34.20
176.00 34.45
177.00 34.78
178.00 35.19
179.00 35.69
180.00 36.29
181.00 37.03
182.00 37.92
183.00 39.00
184.00 40.33
185.00 41.99
186.00 44.13
187.00 46.90
188.00 50.39
189.00 52.51
190.00 49.91
191.00 46.41
192.00 43.65
193.00 41.53
194.00 39.86
195.00 38.53
196.00 37.46
197.00 36.59
198.00 35.88
199.00 35.34
200.00 34.92
201.00 34.63
202.00 34.46
203.00 34.41
204.00 34.47
205.00 34.64
206.00 34.95
207.00 35.39
208.00 35.98
209.00 36.76
210.00 37.74
211.00 38.99
212.00 40.60
213.00 42.73
214.00 45.71
215.00 50.23
216.00 55.99
217.00 51.80
218.00 46.57
219.00 43.16
220.00 40.73
221.00 38.88
222.00 37.43
223.00 36.26
224.00 35.30
225.00 34.53
226.00 33.90
227.00 33.40
228.00 33.01
229.00 32.73
230.00 32.53
231.00 32.43
232.00 32.41
233.00 32.48
234.00 32.62
235.00 32.84
236.00 33.14
237.00 33.51
238.00 33.96
239.00 34.50
240.00 35.12
241.00 35.82
242.00 36.60
243.00 37.47
244.00 38.44
245.00 39.48
246.00 40.61
247.00 41.80
248.00 43.06
249.00 44.36
250.00 45.71
251.00 47.11
252.00 48.61
253.00 50.41
254.00 52.71
255.00 56.25
256.00 63.95
257.00 67.36
258.00 55.61
259.00 50.21
260.00 46.48
261.00 43.60
262.00 41.22
263.00 39.16
264.00 37.38
265.00 35.77
266.00 34.33
267.00 33.01
268.00 31.81
269.00 30.70
270.00 29.67
271.00 28.71
272.00 27.81
273.00 26.97
274.00 26.18
275.00 25.43
276.00 24.72
277.00 24.04
278.00 23.40
279.00 22.78
280.00 22.18
281.00 21.60
282.00 21.04
283.00 20.49
284.00 19.96
285.00 19.44
286.00 18.92
287.00 18.42
288.00 17.92
289.00 17.43
290.00 16.94
291.00 16.46
292.00 15.98
293.00 15.50
294.00 15.04
295.00 14.57
296.00 14.11
297.00 13.66
298.00 13.21
299.00 12.77
300.00 12.33
301.00 11.90
302.00 11.48
303.00 11.06
304.00 10.64
305.00 10.24
306.00 9.85
307.00 9.45
308.00 9.07
309.00 8.70
310.00 8.33
311.00 7.98
312.00 7.63
313.00 7.28
314.00 6.95
315.00 6.62
316.00 6.31
317.00 6.00
318.00 5.70
319.00 5.41
320.00 5.12
321.00 4.85
322.00 4.58
323.00 4.32
324.00 4.07
325.00 3.83
326.00 3.60
327.00 3.37
328.00 3.15
329.00 2.95
330.00 2.74
331.00 2.55
332.00 2.37
333.00 2.19
334.00 2.03
335.00 1.87
336.00 1.71
337.00 1.57
338.00 1.43
339.00 1.30
340.00 1.18
341.00 1.07
342.00 0.96
343.00 0.86
344.00 0.77
345.00 0.68
346.00 0.60
347.00 0.52
348.00 0.45
349.00 0.39
350.00 0.33
351.00 0.27
352.00 0.22
353.00 0.18
354.00 0.14
355.00 0.11
356.00 0.08
357.00 0.05
358.00 0.03
359.00 0.02
VERTICAL 360
0.00 3.08
1.00 1.34
2.00 0.33
3.00 0.00
4.00 0.33
5.00 1.36
6.00 3.20
7.00 6.07
8.00 10.54
9.00 18.72
10.00 27.55
11.00 18.23
12.00 15.67
13.00 16.07
14.00 19.24
15.00 28.30
16.00 26.24
17.00 18.46
18.00 15.51
19.00 14.63
20.00 15.20
21.00 17.24
22.00 21.55
23.00 34.83
24.00 29.97
25.00 21.99
26.00 19.46
27.00 19.15
28.00 20.61
29.00 24.44
30.00 35.84
31.00 31.25
32.00 22.99
33.00 19.73
34.00 18.46
35.00 18.56
36.00 19.84
37.00 22.29
38.00 26.08
39.00 32.11
40.00 36.90
41.00 30.37
42.00 26.29
43.00 24.56
44.00 24.29
45.00 25.20
46.00 27.32
47.00 30.98
48.00 35.25
49.00 33.75
50.00 29.94
51.00 27.97
52.00 27.75
53.00 29.16
54.00 32.39
55.00 37.71
56.00 37.40
57.00 31.18
58.00 27.06
59.00 24.58
60.00 23.30
61.00 22.92
62.00 23.07
63.00 23.39
64.00 23.62
65.00 23.83
66.00 24.23
67.00 24.94
68.00 25.85
69.00 26.65
70.00 27.05
71.00 27.05
72.00 26.94
73.00 26.90
74.00 26.96
75.00 27.17
76.00 27.63
77.00 28.16
78.00 28.52
79.00 28.60
80.00 28.41
81.00 28.06
82.00 27.77
83.00 27.69
84.00 27.79
85.00 28.04
86.00 28.40
87.00 28.80
88.00 29.28
89.00 29.88
90.00 30.48
91.00 30.87
92.00 31.03
93.00 31.18
94.00 31.63
95.00 32.54
96.00 33.86
97.00 35.13
98.00 35.87
99.00 36.33
100.00 36.76
101.00 37.12
102.00 37.98
103.00 40.45
104.00 45.29
105.00 50.83
106.00 53.64
107.00 52.57
108.00 47.59
109.00 45.39
110.00 45.64
111.00 46.85
112.00 46.53
113.00 43.53
114.00 40.11
115.00 37.51
116.00 35.77
117.00 34.75
118.00 34.48
119.00 35.19
120.00 37.29
121.00 40.66
122.00 41.84
123.00 39.95
124.00 39.01
125.00 38.97
126.00 38.38
127.00 37.11
128.00 36.10
129.00 35.75
130.00 36.07
131.00 37.00
132.00 38.49
133.00 40.47
134.00 42.56
135.00 43.80
136.00 43.28
137.00 41.18
138.00 38.69
139.00 36.94
140.00 36.35
141.00 36.62
142.00 36.89
143.00 37.16
144.00 38.48
145.00 40.44
146.00 40.19
147.00 39.03
148.00 39.54
149.00 41.67
150.00 43.54
151.00 42.38
152.00 39.86
153.00 38.71
154.00 39.88
155.00 44.20
156.00 52.44
157.00 52.58
158.00 54.14
159.00 58.53
160.00 44.96
161.00 40.43
162.00 39.30
163.00 40.27
164.00 41.34
165.00 40.35
166.00 38.86
167.00 38.65
168.00 40.04
169.00 40.27
170.00 37.07
171.00 34.81
172.00 34.62
173.00 35.50
174.00 35.71
175.00 35.57
176.00 36.46
177.00 37.92
178.00 38.32
179.00 38.26
180.00 39.15
181.00 41.97
182.00 51.64
183.00 46.93
184.00 38.18
185.00 34.69
186.00 33.14
187.00 32.62
188.00 32.97
189.00 34.14
190.00 34.89
191.00 33.57
192.00 31.38
193.00 29.76
194.00 29.04
195.00 29.32
196.00 30.33
197.00 31.14
198.00 31.11
199.00 31.24
200.00 32.65
201.00 36.12
202.00 41.90
203.00 41.88
204.00 37.45
205.00 35.38
206.00 35.08
207.00 35.96
208.00 36.78
209.00 35.80
210.00 33.82
211.00 32.40
212.00 31.92
213.00 32.22
214.00 32.90
215.00 33.52
216.00 33.63
217.00 32.89
218.00 31.62
219.00 30.66
220.00 30.66
221.00 32.03
222.00 35.10
223.00 38.98
224.00 39.49
225.00 38.45
226.00 39.17
227.00 41.15
228.00 41.91
229.00 40.38
230.00 38.57
231.00 37.29
232.00 36.14
233.00 34.64
234.00 33.17
235.00 32.40
236.00 32.72
237.00 34.20
238.00 35.69
239.00 34.73
240.00 32.79
241.00 31.93
242.00 32.15
243.00 32.76
244.00 33.29
245.00 33.97
246.00 35.28
247.00 37.51
248.00 39.80
249.00 39.35
250.00 37.57
251.00 36.79
252.00 36.76
253.00 36.74
254.00 36.66
255.00 37.50
256.00 40.85
257.00 47.89
258.00 45.47
259.00 43.44
260.00 48.46
261.00 58.99
262.00 60.13
263.00 46.57
264.00 37.54
265.00 34.40
266.00 34.77
267.00 38.22
268.00 43.76
269.00 40.88
270.00 34.34
271.00 30.81
272.00 29.67
273.00 30.01
274.00 30.69
275.00 31.44
276.00 32.54
277.00 32.83
278.00 32.44
279.00 33.37
280.00 36.38
281.00 40.87
282.00 43.44
283.00 40.57
284.00 37.69
285.00 35.73
286.00 32.71
287.00 29.60
288.00 27.52
289.00 26.25
290.00 25.40
291.00 24.79
292.00 24.26
293.00 23.60
294.00 22.83
295.00 22.16
296.00 21.79
297.00 21.90
298.00 22.59
299.00 23.88
300.00 25.77
301.00 28.34
302.00 31.70
303.00 33.73
304.00 31.02
305.00 27.51
306.00 25.04
307.00 23.33
308.00 22.06
309.00 21.08
310.00 20.40
311.00 20.03
312.00 20.01
313.00 20.35
314.00 21.15
315.00 22.48
316.00 24.21
317.00 25.89
318.00 26.92
319.00 27.02
320.00 26.24
321.00 24.62
322.00 22.58
323.00 20.84
324.00 19.92
325.00 20.08
326.00 21.64
327.00 25.33
328.00 32.70
329.00 30.85
330.00 24.28
331.00 20.75
332.00 18.43
333.00 16.79
334.00 15.89
335.00 15.97
336.00 17.43
337.00 20.95
338.00 26.89
339.00 25.71
340.00 21.21
341.00 19.60
342.00 20.06
343.00 22.09
344.00 24.14
345.00 23.35
346.00 21.29
347.00 20.13
348.00 20.33
349.00 22.37
350.00 27.69
351.00 29.41
352.00 22.13
353.00 18.75
354.00 18.30
355.00 20.96
356.00 23.08
357.00 15.49
358.00 9.57
359.00 5.71
