NAME ATR4518R7_1880_X_CO_P45_01T_yyR
FREQUENCY 1880
GAIN 14.93 dBd
TILT	ELECTRICAL
COMMENT DATE 05.08.2013 +45 degrees polarized system Lever position 01T deg
HORIZONTAL 360
0.00 0.07
1.00 0.05
2.00 0.03
3.00 0.02
4.00 0.01
5.00 0.00
6.00 0.00
7.00 0.01
8.00 0.02
9.00 0.04
10.00 0.07
11.00 0.10
12.00 0.14
13.00 0.19
14.00 0.24
15.00 0.30
16.00 0.37
17.00 0.45
18.00 0.54
19.00 0.63
20.00 0.74
21.00 0.85
22.00 0.98
23.00 1.11
24.00 1.25
25.00 1.40
26.00 1.56
27.00 1.73
28.00 1.91
29.00 2.10
30.00 2.30
31.00 2.51
32.00 2.73
33.00 2.96
34.00 3.19
35.00 3.43
36.00 3.68
37.00 3.94
38.00 4.21
39.00 4.48
40.00 4.75
41.00 5.03
42.00 5.32
43.00 5.61
44.00 5.91
45.00 6.20
46.00 6.50
47.00 6.81
48.00 7.11
49.00 7.42
50.00 7.73
51.00 8.04
52.00 8.35
53.00 8.66
54.00 8.98
55.00 9.29
56.00 9.61
57.00 9.92
58.00 10.24
59.00 10.56
60.00 10.89
61.00 11.21
62.00 11.54
63.00 11.86
64.00 12.19
65.00 12.52
66.00 12.84
67.00 13.17
68.00 13.51
69.00 13.84
70.00 14.17
71.00 14.51
72.00 14.84
73.00 15.18
74.00 15.52
75.00 15.86
76.00 16.21
77.00 16.55
78.00 16.90
79.00 17.26
80.00 17.62
81.00 17.98
82.00 18.35
83.00 18.72
84.00 19.10
85.00 19.49
86.00 19.88
87.00 20.29
88.00 20.70
89.00 21.12
90.00 21.54
91.00 21.98
92.00 22.42
93.00 22.86
94.00 23.31
95.00 23.77
96.00 24.23
97.00 24.68
98.00 25.14
99.00 25.59
100.00 26.04
101.00 26.48
102.00 26.90
103.00 27.31
104.00 27.70
105.00 28.07
106.00 28.42
107.00 28.75
108.00 29.05
109.00 29.34
110.00 29.60
111.00 29.85
112.00 30.08
113.00 30.30
114.00 30.52
115.00 30.74
116.00 30.96
117.00 31.20
118.00 31.45
119.00 31.73
120.00 32.05
121.00 32.40
122.00 32.81
123.00 33.27
124.00 33.80
125.00 34.41
126.00 35.12
127.00 35.94
128.00 36.89
129.00 38.01
130.00 39.33
131.00 40.90
132.00 42.79
133.00 45.02
134.00 47.44
135.00 49.12
136.00 48.63
137.00 46.64
138.00 44.54
139.00 42.79
140.00 41.38
141.00 40.28
142.00 39.44
143.00 38.81
144.00 38.37
145.00 38.11
146.00 38.01
147.00 38.09
148.00 38.33
149.00 38.77
150.00 39.41
151.00 40.30
152.00 41.51
153.00 43.15
154.00 45.43
155.00 48.88
156.00 55.20
157.00 70.02
158.00 52.98
159.00 47.41
160.00 44.05
161.00 41.69
162.00 39.90
163.00 38.50
164.00 37.39
165.00 36.50
166.00 35.80
167.00 35.26
168.00 34.87
169.00 34.60
170.00 34.46
171.00 34.44
172.00 34.53
173.00 34.74
174.00 35.06
175.00 35.49
176.00 36.03
177.00 36.66
178.00 37.35
179.00 38.05
180.00 38.66
181.00 39.07
182.00 39.13
183.00 38.83
184.00 38.21
185.00 37.41
186.00 36.56
187.00 35.71
188.00 34.95
189.00 34.26
190.00 33.67
191.00 33.18
192.00 32.79
193.00 32.49
194.00 32.29
195.00 32.17
196.00 32.13
197.00 32.18
198.00 32.31
199.00 32.51
200.00 32.78
201.00 33.11
202.00 33.49
203.00 33.90
204.00 34.31
205.00 34.68
206.00 34.98
207.00 35.15
208.00 35.17
209.00 35.03
210.00 34.74
211.00 34.34
212.00 33.88
213.00 33.39
214.00 32.91
215.00 32.45
216.00 32.03
217.00 31.66
218.00 31.34
219.00 31.09
220.00 30.89
221.00 30.74
222.00 30.65
223.00 30.62
224.00 30.63
225.00 30.70
226.00 30.81
227.00 30.96
228.00 31.16
229.00 31.38
230.00 31.64
231.00 31.93
232.00 32.23
233.00 32.55
234.00 32.88
235.00 33.19
236.00 33.50
237.00 33.79
238.00 34.05
239.00 34.28
240.00 34.47
241.00 34.62
242.00 34.74
243.00 34.81
244.00 34.85
245.00 34.85
246.00 34.82
247.00 34.77
248.00 34.68
249.00 34.56
250.00 34.42
251.00 34.25
252.00 34.05
253.00 33.82
254.00 33.57
255.00 33.28
256.00 32.97
257.00 32.64
258.00 32.28
259.00 31.90
260.00 31.49
261.00 31.07
262.00 30.63
263.00 30.18
264.00 29.70
265.00 29.22
266.00 28.72
267.00 28.21
268.00 27.69
269.00 27.16
270.00 26.62
271.00 26.07
272.00 25.52
273.00 24.97
274.00 24.41
275.00 23.86
276.00 23.31
277.00 22.76
278.00 22.22
279.00 21.69
280.00 21.16
281.00 20.64
282.00 20.12
283.00 19.62
284.00 19.12
285.00 18.63
286.00 18.15
287.00 17.68
288.00 17.22
289.00 16.77
290.00 16.32
291.00 15.89
292.00 15.46
293.00 15.03
294.00 14.62
295.00 14.21
296.00 13.81
297.00 13.41
298.00 13.02
299.00 12.64
300.00 12.26
301.00 11.89
302.00 11.52
303.00 11.16
304.00 10.80
305.00 10.45
306.00 10.10
307.00 9.76
308.00 9.42
309.00 9.09
310.00 8.77
311.00 8.44
312.00 8.13
313.00 7.82
314.00 7.51
315.00 7.21
316.00 6.91
317.00 6.62
318.00 6.34
319.00 6.06
320.00 5.79
321.00 5.52
322.00 5.26
323.00 5.00
324.00 4.75
325.00 4.51
326.00 4.28
327.00 4.05
328.00 3.83
329.00 3.61
330.00 3.40
331.00 3.20
332.00 3.00
333.00 2.81
334.00 2.63
335.00 2.45
336.00 2.28
337.00 2.12
338.00 1.97
339.00 1.82
340.00 1.68
341.00 1.54
342.00 1.41
343.00 1.29
344.00 1.17
345.00 1.06
346.00 0.96
347.00 0.86
348.00 0.77
349.00 0.68
350.00 0.60
351.00 0.52
352.00 0.45
353.00 0.39
354.00 0.33
355.00 0.27
356.00 0.22
357.00 0.18
358.00 0.14
359.00 0.11
VERTICAL 360
0.00 0.43
1.00 0.00
2.00 0.24
3.00 1.19
4.00 3.01
5.00 5.98
6.00 10.78
7.00 19.37
8.00 23.05
9.00 17.50
10.00 16.33
11.00 17.94
12.00 22.31
13.00 25.17
14.00 20.60
15.00 17.53
16.00 16.76
17.00 17.87
18.00 20.89
19.00 24.76
20.00 23.93
21.00 20.99
22.00 19.62
23.00 19.80
24.00 21.44
25.00 25.01
26.00 33.48
27.00 35.23
28.00 25.31
29.00 21.25
30.00 19.33
31.00 18.81
32.00 19.52
33.00 21.40
34.00 24.26
35.00 27.22
36.00 28.75
37.00 28.98
38.00 28.58
39.00 27.53
40.00 26.19
41.00 25.06
42.00 24.33
43.00 24.00
44.00 24.16
45.00 24.99
46.00 26.82
47.00 30.32
48.00 36.68
49.00 36.93
50.00 30.77
51.00 27.30
52.00 25.36
53.00 24.18
54.00 23.45
55.00 23.05
56.00 23.00
57.00 23.34
58.00 24.14
59.00 25.52
60.00 27.63
61.00 30.64
62.00 34.45
63.00 37.57
64.00 37.64
65.00 36.44
66.00 35.72
67.00 35.66
68.00 36.34
69.00 38.10
70.00 41.23
71.00 43.41
72.00 40.61
73.00 37.39
74.00 35.58
75.00 34.64
76.00 33.65
77.00 32.06
78.00 30.12
79.00 28.25
80.00 26.78
81.00 25.85
82.00 25.44
83.00 25.41
84.00 25.59
85.00 25.88
86.00 26.33
87.00 27.15
88.00 28.80
89.00 31.97
90.00 37.31
91.00 37.89
92.00 32.86
93.00 30.12
94.00 29.39
95.00 30.49
96.00 33.65
97.00 39.14
98.00 44.64
99.00 46.56
100.00 44.55
101.00 40.33
102.00 38.57
103.00 39.35
104.00 41.47
105.00 42.45
106.00 42.00
107.00 41.22
108.00 40.18
109.00 39.47
110.00 39.41
111.00 39.80
112.00 40.34
113.00 40.76
114.00 40.87
115.00 40.86
116.00 41.14
117.00 41.64
118.00 42.07
119.00 42.40
120.00 42.73
121.00 43.44
122.00 45.44
123.00 50.18
124.00 55.75
125.00 51.13
126.00 48.10
127.00 47.63
128.00 48.50
129.00 49.87
130.00 51.45
131.00 54.27
132.00 59.28
133.00 57.67
134.00 55.41
135.00 57.68
136.00 51.08
137.00 44.49
138.00 41.69
139.00 41.80
140.00 44.14
141.00 43.20
142.00 39.01
143.00 36.82
144.00 36.89
145.00 38.74
146.00 40.49
147.00 39.71
148.00 38.03
149.00 36.48
150.00 35.14
151.00 34.61
152.00 35.46
153.00 37.78
154.00 40.62
155.00 42.73
156.00 45.72
157.00 49.17
158.00 47.63
159.00 47.77
160.00 44.50
161.00 37.92
162.00 34.36
163.00 33.41
164.00 34.62
165.00 37.95
166.00 43.83
167.00 51.37
168.00 45.00
169.00 39.95
170.00 38.39
171.00 39.21
172.00 40.65
173.00 39.54
174.00 37.30
175.00 35.82
176.00 35.23
177.00 34.85
178.00 35.63
179.00 36.98
180.00 39.04
181.00 41.80
182.00 49.76
183.00 51.03
184.00 42.15
185.00 39.79
186.00 40.31
187.00 42.43
188.00 43.08
189.00 39.87
190.00 36.50
191.00 34.88
192.00 35.34
193.00 38.28
194.00 44.54
195.00 50.10
196.00 49.30
197.00 52.55
198.00 58.32
199.00 45.48
200.00 37.91
201.00 33.91
202.00 32.38
203.00 33.01
204.00 35.50
205.00 38.11
206.00 38.60
207.00 39.36
208.00 41.81
209.00 42.51
210.00 40.68
211.00 40.26
212.00 42.22
213.00 47.18
214.00 48.95
215.00 42.60
216.00 38.34
217.00 35.82
218.00 34.42
219.00 33.91
220.00 34.34
221.00 35.87
222.00 38.72
223.00 42.44
224.00 44.06
225.00 43.12
226.00 42.78
227.00 43.73
228.00 45.07
229.00 44.46
230.00 42.72
231.00 42.45
232.00 44.82
233.00 49.32
234.00 46.76
235.00 42.53
236.00 40.59
237.00 39.92
238.00 40.01
239.00 41.27
240.00 45.43
241.00 53.65
242.00 44.65
243.00 39.72
244.00 38.41
245.00 39.31
246.00 41.94
247.00 45.94
248.00 49.22
249.00 49.19
250.00 50.54
251.00 57.26
252.00 51.30
253.00 45.94
254.00 44.51
255.00 44.00
256.00 43.01
257.00 42.56
258.00 43.21
259.00 44.25
260.00 44.39
261.00 42.39
262.00 39.50
263.00 37.61
264.00 37.02
265.00 37.09
266.00 36.85
267.00 35.79
268.00 34.29
269.00 33.05
270.00 32.40
271.00 32.16
272.00 31.92
273.00 31.45
274.00 30.58
275.00 29.29
276.00 27.94
277.00 26.89
278.00 26.14
279.00 25.64
280.00 25.42
281.00 25.55
282.00 25.99
283.00 26.51
284.00 26.75
285.00 26.52
286.00 25.99
287.00 25.53
288.00 25.33
289.00 25.41
290.00 25.68
291.00 26.10
292.00 26.69
293.00 27.39
294.00 27.74
295.00 27.25
296.00 26.10
297.00 24.94
298.00 24.15
299.00 23.86
300.00 24.15
301.00 25.15
302.00 27.04
303.00 30.04
304.00 33.78
305.00 34.57
306.00 31.39
307.00 28.19
308.00 25.75
309.00 23.96
310.00 22.66
311.00 21.75
312.00 21.18
313.00 20.96
314.00 21.06
315.00 21.39
316.00 21.67
317.00 21.55
318.00 20.91
319.00 19.92
320.00 18.93
321.00 18.18
322.00 17.73
323.00 17.50
324.00 17.37
325.00 17.35
326.00 17.63
327.00 18.55
328.00 20.63
329.00 24.92
330.00 34.95
331.00 30.17
332.00 23.65
333.00 21.25
334.00 21.02
335.00 22.96
336.00 28.82
337.00 37.70
338.00 25.82
339.00 21.02
340.00 19.11
341.00 19.03
342.00 20.86
343.00 25.16
344.00 26.19
345.00 20.86
346.00 17.69
347.00 16.80
348.00 17.96
349.00 21.70
350.00 27.39
351.00 23.49
352.00 19.48
353.00 19.11
354.00 22.07
355.00 18.90
356.00 11.45
357.00 6.63
358.00 3.53
359.00 1.56
