NAME ATR4518R7_2655_X_CO_P45_04T_yyR
FREQUENCY 2655
GAIN 15.89 dBd
TILT	ELECTRICAL
COMMENT DATE 05.08.2013 +45 degrees polarized system Lever position 04T deg
HORIZONTAL 360
0.00 0.08
1.00 0.11
2.00 0.16
3.00 0.21
4.00 0.27
5.00 0.34
6.00 0.42
7.00 0.51
8.00 0.60
9.00 0.70
10.00 0.81
11.00 0.92
12.00 1.05
13.00 1.18
14.00 1.31
15.00 1.45
16.00 1.60
17.00 1.75
18.00 1.90
19.00 2.05
20.00 2.21
21.00 2.37
22.00 2.53
23.00 2.68
24.00 2.84
25.00 2.99
26.00 3.13
27.00 3.28
28.00 3.42
29.00 3.55
30.00 3.68
31.00 3.81
32.00 3.94
33.00 4.07
34.00 4.20
35.00 4.33
36.00 4.47
37.00 4.62
38.00 4.77
39.00 4.93
40.00 5.11
41.00 5.29
42.00 5.50
43.00 5.72
44.00 5.96
45.00 6.22
46.00 6.49
47.00 6.79
48.00 7.10
49.00 7.44
50.00 7.80
51.00 8.18
52.00 8.58
53.00 9.00
54.00 9.44
55.00 9.90
56.00 10.38
57.00 10.89
58.00 11.42
59.00 11.96
60.00 12.54
61.00 13.14
62.00 13.76
63.00 14.40
64.00 15.08
65.00 15.79
66.00 16.53
67.00 17.31
68.00 18.12
69.00 18.97
70.00 19.86
71.00 20.80
72.00 21.78
73.00 22.80
74.00 23.85
75.00 24.94
76.00 26.05
77.00 27.15
78.00 28.24
79.00 29.24
80.00 30.13
81.00 30.85
82.00 31.34
83.00 31.58
84.00 31.59
85.00 31.40
86.00 31.07
87.00 30.65
88.00 30.17
89.00 29.68
90.00 29.19
91.00 28.73
92.00 28.31
93.00 27.93
94.00 27.62
95.00 27.36
96.00 27.17
97.00 27.05
98.00 27.00
99.00 27.03
100.00 27.13
101.00 27.30
102.00 27.54
103.00 27.86
104.00 28.23
105.00 28.65
106.00 29.10
107.00 29.56
108.00 29.99
109.00 30.35
110.00 30.60
111.00 30.75
112.00 30.77
113.00 30.71
114.00 30.58
115.00 30.45
116.00 30.35
117.00 30.30
118.00 30.35
119.00 30.51
120.00 30.79
121.00 31.24
122.00 31.86
123.00 32.70
124.00 33.79
125.00 35.21
126.00 37.08
127.00 39.55
128.00 42.86
129.00 46.42
130.00 46.01
131.00 42.45
132.00 39.43
133.00 37.21
134.00 35.57
135.00 34.36
136.00 33.47
137.00 32.84
138.00 32.43
139.00 32.20
140.00 32.14
141.00 32.22
142.00 32.42
143.00 32.71
144.00 33.05
145.00 33.40
146.00 33.68
147.00 33.86
148.00 33.90
149.00 33.78
150.00 33.54
151.00 33.24
152.00 32.93
153.00 32.66
154.00 32.48
155.00 32.39
156.00 32.43
157.00 32.60
158.00 32.92
159.00 33.42
160.00 34.09
161.00 34.99
162.00 36.13
163.00 37.57
164.00 39.40
165.00 41.77
166.00 44.92
167.00 49.31
168.00 54.09
169.00 52.09
170.00 48.16
171.00 45.56
172.00 43.93
173.00 42.92
174.00 42.34
175.00 42.04
176.00 41.89
177.00 41.69
178.00 41.29
179.00 40.55
180.00 39.52
181.00 38.33
182.00 37.11
183.00 35.96
184.00 34.94
185.00 34.08
186.00 33.37
187.00 32.83
188.00 32.46
189.00 32.25
190.00 32.22
191.00 32.37
192.00 32.73
193.00 33.31
194.00 34.16
195.00 35.34
196.00 36.97
197.00 39.27
198.00 42.75
199.00 49.15
200.00 64.27
201.00 47.03
202.00 41.60
203.00 38.40
204.00 36.22
205.00 34.65
206.00 33.50
207.00 32.68
208.00 32.13
209.00 31.82
210.00 31.75
211.00 31.90
212.00 32.29
213.00 32.96
214.00 33.93
215.00 35.30
216.00 37.20
217.00 39.85
218.00 43.41
219.00 45.80
220.00 42.79
221.00 38.94
222.00 36.01
223.00 33.79
224.00 32.07
225.00 30.71
226.00 29.63
227.00 28.76
228.00 28.08
229.00 27.56
230.00 27.17
231.00 26.90
232.00 26.75
233.00 26.70
234.00 26.74
235.00 26.87
236.00 27.08
237.00 27.35
238.00 27.69
239.00 28.08
240.00 28.50
241.00 28.93
242.00 29.35
243.00 29.74
244.00 30.08
245.00 30.35
246.00 30.53
247.00 30.63
248.00 30.67
249.00 30.66
250.00 30.61
251.00 30.55
252.00 30.50
253.00 30.45
254.00 30.43
255.00 30.41
256.00 30.42
257.00 30.42
258.00 30.41
259.00 30.38
260.00 30.30
261.00 30.16
262.00 29.97
263.00 29.70
264.00 29.37
265.00 28.98
266.00 28.55
267.00 28.09
268.00 27.61
269.00 27.12
270.00 26.63
271.00 26.15
272.00 25.69
273.00 25.23
274.00 24.80
275.00 24.37
276.00 23.97
277.00 23.57
278.00 23.19
279.00 22.81
280.00 22.44
281.00 22.07
282.00 21.70
283.00 21.33
284.00 20.95
285.00 20.57
286.00 20.18
287.00 19.78
288.00 19.37
289.00 18.95
290.00 18.53
291.00 18.09
292.00 17.66
293.00 17.22
294.00 16.78
295.00 16.34
296.00 15.91
297.00 15.48
298.00 15.04
299.00 14.62
300.00 14.20
301.00 13.79
302.00 13.38
303.00 12.97
304.00 12.57
305.00 12.17
306.00 11.77
307.00 11.37
308.00 10.98
309.00 10.59
310.00 10.20
311.00 9.80
312.00 9.41
313.00 9.02
314.00 8.63
315.00 8.25
316.00 7.86
317.00 7.48
318.00 7.10
319.00 6.73
320.00 6.37
321.00 6.01
322.00 5.65
323.00 5.31
324.00 4.98
325.00 4.65
326.00 4.34
327.00 4.03
328.00 3.74
329.00 3.46
330.00 3.19
331.00 2.93
332.00 2.68
333.00 2.44
334.00 2.22
335.00 2.01
336.00 1.81
337.00 1.62
338.00 1.44
339.00 1.28
340.00 1.12
341.00 0.98
342.00 0.85
343.00 0.72
344.00 0.61
345.00 0.51
346.00 0.42
347.00 0.34
348.00 0.26
349.00 0.20
350.00 0.15
351.00 0.10
352.00 0.06
353.00 0.04
354.00 0.02
355.00 0.01
356.00 0.00
357.00 0.01
358.00 0.02
359.00 0.04
VERTICAL 360
0.00 12.58
1.00 6.41
2.00 2.69
3.00 0.65
4.00 0.00
5.00 0.71
6.00 3.00
7.00 7.57
8.00 17.12
9.00 20.83
10.00 15.01
11.00 15.78
12.00 23.30
13.00 29.23
14.00 17.52
15.00 15.53
16.00 17.59
17.00 26.64
18.00 26.66
19.00 18.47
20.00 16.84
21.00 18.67
22.00 23.79
23.00 23.02
24.00 18.70
25.00 17.98
26.00 20.22
27.00 24.87
28.00 27.58
29.00 24.32
30.00 20.41
31.00 17.61
32.00 15.83
33.00 14.84
34.00 14.85
35.00 16.45
36.00 20.62
37.00 29.41
38.00 29.01
39.00 23.89
40.00 22.56
41.00 23.39
42.00 27.20
43.00 35.52
44.00 28.61
45.00 23.86
46.00 23.01
47.00 24.09
48.00 25.70
49.00 27.61
50.00 31.31
51.00 36.75
52.00 34.80
53.00 33.45
54.00 39.96
55.00 43.85
56.00 32.50
57.00 29.87
58.00 28.91
59.00 29.08
60.00 31.39
61.00 32.65
62.00 29.20
63.00 26.64
64.00 25.29
65.00 24.13
66.00 22.95
67.00 22.19
68.00 22.17
69.00 22.68
70.00 23.08
71.00 22.96
72.00 22.70
73.00 23.03
74.00 24.40
75.00 26.72
76.00 29.27
77.00 30.78
78.00 30.61
79.00 29.67
80.00 29.47
81.00 31.41
82.00 37.35
83.00 37.31
84.00 31.79
85.00 30.09
86.00 28.77
87.00 27.40
88.00 28.45
89.00 35.21
90.00 36.88
91.00 28.69
92.00 26.66
93.00 28.03
94.00 34.20
95.00 40.21
96.00 32.77
97.00 33.00
98.00 35.73
99.00 34.02
100.00 34.85
101.00 43.16
102.00 39.97
103.00 36.47
104.00 37.51
105.00 37.27
106.00 37.31
107.00 40.82
108.00 47.47
109.00 51.32
110.00 52.93
111.00 58.64
112.00 54.10
113.00 46.51
114.00 46.15
115.00 51.33
116.00 50.04
117.00 44.76
118.00 43.04
119.00 44.71
120.00 50.95
121.00 50.13
122.00 51.63
123.00 47.54
124.00 37.47
125.00 33.72
126.00 33.06
127.00 34.41
128.00 37.24
129.00 41.75
130.00 41.74
131.00 38.38
132.00 40.14
133.00 47.66
134.00 42.04
135.00 40.90
136.00 41.07
137.00 36.91
138.00 37.66
139.00 45.87
140.00 40.61
141.00 39.69
142.00 40.78
143.00 33.47
144.00 31.11
145.00 32.72
146.00 36.74
147.00 40.47
148.00 45.57
149.00 54.80
150.00 61.60
151.00 55.71
152.00 50.08
153.00 47.64
154.00 44.35
155.00 46.87
156.00 47.20
157.00 38.33
158.00 34.99
159.00 33.81
160.00 33.34
161.00 33.64
162.00 34.96
163.00 36.95
164.00 38.60
165.00 39.70
166.00 41.58
167.00 44.05
168.00 44.33
169.00 43.68
170.00 44.31
171.00 43.87
172.00 41.16
173.00 39.59
174.00 40.00
175.00 41.84
176.00 41.89
177.00 37.92
178.00 34.95
179.00 34.12
180.00 35.26
181.00 37.22
182.00 38.81
183.00 39.12
184.00 38.02
185.00 36.79
186.00 37.42
187.00 42.76
188.00 53.83
189.00 40.11
190.00 37.69
191.00 39.79
192.00 46.95
193.00 51.87
194.00 48.33
195.00 42.82
196.00 37.73
197.00 35.91
198.00 36.48
199.00 37.52
200.00 36.59
201.00 34.91
202.00 34.80
203.00 36.95
204.00 38.33
205.00 36.26
206.00 35.32
207.00 35.91
208.00 36.97
209.00 38.97
210.00 43.15
211.00 48.83
212.00 46.03
213.00 40.95
214.00 39.04
215.00 39.54
216.00 40.30
217.00 39.30
218.00 37.71
219.00 35.81
220.00 34.10
221.00 33.72
222.00 35.06
223.00 37.16
224.00 38.11
225.00 39.06
226.00 40.30
227.00 38.97
228.00 36.60
229.00 34.72
230.00 33.98
231.00 34.93
232.00 35.88
233.00 34.76
234.00 34.17
235.00 35.15
236.00 36.85
237.00 39.31
238.00 40.39
239.00 37.12
240.00 35.32
241.00 36.26
242.00 38.73
243.00 40.50
244.00 41.85
245.00 40.87
246.00 37.05
247.00 34.60
248.00 33.93
249.00 34.78
250.00 36.73
251.00 38.14
252.00 37.90
253.00 37.06
254.00 37.05
255.00 39.56
256.00 47.61
257.00 51.47
258.00 45.98
259.00 44.15
260.00 39.40
261.00 35.06
262.00 32.75
263.00 32.39
264.00 33.62
265.00 35.55
266.00 36.60
267.00 36.15
268.00 35.21
269.00 34.37
270.00 33.39
271.00 32.18
272.00 31.33
273.00 31.31
274.00 31.52
275.00 31.47
276.00 32.42
277.00 35.64
278.00 37.07
279.00 33.32
280.00 31.22
281.00 31.57
282.00 33.80
283.00 35.18
284.00 33.23
285.00 31.08
286.00 30.25
287.00 31.08
288.00 33.59
289.00 36.57
290.00 37.36
291.00 36.44
292.00 37.21
293.00 45.04
294.00 42.27
295.00 32.12
296.00 27.14
297.00 23.26
298.00 19.87
299.00 17.04
300.00 14.80
301.00 13.12
302.00 11.92
303.00 11.16
304.00 10.86
305.00 11.04
306.00 11.75
307.00 13.10
308.00 15.34
309.00 19.00
310.00 25.73
311.00 33.93
312.00 25.78
313.00 22.12
314.00 21.32
315.00 22.68
316.00 27.30
317.00 38.19
318.00 29.89
319.00 25.23
320.00 24.60
321.00 26.35
322.00 28.73
323.00 26.22
324.00 22.27
325.00 20.51
326.00 21.21
327.00 25.55
328.00 36.40
329.00 25.96
330.00 20.72
331.00 19.39
332.00 20.72
333.00 25.23
334.00 30.40
335.00 26.25
336.00 24.68
337.00 28.52
338.00 34.30
339.00 24.35
340.00 20.78
341.00 21.14
342.00 25.82
343.00 33.69
344.00 25.63
345.00 22.55
346.00 23.87
347.00 32.50
348.00 32.10
349.00 23.28
350.00 21.59
351.00 23.75
352.00 29.81
353.00 29.58
354.00 26.72
355.00 30.67
356.00 36.00
357.00 25.36
358.00 24.49
359.00 22.29
