NAME ATR4518R7_2535_X_CO_M45_01T_yL
FREQUENCY 2535
GAIN 16.03 dBd
TILT	ELECTRICAL
COMMENT DATE 05.08.2013 -45 degrees polarized system Lever position 01T deg
HORIZONTAL 360
0.00 0.00
1.00 0.00
2.00 0.01
3.00 0.04
4.00 0.09
5.00 0.16
6.00 0.24
7.00 0.35
8.00 0.47
9.00 0.60
10.00 0.76
11.00 0.92
12.00 1.09
13.00 1.27
14.00 1.46
15.00 1.64
16.00 1.83
17.00 2.01
18.00 2.18
19.00 2.36
20.00 2.52
21.00 2.68
22.00 2.83
23.00 2.98
24.00 3.13
25.00 3.28
26.00 3.43
27.00 3.58
28.00 3.74
29.00 3.91
30.00 4.08
31.00 4.26
32.00 4.45
33.00 4.66
34.00 4.87
35.00 5.09
36.00 5.32
37.00 5.56
38.00 5.81
39.00 6.07
40.00 6.34
41.00 6.61
42.00 6.90
43.00 7.19
44.00 7.49
45.00 7.79
46.00 8.10
47.00 8.41
48.00 8.73
49.00 9.05
50.00 9.38
51.00 9.70
52.00 10.02
53.00 10.34
54.00 10.66
55.00 10.97
56.00 11.28
57.00 11.58
58.00 11.88
59.00 12.17
60.00 12.46
61.00 12.74
62.00 13.02
63.00 13.30
64.00 13.58
65.00 13.86
66.00 14.14
67.00 14.43
68.00 14.72
69.00 15.02
70.00 15.33
71.00 15.65
72.00 15.97
73.00 16.31
74.00 16.65
75.00 16.99
76.00 17.34
77.00 17.70
78.00 18.05
79.00 18.41
80.00 18.76
81.00 19.12
82.00 19.47
83.00 19.82
84.00 20.18
85.00 20.54
86.00 20.91
87.00 21.29
88.00 21.68
89.00 22.09
90.00 22.53
91.00 22.99
92.00 23.49
93.00 24.01
94.00 24.58
95.00 25.18
96.00 25.81
97.00 26.49
98.00 27.21
99.00 27.96
100.00 28.75
101.00 29.57
102.00 30.42
103.00 31.31
104.00 32.24
105.00 33.22
106.00 34.29
107.00 35.46
108.00 36.82
109.00 38.42
110.00 40.45
111.00 43.16
112.00 47.26
113.00 55.51
114.00 59.30
115.00 48.44
116.00 43.78
117.00 40.84
118.00 38.74
119.00 37.16
120.00 35.94
121.00 35.00
122.00 34.29
123.00 33.77
124.00 33.41
125.00 33.22
126.00 33.17
127.00 33.24
128.00 33.45
129.00 33.78
130.00 34.22
131.00 34.76
132.00 35.39
133.00 36.09
134.00 36.82
135.00 37.51
136.00 38.14
137.00 38.64
138.00 38.96
139.00 39.13
140.00 39.16
141.00 39.13
142.00 39.08
143.00 39.07
144.00 39.12
145.00 39.26
146.00 39.49
147.00 39.81
148.00 40.25
149.00 40.77
150.00 41.39
151.00 42.08
152.00 42.85
153.00 43.68
154.00 44.53
155.00 45.42
156.00 46.29
157.00 47.14
158.00 47.93
159.00 48.55
160.00 48.98
161.00 49.10
162.00 48.88
163.00 48.34
164.00 47.58
165.00 46.69
166.00 45.77
167.00 44.89
168.00 44.07
169.00 43.34
170.00 42.70
171.00 42.16
172.00 41.71
173.00 41.36
174.00 41.12
175.00 40.96
176.00 40.92
177.00 40.99
178.00 41.18
179.00 41.52
180.00 42.02
181.00 42.72
182.00 43.68
183.00 44.99
184.00 46.77
185.00 49.28
186.00 52.74
187.00 55.50
188.00 52.59
189.00 48.41
190.00 45.19
191.00 42.74
192.00 40.81
193.00 39.26
194.00 38.00
195.00 36.99
196.00 36.18
197.00 35.56
198.00 35.11
199.00 34.83
200.00 34.72
201.00 34.77
202.00 35.02
203.00 35.46
204.00 36.13
205.00 37.09
206.00 38.42
207.00 40.24
208.00 42.86
209.00 47.01
210.00 55.61
211.00 55.80
212.00 46.90
213.00 42.58
214.00 39.81
215.00 37.85
216.00 36.40
217.00 35.31
218.00 34.51
219.00 33.94
220.00 33.58
221.00 33.40
222.00 33.38
223.00 33.50
224.00 33.74
225.00 34.08
226.00 34.46
227.00 34.84
228.00 35.12
229.00 35.25
230.00 35.16
231.00 34.86
232.00 34.40
233.00 33.86
234.00 33.31
235.00 32.80
236.00 32.35
237.00 31.99
238.00 31.73
239.00 31.55
240.00 31.46
241.00 31.43
242.00 31.46
243.00 31.52
244.00 31.57
245.00 31.59
246.00 31.54
247.00 31.40
248.00 31.16
249.00 30.81
250.00 30.38
251.00 29.89
252.00 29.38
253.00 28.86
254.00 28.36
255.00 27.89
256.00 27.46
257.00 27.07
258.00 26.74
259.00 26.45
260.00 26.20
261.00 25.99
262.00 25.82
263.00 25.67
264.00 25.54
265.00 25.40
266.00 25.24
267.00 25.04
268.00 24.78
269.00 24.46
270.00 24.06
271.00 23.60
272.00 23.08
273.00 22.52
274.00 21.94
275.00 21.36
276.00 20.78
277.00 20.22
278.00 19.69
279.00 19.20
280.00 18.74
281.00 18.33
282.00 17.95
283.00 17.61
284.00 17.30
285.00 17.03
286.00 16.77
287.00 16.54
288.00 16.31
289.00 16.09
290.00 15.87
291.00 15.64
292.00 15.39
293.00 15.13
294.00 14.84
295.00 14.53
296.00 14.19
297.00 13.84
298.00 13.47
299.00 13.09
300.00 12.71
301.00 12.31
302.00 11.92
303.00 11.53
304.00 11.15
305.00 10.77
306.00 10.39
307.00 10.01
308.00 9.64
309.00 9.27
310.00 8.90
311.00 8.52
312.00 8.14
313.00 7.75
314.00 7.36
315.00 6.97
316.00 6.57
317.00 6.18
318.00 5.79
319.00 5.40
320.00 5.02
321.00 4.65
322.00 4.30
323.00 3.96
324.00 3.64
325.00 3.34
326.00 3.06
327.00 2.79
328.00 2.55
329.00 2.33
330.00 2.13
331.00 1.95
332.00 1.78
333.00 1.64
334.00 1.50
335.00 1.39
336.00 1.28
337.00 1.19
338.00 1.11
339.00 1.04
340.00 0.98
341.00 0.93
342.00 0.88
343.00 0.83
344.00 0.79
345.00 0.74
346.00 0.70
347.00 0.66
348.00 0.61
349.00 0.56
350.00 0.51
351.00 0.45
352.00 0.39
353.00 0.33
354.00 0.27
355.00 0.21
356.00 0.15
357.00 0.10
358.00 0.06
359.00 0.02
VERTICAL 360
0.00 0.96
1.00 0.02
2.00 0.29
3.00 1.88
4.00 5.28
5.00 12.22
6.00 31.12
7.00 13.65
8.00 11.05
9.00 11.81
10.00 14.44
11.00 15.22
12.00 13.26
13.00 12.85
14.00 14.99
15.00 19.34
16.00 19.98
17.00 17.37
18.00 16.58
19.00 18.29
20.00 23.56
21.00 22.32
22.00 17.56
23.00 16.67
24.00 18.72
25.00 22.97
26.00 27.14
27.00 29.13
28.00 29.66
29.00 30.87
30.00 29.70
31.00 23.79
32.00 20.39
33.00 19.46
34.00 20.55
35.00 23.56
36.00 26.84
37.00 24.16
38.00 21.14
39.00 20.35
40.00 21.61
41.00 25.02
42.00 32.38
43.00 36.05
44.00 27.84
45.00 25.58
46.00 26.43
47.00 29.65
48.00 33.32
49.00 33.75
50.00 32.82
51.00 31.73
52.00 30.99
53.00 31.83
54.00 35.43
55.00 37.29
56.00 31.76
57.00 28.51
58.00 27.39
59.00 27.80
60.00 28.27
61.00 26.63
62.00 24.37
63.00 22.93
64.00 22.16
65.00 21.56
66.00 20.94
67.00 20.59
68.00 20.78
69.00 21.46
70.00 22.27
71.00 22.77
72.00 22.82
73.00 22.81
74.00 23.10
75.00 23.68
76.00 24.52
77.00 25.76
78.00 27.29
79.00 28.61
80.00 29.51
81.00 30.06
82.00 31.10
83.00 34.48
84.00 40.15
85.00 34.58
86.00 30.81
87.00 29.31
88.00 28.96
89.00 29.96
90.00 32.93
91.00 37.76
92.00 38.84
93.00 33.76
94.00 29.83
95.00 28.45
96.00 29.75
97.00 33.99
98.00 39.99
99.00 39.90
100.00 37.38
101.00 36.41
102.00 38.88
103.00 50.02
104.00 47.12
105.00 42.84
106.00 43.91
107.00 47.01
108.00 70.68
109.00 44.68
110.00 40.62
111.00 42.29
112.00 46.58
113.00 44.28
114.00 43.64
115.00 43.45
116.00 42.83
117.00 42.66
118.00 39.28
119.00 36.98
120.00 37.61
121.00 40.42
122.00 42.81
123.00 45.65
124.00 50.06
125.00 43.65
126.00 40.39
127.00 40.09
128.00 41.22
129.00 42.88
130.00 44.65
131.00 42.49
132.00 39.71
133.00 39.99
134.00 44.19
135.00 45.99
136.00 39.37
137.00 35.67
138.00 34.76
139.00 37.06
140.00 44.72
141.00 55.68
142.00 56.81
143.00 47.78
144.00 39.47
145.00 36.16
146.00 34.03
147.00 33.53
148.00 36.81
149.00 57.43
150.00 38.16
151.00 34.42
152.00 34.37
153.00 35.56
154.00 38.21
155.00 41.66
156.00 39.73
157.00 40.06
158.00 44.75
159.00 41.28
160.00 38.83
161.00 39.35
162.00 38.99
163.00 38.91
164.00 42.05
165.00 49.90
166.00 55.65
167.00 55.48
168.00 49.68
169.00 47.22
170.00 46.81
171.00 43.35
172.00 41.06
173.00 42.77
174.00 45.89
175.00 39.77
176.00 37.37
177.00 39.06
178.00 42.62
179.00 42.18
180.00 42.82
181.00 42.07
182.00 38.92
183.00 38.37
184.00 39.28
185.00 39.79
186.00 41.64
187.00 41.33
188.00 36.41
189.00 34.00
190.00 34.22
191.00 36.87
192.00 41.53
193.00 41.08
194.00 37.74
195.00 36.46
196.00 36.10
197.00 34.86
198.00 33.26
199.00 32.73
200.00 33.76
201.00 35.92
202.00 37.32
203.00 37.52
204.00 38.95
205.00 42.57
206.00 45.30
207.00 43.57
208.00 41.09
209.00 40.13
210.00 41.94
211.00 41.57
212.00 37.62
213.00 36.78
214.00 39.34
215.00 42.18
216.00 41.44
217.00 42.80
218.00 43.75
219.00 41.48
220.00 42.15
221.00 47.44
222.00 47.84
223.00 41.79
224.00 37.68
225.00 34.72
226.00 32.87
227.00 31.82
228.00 31.37
229.00 31.83
230.00 33.56
231.00 36.24
232.00 37.84
233.00 37.14
234.00 36.10
235.00 36.03
236.00 37.13
237.00 37.90
238.00 36.36
239.00 34.21
240.00 32.68
241.00 31.65
242.00 30.77
243.00 29.97
244.00 29.50
245.00 29.47
246.00 30.05
247.00 31.60
248.00 34.56
249.00 39.60
250.00 52.30
251.00 45.02
252.00 39.35
253.00 39.72
254.00 46.78
255.00 51.52
256.00 41.69
257.00 36.92
258.00 33.23
259.00 30.94
260.00 29.45
261.00 28.13
262.00 27.12
263.00 26.90
264.00 27.75
265.00 29.67
266.00 32.05
267.00 33.65
268.00 33.07
269.00 31.44
270.00 30.78
271.00 31.01
272.00 31.88
273.00 35.58
274.00 49.71
275.00 34.17
276.00 29.49
277.00 27.08
278.00 25.31
279.00 24.62
280.00 25.29
281.00 26.62
282.00 27.03
283.00 25.84
284.00 24.31
285.00 23.59
286.00 23.95
287.00 24.99
288.00 26.06
289.00 27.00
290.00 28.14
291.00 29.24
292.00 29.16
293.00 28.20
294.00 27.61
295.00 27.49
296.00 27.07
297.00 26.03
298.00 25.05
299.00 24.78
300.00 25.18
301.00 25.57
302.00 25.13
303.00 23.90
304.00 22.60
305.00 21.75
306.00 21.55
307.00 21.96
308.00 22.61
309.00 23.11
310.00 23.61
311.00 24.14
312.00 23.85
313.00 22.64
314.00 21.83
315.00 22.43
316.00 25.19
317.00 29.73
318.00 26.91
319.00 23.31
320.00 22.54
321.00 24.27
322.00 28.22
323.00 28.44
324.00 23.39
325.00 20.03
326.00 18.55
327.00 18.59
328.00 19.62
329.00 20.58
330.00 20.72
331.00 20.52
332.00 20.40
333.00 20.22
334.00 19.67
335.00 18.94
336.00 18.75
337.00 20.04
338.00 24.52
339.00 54.10
340.00 24.17
341.00 19.43
342.00 18.51
343.00 20.50
344.00 26.49
345.00 27.95
346.00 21.64
347.00 19.78
348.00 21.34
349.00 27.04
350.00 27.28
351.00 22.43
352.00 21.47
353.00 22.73
354.00 24.77
355.00 31.02
356.00 25.33
357.00 13.39
358.00 7.10
359.00 3.22
