NAME ATR4518R7_1880_X_CO_P45_00T_yL
FREQUENCY 1880
GAIN 14.85 dBd
TILT	ELECTRICAL
COMMENT DATE 05.08.2013 +45 degrees polarized system Lever position 00T deg
HORIZONTAL 360
0.00 0.08
1.00 0.05
2.00 0.03
3.00 0.02
4.00 0.01
5.00 0.00
6.00 0.00
7.00 0.01
8.00 0.02
9.00 0.04
10.00 0.06
11.00 0.10
12.00 0.14
13.00 0.19
14.00 0.25
15.00 0.31
16.00 0.39
17.00 0.47
18.00 0.56
19.00 0.66
20.00 0.77
21.00 0.88
22.00 1.00
23.00 1.13
24.00 1.27
25.00 1.41
26.00 1.57
27.00 1.72
28.00 1.89
29.00 2.06
30.00 2.23
31.00 2.41
32.00 2.60
33.00 2.79
34.00 2.99
35.00 3.19
36.00 3.39
37.00 3.60
38.00 3.81
39.00 4.03
40.00 4.26
41.00 4.48
42.00 4.71
43.00 4.94
44.00 5.18
45.00 5.42
46.00 5.66
47.00 5.91
48.00 6.16
49.00 6.41
50.00 6.66
51.00 6.92
52.00 7.18
53.00 7.43
54.00 7.69
55.00 7.95
56.00 8.22
57.00 8.48
58.00 8.75
59.00 9.01
60.00 9.28
61.00 9.55
62.00 9.82
63.00 10.09
64.00 10.36
65.00 10.63
66.00 10.90
67.00 11.18
68.00 11.45
69.00 11.73
70.00 12.00
71.00 12.27
72.00 12.55
73.00 12.82
74.00 13.10
75.00 13.37
76.00 13.64
77.00 13.91
78.00 14.18
79.00 14.45
80.00 14.72
81.00 14.99
82.00 15.27
83.00 15.54
84.00 15.82
85.00 16.10
86.00 16.39
87.00 16.69
88.00 17.00
89.00 17.32
90.00 17.66
91.00 18.00
92.00 18.37
93.00 18.76
94.00 19.16
95.00 19.58
96.00 20.03
97.00 20.50
98.00 20.99
99.00 21.50
100.00 22.03
101.00 22.58
102.00 23.14
103.00 23.71
104.00 24.29
105.00 24.87
106.00 25.43
107.00 25.98
108.00 26.51
109.00 27.01
110.00 27.49
111.00 27.93
112.00 28.34
113.00 28.73
114.00 29.09
115.00 29.44
116.00 29.77
117.00 30.09
118.00 30.39
119.00 30.66
120.00 30.89
121.00 31.07
122.00 31.19
123.00 31.23
124.00 31.18
125.00 31.06
126.00 30.87
127.00 30.64
128.00 30.37
129.00 30.09
130.00 29.81
131.00 29.54
132.00 29.30
133.00 29.10
134.00 28.93
135.00 28.79
136.00 28.69
137.00 28.63
138.00 28.59
139.00 28.59
140.00 28.60
141.00 28.63
142.00 28.68
143.00 28.73
144.00 28.80
145.00 28.86
146.00 28.94
147.00 29.02
148.00 29.12
149.00 29.23
150.00 29.36
151.00 29.51
152.00 29.70
153.00 29.91
154.00 30.16
155.00 30.44
156.00 30.76
157.00 31.10
158.00 31.46
159.00 31.83
160.00 32.19
161.00 32.53
162.00 32.84
163.00 33.09
164.00 33.28
165.00 33.42
166.00 33.52
167.00 33.59
168.00 33.66
169.00 33.75
170.00 33.88
171.00 34.08
172.00 34.35
173.00 34.73
174.00 35.22
175.00 35.85
176.00 36.64
177.00 37.62
178.00 38.81
179.00 40.27
180.00 42.03
181.00 44.10
182.00 46.31
183.00 47.96
184.00 47.98
185.00 46.62
186.00 45.00
187.00 43.64
188.00 42.65
189.00 42.01
190.00 41.70
191.00 41.73
192.00 42.10
193.00 42.86
194.00 44.14
195.00 46.13
196.00 49.35
197.00 55.40
198.00 61.14
199.00 51.25
200.00 46.08
201.00 42.75
202.00 40.33
203.00 38.47
204.00 36.99
205.00 35.81
206.00 34.85
207.00 34.10
208.00 33.50
209.00 33.07
210.00 32.78
211.00 32.62
212.00 32.60
213.00 32.70
214.00 32.94
215.00 33.31
216.00 33.85
217.00 34.54
218.00 35.41
219.00 36.49
220.00 37.81
221.00 39.37
222.00 41.09
223.00 42.63
224.00 43.23
225.00 42.38
226.00 40.70
227.00 38.91
228.00 37.29
229.00 35.90
230.00 34.73
231.00 33.74
232.00 32.91
233.00 32.21
234.00 31.62
235.00 31.14
236.00 30.74
237.00 30.41
238.00 30.15
239.00 29.95
240.00 29.80
241.00 29.68
242.00 29.60
243.00 29.53
244.00 29.46
245.00 29.39
246.00 29.30
247.00 29.19
248.00 29.03
249.00 28.84
250.00 28.59
251.00 28.30
252.00 27.97
253.00 27.61
254.00 27.21
255.00 26.81
256.00 26.39
257.00 25.97
258.00 25.56
259.00 25.16
260.00 24.76
261.00 24.38
262.00 24.01
263.00 23.66
264.00 23.32
265.00 22.98
266.00 22.66
267.00 22.34
268.00 22.02
269.00 21.71
270.00 21.40
271.00 21.08
272.00 20.76
273.00 20.44
274.00 20.11
275.00 19.78
276.00 19.44
277.00 19.10
278.00 18.75
279.00 18.41
280.00 18.06
281.00 17.71
282.00 17.36
283.00 17.02
284.00 16.67
285.00 16.33
286.00 15.99
287.00 15.66
288.00 15.33
289.00 15.00
290.00 14.68
291.00 14.37
292.00 14.06
293.00 13.75
294.00 13.45
295.00 13.16
296.00 12.87
297.00 12.58
298.00 12.31
299.00 12.03
300.00 11.76
301.00 11.50
302.00 11.24
303.00 10.99
304.00 10.74
305.00 10.49
306.00 10.24
307.00 9.99
308.00 9.75
309.00 9.51
310.00 9.26
311.00 9.01
312.00 8.76
313.00 8.51
314.00 8.26
315.00 8.00
316.00 7.73
317.00 7.47
318.00 7.20
319.00 6.93
320.00 6.66
321.00 6.38
322.00 6.11
323.00 5.83
324.00 5.56
325.00 5.28
326.00 5.01
327.00 4.74
328.00 4.48
329.00 4.22
330.00 3.97
331.00 3.72
332.00 3.48
333.00 3.25
334.00 3.03
335.00 2.81
336.00 2.60
337.00 2.40
338.00 2.21
339.00 2.03
340.00 1.86
341.00 1.70
342.00 1.54
343.00 1.40
344.00 1.26
345.00 1.13
346.00 1.02
347.00 0.91
348.00 0.80
349.00 0.71
350.00 0.62
351.00 0.54
352.00 0.47
353.00 0.40
354.00 0.34
355.00 0.29
356.00 0.23
357.00 0.19
358.00 0.15
359.00 0.11
VERTICAL 360
0.00 0.00
1.00 0.27
2.00 1.29
3.00 3.19
4.00 6.25
5.00 11.22
6.00 20.82
7.00 22.46
8.00 15.96
9.00 14.38
10.00 15.28
11.00 18.52
12.00 23.66
13.00 21.42
14.00 17.55
15.00 15.94
16.00 15.92
17.00 16.98
18.00 18.48
19.00 19.29
20.00 18.85
21.00 18.12
22.00 17.91
23.00 18.50
24.00 20.07
25.00 23.09
26.00 29.45
27.00 36.77
28.00 25.53
29.00 21.07
30.00 18.92
31.00 18.06
32.00 17.98
33.00 18.13
34.00 17.94
35.00 17.28
36.00 16.48
37.00 15.78
38.00 15.26
39.00 14.93
40.00 14.77
41.00 14.84
42.00 15.23
43.00 16.05
44.00 17.47
45.00 19.69
46.00 23.16
47.00 29.01
48.00 41.67
49.00 32.99
50.00 28.23
51.00 26.39
52.00 25.73
53.00 25.43
54.00 25.18
55.00 25.18
56.00 25.88
57.00 27.65
58.00 30.86
59.00 36.18
60.00 43.53
61.00 41.73
62.00 37.68
63.00 34.82
64.00 32.73
65.00 31.42
66.00 30.84
67.00 30.94
68.00 31.68
69.00 32.94
70.00 34.22
71.00 34.83
72.00 34.58
73.00 33.99
74.00 33.65
75.00 33.83
76.00 34.45
77.00 35.18
78.00 35.69
79.00 35.95
80.00 36.16
81.00 36.55
82.00 37.18
83.00 38.17
84.00 40.14
85.00 44.55
86.00 58.49
87.00 49.70
88.00 43.28
89.00 39.30
90.00 36.13
91.00 34.51
92.00 35.04
93.00 38.66
94.00 46.41
95.00 40.96
96.00 37.35
97.00 37.04
98.00 38.60
99.00 41.28
100.00 45.10
101.00 46.11
102.00 42.24
103.00 40.24
104.00 40.35
105.00 41.67
106.00 42.53
107.00 41.69
108.00 40.16
109.00 39.12
110.00 38.89
111.00 39.13
112.00 39.23
113.00 38.90
114.00 38.50
115.00 38.73
116.00 40.14
117.00 42.82
118.00 44.51
119.00 42.97
120.00 41.64
121.00 41.73
122.00 42.48
123.00 42.67
124.00 42.86
125.00 44.70
126.00 48.39
127.00 48.27
128.00 45.30
129.00 42.90
130.00 40.53
131.00 38.90
132.00 38.44
133.00 38.48
134.00 37.94
135.00 37.08
136.00 36.87
137.00 37.63
138.00 39.13
139.00 40.87
140.00 42.12
141.00 41.60
142.00 39.61
143.00 38.09
144.00 37.78
145.00 38.51
146.00 39.66
147.00 40.56
148.00 40.49
149.00 39.32
150.00 38.42
151.00 38.69
152.00 39.49
153.00 39.00
154.00 37.52
155.00 36.37
156.00 35.82
157.00 36.00
158.00 37.38
159.00 40.34
160.00 41.99
161.00 38.19
162.00 34.81
163.00 32.97
164.00 32.35
165.00 32.62
166.00 33.33
167.00 34.08
168.00 34.91
169.00 36.26
170.00 38.02
171.00 39.27
172.00 40.21
173.00 42.57
174.00 44.41
175.00 41.11
176.00 38.95
177.00 39.64
178.00 42.92
179.00 46.89
180.00 45.80
181.00 42.98
182.00 41.80
183.00 42.44
184.00 44.78
185.00 47.06
186.00 46.76
187.00 46.01
188.00 45.99
189.00 46.53
190.00 46.25
191.00 43.57
192.00 40.85
193.00 39.16
194.00 37.94
195.00 36.78
196.00 35.87
197.00 35.24
198.00 34.56
199.00 33.83
200.00 33.51
201.00 34.12
202.00 35.83
203.00 39.09
204.00 45.51
205.00 51.28
206.00 41.42
207.00 36.98
208.00 34.91
209.00 34.35
210.00 34.79
211.00 35.35
212.00 35.09
213.00 34.17
214.00 33.34
215.00 32.84
216.00 32.74
217.00 33.05
218.00 33.86
219.00 35.16
220.00 36.80
221.00 38.40
222.00 39.27
223.00 39.34
224.00 39.74
225.00 41.20
226.00 42.56
227.00 41.33
228.00 39.47
229.00 38.70
230.00 38.99
231.00 39.92
232.00 41.13
233.00 42.57
234.00 44.24
235.00 45.45
236.00 45.27
237.00 44.36
238.00 43.79
239.00 44.53
240.00 48.54
241.00 60.41
242.00 46.05
243.00 41.54
244.00 40.55
245.00 41.91
246.00 45.53
247.00 51.50
248.00 49.75
249.00 44.75
250.00 42.91
251.00 43.70
252.00 45.45
253.00 43.11
254.00 39.68
255.00 37.55
256.00 36.24
257.00 35.24
258.00 34.50
259.00 34.18
260.00 34.40
261.00 35.11
262.00 36.18
263.00 37.49
264.00 39.02
265.00 40.67
266.00 41.98
267.00 42.34
268.00 42.04
269.00 41.83
270.00 42.01
271.00 42.69
272.00 44.12
273.00 46.46
274.00 49.27
275.00 51.15
276.00 51.55
277.00 51.62
278.00 49.16
279.00 43.45
280.00 39.09
281.00 36.68
282.00 35.88
283.00 36.38
284.00 37.71
285.00 39.00
286.00 39.52
287.00 40.04
288.00 42.28
289.00 44.70
290.00 38.69
291.00 33.68
292.00 30.71
293.00 28.96
294.00 27.91
295.00 27.24
296.00 26.80
297.00 26.63
298.00 26.89
299.00 27.82
300.00 29.67
301.00 32.86
302.00 38.11
303.00 43.78
304.00 39.19
305.00 34.78
306.00 31.60
307.00 29.06
308.00 27.14
309.00 25.98
310.00 25.66
311.00 26.17
312.00 27.27
313.00 28.17
314.00 27.64
315.00 25.61
316.00 23.04
317.00 20.57
318.00 18.44
319.00 16.78
320.00 15.62
321.00 14.94
322.00 14.69
323.00 14.85
324.00 15.48
325.00 16.77
326.00 19.16
327.00 23.79
328.00 37.95
329.00 28.09
330.00 21.47
331.00 18.71
332.00 17.75
333.00 18.25
334.00 20.53
335.00 26.34
336.00 42.00
337.00 23.97
338.00 19.44
339.00 17.81
340.00 18.11
341.00 20.58
342.00 27.54
343.00 29.36
344.00 20.30
345.00 16.83
346.00 15.90
347.00 17.03
348.00 20.69
349.00 27.48
350.00 24.23
351.00 20.50
352.00 20.89
353.00 25.54
354.00 18.16
355.00 10.82
356.00 6.33
357.00 3.40
358.00 1.50
359.00 0.40
