NAME ATR4518R7_2535_X_CO_M45_10T_yyR
FREQUENCY 2535
GAIN 15.01 dBd
TILT	ELECTRICAL
COMMENT DATE 05.08.2013 -45 degrees polarized system Lever position 10T deg
HORIZONTAL 360
0.00 0.02
1.00 0.05
2.00 0.09
3.00 0.13
4.00 0.19
5.00 0.25
6.00 0.32
7.00 0.40
8.00 0.49
9.00 0.58
10.00 0.68
11.00 0.78
12.00 0.89
13.00 1.00
14.00 1.12
15.00 1.25
16.00 1.38
17.00 1.51
18.00 1.66
19.00 1.81
20.00 1.97
21.00 2.13
22.00 2.31
23.00 2.49
24.00 2.68
25.00 2.89
26.00 3.10
27.00 3.32
28.00 3.56
29.00 3.80
30.00 4.05
31.00 4.32
32.00 4.59
33.00 4.87
34.00 5.17
35.00 5.47
36.00 5.78
37.00 6.10
38.00 6.42
39.00 6.76
40.00 7.11
41.00 7.46
42.00 7.82
43.00 8.19
44.00 8.57
45.00 8.96
46.00 9.36
47.00 9.76
48.00 10.16
49.00 10.58
50.00 10.99
51.00 11.41
52.00 11.83
53.00 12.25
54.00 12.66
55.00 13.07
56.00 13.46
57.00 13.84
58.00 14.21
59.00 14.56
60.00 14.89
61.00 15.21
62.00 15.52
63.00 15.81
64.00 16.10
65.00 16.38
66.00 16.67
67.00 16.96
68.00 17.27
69.00 17.59
70.00 17.93
71.00 18.30
72.00 18.69
73.00 19.10
74.00 19.54
75.00 20.00
76.00 20.48
77.00 20.96
78.00 21.45
79.00 21.94
80.00 22.40
81.00 22.83
82.00 23.23
83.00 23.58
84.00 23.89
85.00 24.15
86.00 24.38
87.00 24.58
88.00 24.78
89.00 24.99
90.00 25.21
91.00 25.48
92.00 25.80
93.00 26.18
94.00 26.63
95.00 27.16
96.00 27.79
97.00 28.52
98.00 29.37
99.00 30.32
100.00 31.39
101.00 32.55
102.00 33.75
103.00 34.87
104.00 35.76
105.00 36.22
106.00 36.20
107.00 35.82
108.00 35.29
109.00 34.75
110.00 34.31
111.00 34.01
112.00 33.87
113.00 33.91
114.00 34.15
115.00 34.59
116.00 35.25
117.00 36.16
118.00 37.36
119.00 38.90
120.00 40.81
121.00 43.00
122.00 44.84
123.00 44.98
124.00 43.35
125.00 41.33
126.00 39.59
127.00 38.22
128.00 37.20
129.00 36.48
130.00 36.02
131.00 35.80
132.00 35.81
133.00 36.04
134.00 36.48
135.00 37.16
136.00 38.06
137.00 39.16
138.00 40.39
139.00 41.51
140.00 42.12
141.00 41.86
142.00 40.88
143.00 39.60
144.00 38.36
145.00 37.29
146.00 36.44
147.00 35.81
148.00 35.38
149.00 35.14
150.00 35.12
151.00 35.29
152.00 35.68
153.00 36.30
154.00 37.19
155.00 38.41
156.00 40.05
157.00 42.27
158.00 45.41
159.00 49.97
160.00 53.46
161.00 49.23
162.00 45.10
163.00 42.32
164.00 40.39
165.00 39.02
166.00 38.06
167.00 37.44
168.00 37.11
169.00 37.03
170.00 37.23
171.00 37.70
172.00 38.48
173.00 39.63
174.00 41.26
175.00 43.59
176.00 47.07
177.00 52.22
178.00 52.86
179.00 47.36
180.00 43.44
181.00 40.72
182.00 38.73
183.00 37.23
184.00 36.07
185.00 35.17
186.00 34.50
187.00 34.00
188.00 33.65
189.00 33.44
190.00 33.34
191.00 33.34
192.00 33.43
193.00 33.57
194.00 33.77
195.00 33.99
196.00 34.20
197.00 34.39
198.00 34.54
199.00 34.64
200.00 34.66
201.00 34.62
202.00 34.53
203.00 34.39
204.00 34.22
205.00 34.04
206.00 33.84
207.00 33.66
208.00 33.48
209.00 33.33
210.00 33.21
211.00 33.12
212.00 33.08
213.00 33.09
214.00 33.16
215.00 33.29
216.00 33.50
217.00 33.77
218.00 34.10
219.00 34.47
220.00 34.82
221.00 35.08
222.00 35.17
223.00 35.00
224.00 34.55
225.00 33.85
226.00 32.99
227.00 32.07
228.00 31.16
229.00 30.28
230.00 29.49
231.00 28.79
232.00 28.19
233.00 27.67
234.00 27.26
235.00 26.93
236.00 26.70
237.00 26.54
238.00 26.47
239.00 26.47
240.00 26.55
241.00 26.68
242.00 26.86
243.00 27.08
244.00 27.32
245.00 27.55
246.00 27.75
247.00 27.90
248.00 27.98
249.00 27.96
250.00 27.86
251.00 27.68
252.00 27.45
253.00 27.19
254.00 26.92
255.00 26.67
256.00 26.44
257.00 26.26
258.00 26.12
259.00 26.04
260.00 26.02
261.00 26.06
262.00 26.15
263.00 26.30
264.00 26.48
265.00 26.69
266.00 26.91
267.00 27.09
268.00 27.21
269.00 27.21
270.00 27.07
271.00 26.75
272.00 26.27
273.00 25.64
274.00 24.92
275.00 24.14
276.00 23.34
277.00 22.54
278.00 21.75
279.00 21.00
280.00 20.28
281.00 19.59
282.00 18.94
283.00 18.33
284.00 17.76
285.00 17.22
286.00 16.71
287.00 16.22
288.00 15.77
289.00 15.33
290.00 14.92
291.00 14.53
292.00 14.15
293.00 13.78
294.00 13.43
295.00 13.08
296.00 12.74
297.00 12.41
298.00 12.07
299.00 11.74
300.00 11.42
301.00 11.09
302.00 10.76
303.00 10.43
304.00 10.10
305.00 9.76
306.00 9.43
307.00 9.10
308.00 8.76
309.00 8.43
310.00 8.10
311.00 7.77
312.00 7.45
313.00 7.13
314.00 6.81
315.00 6.51
316.00 6.20
317.00 5.91
318.00 5.62
319.00 5.35
320.00 5.08
321.00 4.82
322.00 4.57
323.00 4.33
324.00 4.11
325.00 3.89
326.00 3.68
327.00 3.48
328.00 3.29
329.00 3.10
330.00 2.93
331.00 2.76
332.00 2.60
333.00 2.44
334.00 2.29
335.00 2.15
336.00 2.01
337.00 1.87
338.00 1.73
339.00 1.60
340.00 1.47
341.00 1.34
342.00 1.21
343.00 1.09
344.00 0.97
345.00 0.86
346.00 0.74
347.00 0.64
348.00 0.54
349.00 0.44
350.00 0.36
351.00 0.28
352.00 0.21
353.00 0.15
354.00 0.10
355.00 0.06
356.00 0.03
357.00 0.01
358.00 0.00
359.00 0.01
VERTICAL 360
0.00 16.67
1.00 15.32
2.00 14.49
3.00 13.79
4.00 12.32
5.00 9.61
6.00 6.48
7.00 3.73
8.00 1.67
9.00 0.40
10.00 0.00
11.00 0.60
12.00 2.49
13.00 6.27
14.00 14.29
15.00 29.00
16.00 13.66
17.00 11.32
18.00 12.24
19.00 15.88
20.00 20.39
21.00 18.13
22.00 16.11
23.00 17.31
24.00 22.84
25.00 33.51
26.00 22.94
27.00 20.37
28.00 21.85
29.00 25.91
30.00 23.97
31.00 19.41
32.00 17.22
33.00 16.97
34.00 18.88
35.00 24.75
36.00 32.09
37.00 22.76
38.00 20.13
39.00 20.78
40.00 23.92
41.00 29.99
42.00 37.03
43.00 30.75
44.00 26.64
45.00 25.27
46.00 26.26
47.00 30.15
48.00 34.40
49.00 30.90
50.00 28.70
51.00 28.73
52.00 30.09
53.00 32.74
54.00 38.84
55.00 45.19
56.00 33.21
57.00 28.75
58.00 26.52
59.00 24.98
60.00 23.92
61.00 23.74
62.00 24.60
63.00 26.10
64.00 27.10
65.00 26.98
66.00 26.78
67.00 27.43
68.00 28.88
69.00 30.20
70.00 30.48
71.00 30.24
72.00 30.63
73.00 32.36
74.00 35.32
75.00 36.58
76.00 34.78
77.00 32.86
78.00 31.87
79.00 32.43
80.00 34.40
81.00 35.82
82.00 34.24
83.00 31.55
84.00 30.32
85.00 30.72
86.00 31.71
87.00 35.11
88.00 42.87
89.00 30.68
90.00 27.23
91.00 28.47
92.00 31.77
93.00 30.72
94.00 30.56
95.00 33.04
96.00 32.12
97.00 30.25
98.00 30.39
99.00 31.64
100.00 33.83
101.00 36.34
102.00 37.30
103.00 37.19
104.00 35.90
105.00 35.35
106.00 37.09
107.00 40.24
108.00 42.64
109.00 43.09
110.00 41.24
111.00 40.97
112.00 42.84
113.00 44.48
114.00 45.21
115.00 45.73
116.00 47.35
117.00 49.37
118.00 45.09
119.00 43.55
120.00 46.83
121.00 53.66
122.00 52.47
123.00 46.50
124.00 41.39
125.00 39.49
126.00 40.08
127.00 41.86
128.00 44.22
129.00 46.50
130.00 43.84
131.00 40.54
132.00 38.67
133.00 37.24
134.00 36.24
135.00 36.13
136.00 37.02
137.00 38.50
138.00 39.36
139.00 39.48
140.00 40.69
141.00 44.97
142.00 56.03
143.00 48.37
144.00 44.31
145.00 44.64
146.00 46.51
147.00 45.50
148.00 41.34
149.00 38.35
150.00 36.93
151.00 35.58
152.00 34.32
153.00 34.70
154.00 37.13
155.00 39.57
156.00 40.50
157.00 42.84
158.00 47.01
159.00 51.70
160.00 49.14
161.00 43.59
162.00 41.39
163.00 41.18
164.00 41.92
165.00 42.88
166.00 44.61
167.00 48.14
168.00 51.88
169.00 58.15
170.00 52.86
171.00 46.54
172.00 45.58
173.00 44.35
174.00 41.68
175.00 38.11
176.00 33.99
177.00 31.59
178.00 31.36
179.00 32.63
180.00 34.22
181.00 35.89
182.00 38.62
183.00 42.64
184.00 44.35
185.00 40.60
186.00 36.24
187.00 33.43
188.00 32.22
189.00 31.96
190.00 32.12
191.00 33.08
192.00 35.87
193.00 42.75
194.00 48.42
195.00 40.51
196.00 37.95
197.00 36.22
198.00 34.43
199.00 33.76
200.00 35.23
201.00 39.55
202.00 41.70
203.00 38.71
204.00 36.98
205.00 35.00
206.00 34.00
207.00 34.02
208.00 33.18
209.00 32.74
210.00 34.19
211.00 36.47
212.00 37.03
213.00 35.18
214.00 33.92
215.00 35.64
216.00 39.16
217.00 37.83
218.00 37.20
219.00 38.88
220.00 39.75
221.00 40.21
222.00 39.71
223.00 38.76
224.00 40.20
225.00 44.57
226.00 49.61
227.00 48.32
228.00 44.31
229.00 42.39
230.00 42.52
231.00 43.62
232.00 45.46
233.00 52.98
234.00 48.24
235.00 41.48
236.00 41.28
237.00 42.35
238.00 38.45
239.00 35.70
240.00 34.82
241.00 34.28
242.00 33.30
243.00 32.59
244.00 33.27
245.00 36.04
246.00 41.22
247.00 47.80
248.00 49.78
249.00 48.96
250.00 52.45
251.00 60.04
252.00 60.15
253.00 54.63
254.00 45.22
255.00 41.35
256.00 40.06
257.00 39.98
258.00 40.24
259.00 40.35
260.00 39.96
261.00 39.18
262.00 39.07
263.00 40.01
264.00 41.18
265.00 42.14
266.00 42.92
267.00 42.39
268.00 39.95
269.00 36.98
270.00 34.84
271.00 33.49
272.00 32.44
273.00 31.63
274.00 31.06
275.00 30.81
276.00 31.10
277.00 31.79
278.00 32.10
279.00 31.32
280.00 29.71
281.00 27.92
282.00 26.32
283.00 25.03
284.00 24.18
285.00 23.88
286.00 24.04
287.00 24.25
288.00 24.06
289.00 23.64
290.00 23.58
291.00 24.28
292.00 25.90
293.00 28.52
294.00 32.32
295.00 37.47
296.00 41.93
297.00 43.40
298.00 42.45
299.00 36.98
300.00 31.86
301.00 27.26
302.00 22.96
303.00 19.41
304.00 16.72
305.00 14.67
306.00 13.04
307.00 11.72
308.00 10.79
309.00 10.31
310.00 10.26
311.00 10.65
312.00 11.59
313.00 13.34
314.00 16.44
315.00 21.98
316.00 27.40
317.00 20.87
318.00 17.22
319.00 16.14
320.00 17.06
321.00 20.01
322.00 23.97
323.00 24.10
324.00 22.57
325.00 22.96
326.00 26.07
327.00 34.97
328.00 30.49
329.00 23.43
330.00 21.26
331.00 22.19
332.00 26.55
333.00 27.58
334.00 21.24
335.00 18.39
336.00 18.88
337.00 25.10
338.00 27.37
339.00 17.40
340.00 13.30
341.00 11.45
342.00 11.07
343.00 11.94
344.00 14.24
345.00 18.66
346.00 28.96
347.00 28.91
348.00 21.57
349.00 20.32
350.00 21.42
351.00 23.29
352.00 24.73
353.00 26.11
354.00 26.68
355.00 25.72
356.00 24.84
357.00 23.51
358.00 21.09
359.00 18.62
