NAME ATR4518R7_1750_X_CO_P45_10T_yL
FREQUENCY 1750
GAIN 14.70 dBd
TILT	ELECTRICAL
COMMENT DATE 05.08.2013 +45 degrees polarized system Lever position 10T deg
HORIZONTAL 360
0.00 0.00
1.00 0.00
2.00 0.01
3.00 0.02
4.00 0.04
5.00 0.06
6.00 0.09
7.00 0.12
8.00 0.16
9.00 0.20
10.00 0.24
11.00 0.29
12.00 0.35
13.00 0.41
14.00 0.47
15.00 0.54
16.00 0.61
17.00 0.68
18.00 0.76
19.00 0.84
20.00 0.93
21.00 1.02
22.00 1.12
23.00 1.23
24.00 1.33
25.00 1.45
26.00 1.57
27.00 1.70
28.00 1.83
29.00 1.97
30.00 2.12
31.00 2.27
32.00 2.43
33.00 2.59
34.00 2.75
35.00 2.93
36.00 3.11
37.00 3.29
38.00 3.48
39.00 3.67
40.00 3.87
41.00 4.06
42.00 4.26
43.00 4.47
44.00 4.67
45.00 4.88
46.00 5.09
47.00 5.31
48.00 5.52
49.00 5.73
50.00 5.95
51.00 6.17
52.00 6.39
53.00 6.61
54.00 6.83
55.00 7.06
56.00 7.29
57.00 7.52
58.00 7.75
59.00 7.99
60.00 8.23
61.00 8.47
62.00 8.73
63.00 8.98
64.00 9.24
65.00 9.51
66.00 9.79
67.00 10.07
68.00 10.36
69.00 10.65
70.00 10.95
71.00 11.26
72.00 11.58
73.00 11.91
74.00 12.25
75.00 12.59
76.00 12.94
77.00 13.29
78.00 13.65
79.00 14.02
80.00 14.40
81.00 14.78
82.00 15.16
83.00 15.55
84.00 15.94
85.00 16.33
86.00 16.72
87.00 17.11
88.00 17.50
89.00 17.90
90.00 18.29
91.00 18.67
92.00 19.06
93.00 19.45
94.00 19.83
95.00 20.22
96.00 20.60
97.00 20.98
98.00 21.36
99.00 21.74
100.00 22.12
101.00 22.50
102.00 22.88
103.00 23.25
104.00 23.62
105.00 23.99
106.00 24.34
107.00 24.69
108.00 25.03
109.00 25.36
110.00 25.68
111.00 26.00
112.00 26.31
113.00 26.62
114.00 26.94
115.00 27.26
116.00 27.60
117.00 27.95
118.00 28.32
119.00 28.72
120.00 29.16
121.00 29.62
122.00 30.12
123.00 30.65
124.00 31.20
125.00 31.76
126.00 32.32
127.00 32.86
128.00 33.34
129.00 33.74
130.00 34.04
131.00 34.22
132.00 34.29
133.00 34.27
134.00 34.19
135.00 34.09
136.00 34.00
137.00 33.94
138.00 33.94
139.00 34.01
140.00 34.17
141.00 34.43
142.00 34.81
143.00 35.32
144.00 35.96
145.00 36.78
146.00 37.79
147.00 39.04
148.00 40.58
149.00 42.51
150.00 44.95
151.00 48.02
152.00 51.30
153.00 52.06
154.00 49.60
155.00 46.98
156.00 45.03
157.00 43.65
158.00 42.74
159.00 42.20
160.00 42.03
161.00 42.18
162.00 42.72
163.00 43.69
164.00 45.24
165.00 47.71
166.00 52.05
167.00 63.67
168.00 56.88
169.00 48.73
170.00 44.42
171.00 41.47
172.00 39.25
173.00 37.48
174.00 36.06
175.00 34.88
176.00 33.91
177.00 33.11
178.00 32.47
179.00 31.97
180.00 31.58
181.00 31.33
182.00 31.18
183.00 31.14
184.00 31.23
185.00 31.42
186.00 31.74
187.00 32.19
188.00 32.78
189.00 33.53
190.00 34.46
191.00 35.61
192.00 37.01
193.00 38.69
194.00 40.60
195.00 42.42
196.00 43.22
197.00 42.29
198.00 40.41
199.00 38.47
200.00 36.77
201.00 35.34
202.00 34.16
203.00 33.17
204.00 32.37
205.00 31.70
206.00 31.17
207.00 30.76
208.00 30.46
209.00 30.25
210.00 30.14
211.00 30.13
212.00 30.21
213.00 30.38
214.00 30.66
215.00 31.04
216.00 31.53
217.00 32.16
218.00 32.94
219.00 33.90
220.00 35.08
221.00 36.51
222.00 38.25
223.00 40.29
224.00 42.28
225.00 43.03
226.00 41.70
227.00 39.41
228.00 37.20
229.00 35.30
230.00 33.69
231.00 32.34
232.00 31.18
233.00 30.20
234.00 29.35
235.00 28.62
236.00 27.99
237.00 27.45
238.00 26.98
239.00 26.59
240.00 26.25
241.00 25.97
242.00 25.73
243.00 25.54
244.00 25.38
245.00 25.24
246.00 25.12
247.00 25.01
248.00 24.90
249.00 24.79
250.00 24.66
251.00 24.52
252.00 24.35
253.00 24.16
254.00 23.95
255.00 23.71
256.00 23.44
257.00 23.16
258.00 22.86
259.00 22.55
260.00 22.24
261.00 21.91
262.00 21.59
263.00 21.27
264.00 20.95
265.00 20.63
266.00 20.32
267.00 20.00
268.00 19.69
269.00 19.38
270.00 19.07
271.00 18.76
272.00 18.44
273.00 18.13
274.00 17.80
275.00 17.48
276.00 17.14
277.00 16.81
278.00 16.46
279.00 16.12
280.00 15.77
281.00 15.41
282.00 15.06
283.00 14.70
284.00 14.35
285.00 13.99
286.00 13.64
287.00 13.28
288.00 12.94
289.00 12.59
290.00 12.25
291.00 11.92
292.00 11.60
293.00 11.28
294.00 10.97
295.00 10.66
296.00 10.37
297.00 10.08
298.00 9.80
299.00 9.53
300.00 9.27
301.00 9.01
302.00 8.77
303.00 8.53
304.00 8.30
305.00 8.08
306.00 7.86
307.00 7.66
308.00 7.46
309.00 7.27
310.00 7.08
311.00 6.90
312.00 6.73
313.00 6.56
314.00 6.40
315.00 6.23
316.00 6.07
317.00 5.91
318.00 5.76
319.00 5.60
320.00 5.44
321.00 5.28
322.00 5.12
323.00 4.95
324.00 4.79
325.00 4.62
326.00 4.44
327.00 4.26
328.00 4.08
329.00 3.89
330.00 3.70
331.00 3.51
332.00 3.32
333.00 3.12
334.00 2.93
335.00 2.74
336.00 2.55
337.00 2.36
338.00 2.17
339.00 1.99
340.00 1.82
341.00 1.65
342.00 1.48
343.00 1.33
344.00 1.18
345.00 1.04
346.00 0.91
347.00 0.78
348.00 0.67
349.00 0.57
350.00 0.47
351.00 0.38
352.00 0.31
353.00 0.24
354.00 0.18
355.00 0.13
356.00 0.09
357.00 0.06
358.00 0.03
359.00 0.01
VERTICAL 360
0.00 23.56
1.00 23.13
2.00 28.05
3.00 22.13
4.00 13.56
5.00 8.43
6.00 4.99
7.00 2.63
8.00 1.09
9.00 0.24
10.00 0.00
11.00 0.37
12.00 1.37
13.00 3.11
14.00 5.84
15.00 10.18
16.00 18.43
17.00 28.35
18.00 16.56
19.00 13.69
20.00 13.29
21.00 14.56
22.00 17.71
23.00 24.29
24.00 28.87
25.00 20.99
26.00 17.74
27.00 16.64
28.00 16.80
29.00 17.84
30.00 19.39
31.00 20.44
32.00 19.67
33.00 18.05
34.00 17.02
35.00 16.95
36.00 17.69
37.00 18.89
38.00 20.27
39.00 21.81
40.00 22.53
41.00 20.58
42.00 17.86
43.00 16.11
44.00 15.52
45.00 15.91
46.00 16.98
47.00 18.38
48.00 19.87
49.00 21.73
50.00 24.94
51.00 32.05
52.00 33.80
53.00 25.50
54.00 22.00
55.00 20.31
56.00 19.41
57.00 18.89
58.00 18.74
59.00 19.04
60.00 19.78
61.00 20.83
62.00 22.04
63.00 23.28
64.00 24.53
65.00 25.83
66.00 27.04
67.00 27.84
68.00 27.96
69.00 27.58
70.00 27.23
71.00 27.30
72.00 27.81
73.00 28.37
74.00 28.44
75.00 27.92
76.00 27.18
77.00 26.70
78.00 26.72
79.00 27.15
80.00 27.56
81.00 27.70
82.00 27.77
83.00 28.03
84.00 28.57
85.00 29.39
86.00 30.37
87.00 31.56
88.00 33.74
89.00 38.92
90.00 47.61
91.00 37.14
92.00 32.89
93.00 31.19
94.00 31.17
95.00 33.20
96.00 39.18
97.00 54.53
98.00 39.16
99.00 36.83
100.00 37.66
101.00 39.48
102.00 42.15
103.00 48.95
104.00 48.52
105.00 43.92
106.00 45.78
107.00 58.28
108.00 50.66
109.00 47.50
110.00 46.36
111.00 43.18
112.00 41.88
113.00 42.93
114.00 44.35
115.00 43.75
116.00 40.98
117.00 37.61
118.00 35.47
119.00 34.83
120.00 35.21
121.00 35.62
122.00 35.02
123.00 33.43
124.00 31.96
125.00 31.42
126.00 32.01
127.00 33.52
128.00 35.34
129.00 36.92
130.00 38.73
131.00 41.61
132.00 44.19
133.00 43.23
134.00 42.81
135.00 45.18
136.00 49.18
137.00 50.58
138.00 49.44
139.00 42.57
140.00 37.81
141.00 35.47
142.00 34.48
143.00 34.03
144.00 34.04
145.00 35.02
146.00 37.38
147.00 40.18
148.00 40.47
149.00 39.86
150.00 40.30
151.00 39.37
152.00 36.42
153.00 34.49
154.00 34.30
155.00 35.43
156.00 36.34
157.00 35.93
158.00 35.66
159.00 36.15
160.00 36.20
161.00 35.13
162.00 34.35
163.00 34.69
164.00 35.97
165.00 37.13
166.00 36.83
167.00 34.91
168.00 32.68
169.00 31.35
170.00 31.33
171.00 32.64
172.00 35.22
173.00 39.39
174.00 47.63
175.00 46.60
176.00 40.10
177.00 38.13
178.00 38.59
179.00 40.70
180.00 43.60
181.00 44.65
182.00 41.35
183.00 37.48
184.00 34.97
185.00 34.10
186.00 35.04
187.00 37.84
188.00 40.53
189.00 39.70
190.00 38.80
191.00 37.91
192.00 35.45
193.00 33.28
194.00 32.67
195.00 33.98
196.00 37.82
197.00 47.41
198.00 48.70
199.00 41.13
200.00 38.80
201.00 37.43
202.00 35.80
203.00 34.49
204.00 34.31
205.00 35.90
206.00 40.37
207.00 51.70
208.00 41.79
209.00 36.48
210.00 34.26
211.00 33.76
212.00 34.60
213.00 36.57
214.00 38.73
215.00 38.71
216.00 37.46
217.00 37.28
218.00 38.61
219.00 40.82
220.00 42.22
221.00 42.04
222.00 40.91
223.00 40.01
224.00 40.70
225.00 44.25
226.00 54.93
227.00 49.78
228.00 42.46
229.00 38.66
230.00 36.64
231.00 36.29
232.00 37.76
233.00 41.76
234.00 51.40
235.00 45.77
236.00 39.18
237.00 35.79
238.00 33.89
239.00 33.22
240.00 33.93
241.00 36.49
242.00 42.05
243.00 51.08
244.00 43.66
245.00 39.66
246.00 37.49
247.00 35.84
248.00 34.60
249.00 34.19
250.00 34.97
251.00 37.13
252.00 40.46
253.00 43.81
254.00 45.76
255.00 46.70
256.00 48.80
257.00 51.11
258.00 42.54
259.00 36.85
260.00 33.76
261.00 32.25
262.00 31.71
263.00 31.61
264.00 31.52
265.00 31.14
266.00 30.41
267.00 29.50
268.00 28.65
269.00 27.97
270.00 27.35
271.00 26.74
272.00 26.22
273.00 25.96
274.00 26.09
275.00 26.55
276.00 27.12
277.00 27.38
278.00 27.07
279.00 26.28
280.00 25.43
281.00 24.92
282.00 24.98
283.00 25.67
284.00 26.97
285.00 28.84
286.00 31.10
287.00 32.71
288.00 31.77
289.00 29.43
290.00 27.48
291.00 26.22
292.00 25.41
293.00 24.70
294.00 23.89
295.00 23.04
296.00 22.33
297.00 21.92
298.00 21.95
299.00 22.62
300.00 24.19
301.00 26.91
302.00 30.00
303.00 29.37
304.00 26.42
305.00 24.28
306.00 22.99
307.00 22.22
308.00 21.84
309.00 22.05
310.00 23.33
311.00 26.51
312.00 33.48
313.00 31.71
314.00 25.16
315.00 21.83
316.00 20.01
317.00 19.10
318.00 18.94
319.00 19.70
320.00 21.84
321.00 26.53
322.00 30.75
323.00 23.11
324.00 18.41
325.00 15.73
326.00 14.26
327.00 13.68
328.00 13.87
329.00 14.82
330.00 16.68
331.00 19.84
332.00 25.46
333.00 41.41
334.00 31.08
335.00 26.09
336.00 24.86
337.00 25.40
338.00 27.21
339.00 30.28
340.00 34.19
341.00 35.88
342.00 36.91
343.00 41.47
344.00 33.03
345.00 26.54
346.00 23.18
347.00 21.72
348.00 21.68
349.00 22.43
350.00 22.41
351.00 20.59
352.00 18.53
353.00 17.28
354.00 17.02
355.00 17.82
356.00 19.94
357.00 24.41
358.00 37.93
359.00 29.27
