NAME ATR4518R7_0947_X_CO_P45_09T
FREQUENCY 0947
GAIN 14.89 dBd
TILT	ELECTRICAL
COMMENT DATE 05.08.2013 +45 degrees polarized system Lever position 09T deg
HORIZONTAL 360
0.00 0.04
1.00 0.02
2.00 0.01
3.00 0.00
4.00 0.00
5.00 0.00
6.00 0.02
7.00 0.03
8.00 0.06
9.00 0.09
10.00 0.13
11.00 0.17
12.00 0.22
13.00 0.28
14.00 0.34
15.00 0.41
16.00 0.49
17.00 0.57
18.00 0.66
19.00 0.75
20.00 0.85
21.00 0.96
22.00 1.07
23.00 1.19
24.00 1.32
25.00 1.45
26.00 1.58
27.00 1.73
28.00 1.88
29.00 2.03
30.00 2.19
31.00 2.36
32.00 2.53
33.00 2.70
34.00 2.89
35.00 3.08
36.00 3.27
37.00 3.47
38.00 3.67
39.00 3.88
40.00 4.10
41.00 4.32
42.00 4.54
43.00 4.77
44.00 5.01
45.00 5.25
46.00 5.49
47.00 5.74
48.00 6.00
49.00 6.26
50.00 6.52
51.00 6.79
52.00 7.06
53.00 7.34
54.00 7.63
55.00 7.91
56.00 8.21
57.00 8.51
58.00 8.81
59.00 9.11
60.00 9.43
61.00 9.74
62.00 10.06
63.00 10.39
64.00 10.72
65.00 11.06
66.00 11.40
67.00 11.74
68.00 12.10
69.00 12.45
70.00 12.82
71.00 13.18
72.00 13.56
73.00 13.94
74.00 14.32
75.00 14.71
76.00 15.11
77.00 15.51
78.00 15.91
79.00 16.33
80.00 16.75
81.00 17.17
82.00 17.60
83.00 18.04
84.00 18.48
85.00 18.93
86.00 19.38
87.00 19.84
88.00 20.30
89.00 20.77
90.00 21.24
91.00 21.71
92.00 22.19
93.00 22.67
94.00 23.14
95.00 23.62
96.00 24.10
97.00 24.58
98.00 25.04
99.00 25.50
100.00 25.96
101.00 26.40
102.00 26.82
103.00 27.23
104.00 27.61
105.00 27.97
106.00 28.30
107.00 28.61
108.00 28.87
109.00 29.11
110.00 29.31
111.00 29.47
112.00 29.59
113.00 29.69
114.00 29.75
115.00 29.79
116.00 29.80
117.00 29.79
118.00 29.76
119.00 29.73
120.00 29.68
121.00 29.62
122.00 29.57
123.00 29.51
124.00 29.46
125.00 29.41
126.00 29.37
127.00 29.34
128.00 29.32
129.00 29.31
130.00 29.32
131.00 29.34
132.00 29.38
133.00 29.43
134.00 29.50
135.00 29.59
136.00 29.70
137.00 29.84
138.00 30.00
139.00 30.18
140.00 30.39
141.00 30.62
142.00 30.89
143.00 31.19
144.00 31.52
145.00 31.89
146.00 32.30
147.00 32.75
148.00 33.26
149.00 33.81
150.00 34.42
151.00 35.10
152.00 35.85
153.00 36.68
154.00 37.60
155.00 38.61
156.00 39.70
157.00 40.85
158.00 41.98
159.00 42.95
160.00 43.54
161.00 43.54
162.00 42.96
163.00 42.01
164.00 40.89
165.00 39.78
166.00 38.73
167.00 37.76
168.00 36.88
169.00 36.10
170.00 35.39
171.00 34.76
172.00 34.19
173.00 33.69
174.00 33.25
175.00 32.86
176.00 32.51
177.00 32.21
178.00 31.96
179.00 31.74
180.00 31.57
181.00 31.43
182.00 31.32
183.00 31.26
184.00 31.22
185.00 31.22
186.00 31.25
187.00 31.32
188.00 31.42
189.00 31.55
190.00 31.71
191.00 31.91
192.00 32.13
193.00 32.39
194.00 32.68
195.00 32.99
196.00 33.34
197.00 33.70
198.00 34.08
199.00 34.48
200.00 34.87
201.00 35.25
202.00 35.61
203.00 35.91
204.00 36.14
205.00 36.29
206.00 36.34
207.00 36.29
208.00 36.13
209.00 35.89
210.00 35.57
211.00 35.20
212.00 34.80
213.00 34.39
214.00 33.97
215.00 33.55
216.00 33.16
217.00 32.78
218.00 32.42
219.00 32.09
220.00 31.79
221.00 31.50
222.00 31.25
223.00 31.02
224.00 30.81
225.00 30.63
226.00 30.47
227.00 30.33
228.00 30.21
229.00 30.11
230.00 30.03
231.00 29.96
232.00 29.91
233.00 29.88
234.00 29.85
235.00 29.83
236.00 29.83
237.00 29.83
238.00 29.84
239.00 29.85
240.00 29.86
241.00 29.88
242.00 29.90
243.00 29.91
244.00 29.93
245.00 29.95
246.00 29.97
247.00 29.98
248.00 30.00
249.00 30.02
250.00 30.03
251.00 30.05
252.00 30.08
253.00 30.10
254.00 30.14
255.00 30.18
256.00 30.23
257.00 30.29
258.00 30.35
259.00 30.42
260.00 30.50
261.00 30.58
262.00 30.67
263.00 30.75
264.00 30.82
265.00 30.87
266.00 30.90
267.00 30.89
268.00 30.83
269.00 30.71
270.00 30.51
271.00 30.24
272.00 29.90
273.00 29.47
274.00 28.99
275.00 28.44
276.00 27.84
277.00 27.21
278.00 26.56
279.00 25.89
280.00 25.22
281.00 24.54
282.00 23.87
283.00 23.20
284.00 22.55
285.00 21.91
286.00 21.28
287.00 20.66
288.00 20.06
289.00 19.47
290.00 18.89
291.00 18.33
292.00 17.78
293.00 17.25
294.00 16.72
295.00 16.21
296.00 15.71
297.00 15.22
298.00 14.74
299.00 14.27
300.00 13.81
301.00 13.36
302.00 12.92
303.00 12.49
304.00 12.07
305.00 11.66
306.00 11.26
307.00 10.86
308.00 10.47
309.00 10.09
310.00 9.72
311.00 9.35
312.00 8.99
313.00 8.64
314.00 8.30
315.00 7.96
316.00 7.63
317.00 7.31
318.00 7.00
319.00 6.69
320.00 6.39
321.00 6.10
322.00 5.81
323.00 5.53
324.00 5.26
325.00 5.00
326.00 4.74
327.00 4.49
328.00 4.24
329.00 4.01
330.00 3.78
331.00 3.56
332.00 3.34
333.00 3.13
334.00 2.93
335.00 2.73
336.00 2.54
337.00 2.36
338.00 2.18
339.00 2.02
340.00 1.86
341.00 1.70
342.00 1.55
343.00 1.41
344.00 1.28
345.00 1.15
346.00 1.03
347.00 0.91
348.00 0.81
349.00 0.71
350.00 0.61
351.00 0.53
352.00 0.45
353.00 0.37
354.00 0.31
355.00 0.25
356.00 0.19
357.00 0.14
358.00 0.10
359.00 0.07
VERTICAL 360
0.00 21.32
1.00 15.95
2.00 11.53
3.00 8.12
4.00 5.49
5.00 3.47
6.00 1.96
7.00 0.90
8.00 0.25
9.00 0.00
10.00 0.14
11.00 0.69
12.00 1.66
13.00 3.09
14.00 5.04
15.00 7.64
16.00 11.19
17.00 16.19
18.00 22.47
19.00 22.17
20.00 19.35
21.00 18.45
22.00 19.04
23.00 21.02
24.00 24.96
25.00 34.25
26.00 34.94
27.00 26.48
28.00 23.68
29.00 22.96
30.00 23.43
31.00 24.65
32.00 26.44
33.00 29.03
34.00 32.84
35.00 36.35
36.00 35.34
37.00 34.02
38.00 33.23
39.00 31.36
40.00 29.16
41.00 27.59
42.00 26.60
43.00 25.93
44.00 25.42
45.00 25.12
46.00 25.21
47.00 25.87
48.00 27.18
49.00 29.13
50.00 31.50
51.00 33.25
52.00 33.15
53.00 32.32
54.00 31.57
55.00 30.25
56.00 28.50
57.00 27.13
58.00 26.67
59.00 27.41
60.00 29.45
61.00 31.55
62.00 30.46
63.00 28.17
64.00 27.17
65.00 27.84
66.00 30.02
67.00 32.65
68.00 33.25
69.00 32.27
70.00 32.45
71.00 35.51
72.00 38.80
73.00 33.37
74.00 30.10
75.00 29.34
76.00 30.83
77.00 35.05
78.00 37.76
79.00 34.42
80.00 32.66
81.00 31.92
82.00 31.45
83.00 29.82
84.00 27.45
85.00 26.56
86.00 27.93
87.00 31.47
88.00 32.00
89.00 29.05
90.00 26.39
91.00 25.49
92.00 26.98
93.00 30.96
94.00 38.60
95.00 32.78
96.00 27.44
97.00 25.60
98.00 26.41
99.00 29.65
100.00 35.03
101.00 40.83
102.00 35.59
103.00 31.93
104.00 31.33
105.00 31.36
106.00 30.85
107.00 31.82
108.00 36.28
109.00 48.23
110.00 36.74
111.00 31.84
112.00 30.46
113.00 31.70
114.00 35.88
115.00 41.40
116.00 36.24
117.00 32.96
118.00 32.91
119.00 36.03
120.00 44.02
121.00 43.09
122.00 37.32
123.00 36.38
124.00 40.25
125.00 62.24
126.00 38.71
127.00 34.51
128.00 33.58
129.00 34.83
130.00 37.93
131.00 38.28
132.00 34.77
133.00 32.45
134.00 31.79
135.00 32.86
136.00 35.72
137.00 39.20
138.00 39.46
139.00 37.07
140.00 35.49
141.00 35.94
142.00 38.63
143.00 43.41
144.00 49.15
145.00 46.27
146.00 42.00
147.00 40.74
148.00 42.30
149.00 44.96
150.00 39.30
151.00 34.45
152.00 32.08
153.00 31.23
154.00 31.14
155.00 31.10
156.00 30.83
157.00 30.70
158.00 31.15
159.00 32.33
160.00 34.37
161.00 37.33
162.00 39.46
163.00 39.35
164.00 38.22
165.00 35.83
166.00 33.34
167.00 31.48
168.00 30.42
169.00 30.24
170.00 30.69
171.00 31.22
172.00 31.37
173.00 31.89
174.00 32.69
175.00 32.95
176.00 32.30
177.00 31.81
178.00 32.57
179.00 34.91
180.00 37.33
181.00 37.07
182.00 36.06
183.00 35.29
184.00 34.17
185.00 33.05
186.00 32.63
187.00 32.85
188.00 33.06
189.00 33.07
190.00 33.02
191.00 32.62
192.00 31.83
193.00 31.20
194.00 31.40
195.00 32.65
196.00 33.95
197.00 33.72
198.00 33.12
199.00 33.51
200.00 35.22
201.00 38.74
202.00 46.65
203.00 48.49
204.00 36.80
205.00 31.68
206.00 28.98
207.00 27.70
208.00 27.21
209.00 27.12
210.00 27.28
211.00 27.79
212.00 28.96
213.00 30.90
214.00 33.07
215.00 34.73
216.00 35.98
217.00 37.10
218.00 37.90
219.00 38.18
220.00 38.07
221.00 38.08
222.00 38.56
223.00 39.20
224.00 38.97
225.00 37.51
226.00 35.70
227.00 34.40
228.00 33.87
229.00 33.56
230.00 32.77
231.00 32.12
232.00 32.14
233.00 32.33
234.00 32.31
235.00 32.57
236.00 33.58
237.00 35.79
238.00 40.25
239.00 49.33
240.00 51.34
241.00 45.76
242.00 42.54
243.00 39.00
244.00 35.03
245.00 32.25
246.00 31.19
247.00 31.52
248.00 32.34
249.00 32.57
250.00 32.14
251.00 32.13
252.00 33.33
253.00 35.45
254.00 37.06
255.00 37.79
256.00 37.90
257.00 37.78
258.00 38.25
259.00 38.63
260.00 39.30
261.00 42.22
262.00 47.25
263.00 46.67
264.00 39.16
265.00 33.68
266.00 31.01
267.00 30.30
268.00 30.58
269.00 31.23
270.00 32.07
271.00 32.03
272.00 30.63
273.00 29.26
274.00 28.45
275.00 28.31
276.00 29.11
277.00 30.42
278.00 30.68
279.00 29.71
280.00 28.76
281.00 28.35
282.00 28.85
283.00 30.45
284.00 32.38
285.00 32.88
286.00 32.09
287.00 31.58
288.00 32.32
289.00 34.39
290.00 35.63
291.00 34.61
292.00 33.68
293.00 33.91
294.00 36.34
295.00 43.57
296.00 49.08
297.00 43.14
298.00 43.96
299.00 44.10
300.00 40.85
301.00 36.69
302.00 34.13
303.00 34.39
304.00 37.89
305.00 39.93
306.00 35.07
307.00 32.08
308.00 31.62
309.00 34.51
310.00 44.22
311.00 37.37
312.00 32.72
313.00 32.17
314.00 34.49
315.00 38.69
316.00 35.72
317.00 32.68
318.00 33.25
319.00 37.16
320.00 34.93
321.00 29.53
322.00 26.84
323.00 26.10
324.00 26.30
325.00 25.71
326.00 24.25
327.00 23.43
328.00 23.91
329.00 25.98
330.00 29.70
331.00 31.93
332.00 29.42
333.00 26.84
334.00 24.64
335.00 22.82
336.00 21.79
337.00 21.86
338.00 23.25
339.00 26.09
340.00 29.20
341.00 29.07
342.00 27.77
343.00 27.60
344.00 28.41
345.00 29.17
346.00 28.08
347.00 25.06
348.00 21.93
349.00 19.57
350.00 18.15
351.00 17.66
352.00 18.12
353.00 19.62
354.00 22.32
355.00 25.59
356.00 25.97
357.00 24.33
358.00 24.00
359.00 24.51
