NAME ATR4518R7_1850_X_CO_M45_04T_yL
FREQUENCY 1850
GAIN 15.33 dBd
TILT	ELECTRICAL
COMMENT DATE 05.08.2013 -45 degrees polarized system Lever position 04T deg
HORIZONTAL 360
0.00 0.00
1.00 0.00
2.00 0.00
3.00 0.02
4.00 0.04
5.00 0.07
6.00 0.10
7.00 0.14
8.00 0.19
9.00 0.24
10.00 0.30
11.00 0.37
12.00 0.43
13.00 0.51
14.00 0.58
15.00 0.66
16.00 0.74
17.00 0.83
18.00 0.91
19.00 1.00
20.00 1.09
21.00 1.19
22.00 1.29
23.00 1.39
24.00 1.49
25.00 1.60
26.00 1.72
27.00 1.84
28.00 1.96
29.00 2.09
30.00 2.23
31.00 2.38
32.00 2.53
33.00 2.69
34.00 2.86
35.00 3.04
36.00 3.23
37.00 3.43
38.00 3.64
39.00 3.85
40.00 4.08
41.00 4.31
42.00 4.55
43.00 4.80
44.00 5.06
45.00 5.32
46.00 5.59
47.00 5.86
48.00 6.14
49.00 6.43
50.00 6.72
51.00 7.01
52.00 7.31
53.00 7.61
54.00 7.91
55.00 8.22
56.00 8.53
57.00 8.84
58.00 9.15
59.00 9.47
60.00 9.80
61.00 10.12
62.00 10.45
63.00 10.78
64.00 11.13
65.00 11.47
66.00 11.82
67.00 12.18
68.00 12.55
69.00 12.93
70.00 13.31
71.00 13.70
72.00 14.11
73.00 14.52
74.00 14.94
75.00 15.37
76.00 15.81
77.00 16.25
78.00 16.71
79.00 17.17
80.00 17.63
81.00 18.09
82.00 18.55
83.00 19.01
84.00 19.47
85.00 19.91
86.00 20.34
87.00 20.75
88.00 21.14
89.00 21.52
90.00 21.87
91.00 22.19
92.00 22.49
93.00 22.78
94.00 23.04
95.00 23.29
96.00 23.52
97.00 23.75
98.00 23.98
99.00 24.21
100.00 24.43
101.00 24.66
102.00 24.90
103.00 25.14
104.00 25.37
105.00 25.61
106.00 25.83
107.00 26.05
108.00 26.24
109.00 26.42
110.00 26.58
111.00 26.71
112.00 26.83
113.00 26.94
114.00 27.04
115.00 27.14
116.00 27.26
117.00 27.40
118.00 27.57
119.00 27.77
120.00 28.02
121.00 28.30
122.00 28.63
123.00 28.99
124.00 29.36
125.00 29.71
126.00 30.01
127.00 30.22
128.00 30.29
129.00 30.18
130.00 29.91
131.00 29.50
132.00 29.00
133.00 28.45
134.00 27.89
135.00 27.36
136.00 26.87
137.00 26.45
138.00 26.09
139.00 25.81
140.00 25.61
141.00 25.49
142.00 25.46
143.00 25.51
144.00 25.64
145.00 25.86
146.00 26.18
147.00 26.58
148.00 27.08
149.00 27.68
150.00 28.38
151.00 29.17
152.00 30.03
153.00 30.95
154.00 31.89
155.00 32.76
156.00 33.46
157.00 33.90
158.00 34.05
159.00 33.92
160.00 33.64
161.00 33.29
162.00 32.97
163.00 32.73
164.00 32.59
165.00 32.60
166.00 32.75
167.00 33.08
168.00 33.58
169.00 34.30
170.00 35.26
171.00 36.53
172.00 38.20
173.00 40.38
174.00 43.23
175.00 46.38
176.00 46.97
177.00 44.05
178.00 40.99
179.00 38.62
180.00 36.80
181.00 35.39
182.00 34.31
183.00 33.49
184.00 32.88
185.00 32.45
186.00 32.20
187.00 32.11
188.00 32.18
189.00 32.41
190.00 32.81
191.00 33.40
192.00 34.20
193.00 35.26
194.00 36.66
195.00 38.53
196.00 41.12
197.00 44.92
198.00 50.41
199.00 49.41
200.00 43.84
201.00 40.04
202.00 37.34
203.00 35.30
204.00 33.69
205.00 32.38
206.00 31.31
207.00 30.42
208.00 29.68
209.00 29.08
210.00 28.60
211.00 28.23
212.00 27.96
213.00 27.79
214.00 27.72
215.00 27.75
216.00 27.88
217.00 28.13
218.00 28.49
219.00 28.99
220.00 29.65
221.00 30.49
222.00 31.56
223.00 32.94
224.00 34.73
225.00 37.15
226.00 40.58
227.00 45.26
228.00 45.77
229.00 40.85
230.00 37.01
231.00 34.25
232.00 32.16
233.00 30.50
234.00 29.16
235.00 28.05
236.00 27.13
237.00 26.36
238.00 25.72
239.00 25.19
240.00 24.76
241.00 24.42
242.00 24.14
243.00 23.94
244.00 23.78
245.00 23.67
246.00 23.60
247.00 23.55
248.00 23.51
249.00 23.47
250.00 23.41
251.00 23.33
252.00 23.21
253.00 23.05
254.00 22.85
255.00 22.61
256.00 22.33
257.00 22.02
258.00 21.69
259.00 21.35
260.00 21.01
261.00 20.66
262.00 20.32
263.00 20.00
264.00 19.68
265.00 19.38
266.00 19.09
267.00 18.81
268.00 18.54
269.00 18.28
270.00 18.02
271.00 17.76
272.00 17.50
273.00 17.24
274.00 16.97
275.00 16.69
276.00 16.41
277.00 16.11
278.00 15.81
279.00 15.49
280.00 15.17
281.00 14.84
282.00 14.50
283.00 14.16
284.00 13.82
285.00 13.47
286.00 13.13
287.00 12.79
288.00 12.46
289.00 12.12
290.00 11.80
291.00 11.48
292.00 11.16
293.00 10.86
294.00 10.56
295.00 10.27
296.00 9.98
297.00 9.70
298.00 9.43
299.00 9.16
300.00 8.91
301.00 8.65
302.00 8.40
303.00 8.15
304.00 7.91
305.00 7.68
306.00 7.45
307.00 7.23
308.00 7.01
309.00 6.79
310.00 6.58
311.00 6.38
312.00 6.18
313.00 5.99
314.00 5.80
315.00 5.61
316.00 5.43
317.00 5.26
318.00 5.08
319.00 4.91
320.00 4.74
321.00 4.58
322.00 4.41
323.00 4.24
324.00 4.08
325.00 3.91
326.00 3.74
327.00 3.58
328.00 3.41
329.00 3.24
330.00 3.07
331.00 2.90
332.00 2.73
333.00 2.56
334.00 2.39
335.00 2.23
336.00 2.07
337.00 1.91
338.00 1.76
339.00 1.61
340.00 1.47
341.00 1.33
342.00 1.20
343.00 1.08
344.00 0.96
345.00 0.85
346.00 0.74
347.00 0.64
348.00 0.55
349.00 0.47
350.00 0.39
351.00 0.32
352.00 0.26
353.00 0.20
354.00 0.15
355.00 0.11
356.00 0.07
357.00 0.04
358.00 0.02
359.00 0.01
VERTICAL 360
0.00 5.81
1.00 3.24
2.00 1.46
3.00 0.39
4.00 0.00
5.00 0.29
6.00 1.32
7.00 3.26
8.00 6.48
9.00 12.12
10.00 28.26
11.00 17.85
12.00 12.72
13.00 11.57
14.00 12.71
15.00 16.51
16.00 26.73
17.00 21.80
18.00 15.40
19.00 13.03
20.00 12.61
21.00 13.65
22.00 16.07
23.00 19.88
24.00 23.49
25.00 22.34
26.00 20.04
27.00 19.13
28.00 19.74
29.00 21.99
30.00 25.82
31.00 26.71
32.00 22.96
33.00 20.08
34.00 18.36
35.00 17.48
36.00 17.36
37.00 18.09
38.00 19.81
39.00 22.57
40.00 25.72
41.00 26.86
42.00 25.44
43.00 23.48
44.00 21.67
45.00 20.23
46.00 19.29
47.00 18.86
48.00 18.84
49.00 19.14
50.00 19.69
51.00 20.47
52.00 21.55
53.00 22.96
54.00 24.70
55.00 26.70
56.00 28.88
57.00 31.38
58.00 34.75
59.00 40.29
60.00 44.49
61.00 37.73
62.00 33.61
63.00 31.30
64.00 29.92
65.00 29.00
66.00 28.28
67.00 27.67
68.00 27.24
69.00 27.10
70.00 27.32
71.00 27.88
72.00 28.65
73.00 29.43
74.00 30.13
75.00 30.76
76.00 31.56
77.00 32.81
78.00 34.70
79.00 37.34
80.00 41.21
81.00 48.81
82.00 53.39
83.00 44.07
84.00 41.35
85.00 41.25
86.00 42.51
87.00 43.64
88.00 43.15
89.00 41.21
90.00 39.13
91.00 37.77
92.00 37.17
93.00 36.84
94.00 36.26
95.00 35.64
96.00 35.58
97.00 36.41
98.00 38.14
99.00 40.49
100.00 42.85
101.00 44.14
102.00 43.92
103.00 43.66
104.00 44.76
105.00 47.84
106.00 53.00
107.00 57.85
108.00 60.92
109.00 65.38
110.00 60.59
111.00 53.70
112.00 49.33
113.00 47.71
114.00 49.30
115.00 53.11
116.00 47.25
117.00 42.13
118.00 39.44
119.00 38.28
120.00 38.37
121.00 39.64
122.00 41.68
123.00 42.69
124.00 41.93
125.00 41.10
126.00 40.61
127.00 40.22
128.00 40.18
129.00 40.75
130.00 41.54
131.00 41.56
132.00 40.76
133.00 39.97
134.00 39.69
135.00 40.14
136.00 41.43
137.00 43.35
138.00 45.04
139.00 45.52
140.00 45.11
141.00 44.44
142.00 43.89
143.00 43.90
144.00 44.79
145.00 45.88
146.00 45.00
147.00 42.74
148.00 41.14
149.00 40.24
150.00 39.29
151.00 38.27
152.00 38.13
153.00 39.79
154.00 43.50
155.00 43.50
156.00 40.02
157.00 38.58
158.00 38.25
159.00 37.10
160.00 35.64
161.00 35.34
162.00 36.42
163.00 37.20
164.00 35.76
165.00 34.12
166.00 33.47
167.00 33.54
168.00 33.71
169.00 33.63
170.00 33.30
171.00 32.84
172.00 32.56
173.00 32.77
174.00 33.58
175.00 34.65
176.00 35.39
177.00 35.70
178.00 35.97
179.00 36.98
180.00 39.55
181.00 45.01
182.00 52.09
183.00 46.52
184.00 45.07
185.00 48.61
186.00 54.00
187.00 43.23
188.00 37.85
189.00 34.80
190.00 33.28
191.00 33.20
192.00 34.67
193.00 37.71
194.00 40.99
195.00 41.33
196.00 40.94
197.00 41.71
198.00 43.34
199.00 44.46
200.00 42.44
201.00 39.42
202.00 37.81
203.00 37.64
204.00 38.02
205.00 38.10
206.00 38.64
207.00 40.67
208.00 42.07
209.00 38.88
210.00 35.45
211.00 32.79
212.00 30.50
213.00 28.71
214.00 27.68
215.00 27.53
216.00 28.24
217.00 29.69
218.00 31.70
219.00 34.03
220.00 36.66
221.00 40.13
222.00 45.50
223.00 47.84
224.00 42.29
225.00 38.73
226.00 36.74
227.00 35.70
228.00 35.33
229.00 35.57
230.00 36.43
231.00 37.86
232.00 39.38
233.00 39.62
234.00 38.09
235.00 36.13
236.00 34.61
237.00 33.73
238.00 33.52
239.00 33.96
240.00 34.89
241.00 35.92
242.00 36.48
243.00 36.31
244.00 35.76
245.00 35.27
246.00 35.03
247.00 35.05
248.00 35.22
249.00 35.45
250.00 35.67
251.00 35.88
252.00 36.20
253.00 36.63
254.00 37.09
255.00 37.60
256.00 38.45
257.00 39.89
258.00 41.75
259.00 43.12
260.00 43.11
261.00 42.14
262.00 41.16
263.00 40.93
264.00 41.94
265.00 44.40
266.00 47.15
267.00 46.56
268.00 44.25
269.00 42.46
270.00 41.06
271.00 39.35
272.00 36.87
273.00 34.14
274.00 31.87
275.00 30.26
276.00 29.21
277.00 28.55
278.00 28.07
279.00 27.58
280.00 26.98
281.00 26.33
282.00 25.77
283.00 25.34
284.00 25.03
285.00 24.84
286.00 24.75
287.00 24.75
288.00 24.83
289.00 25.03
290.00 25.40
291.00 25.98
292.00 26.84
293.00 28.09
294.00 29.79
295.00 31.91
296.00 34.06
297.00 34.21
298.00 31.06
299.00 27.37
300.00 24.51
301.00 22.64
302.00 21.68
303.00 21.48
304.00 21.78
305.00 22.34
306.00 23.13
307.00 24.36
308.00 26.05
309.00 26.78
310.00 24.76
311.00 22.00
312.00 19.93
313.00 18.63
314.00 17.91
315.00 17.64
316.00 17.83
317.00 18.61
318.00 20.16
319.00 22.63
320.00 25.92
321.00 28.72
322.00 28.97
323.00 28.24
324.00 28.12
325.00 28.40
326.00 27.87
327.00 25.92
328.00 23.71
329.00 22.15
330.00 21.52
331.00 21.92
332.00 23.42
333.00 25.86
334.00 27.23
335.00 25.26
336.00 23.00
337.00 22.02
338.00 22.58
339.00 25.04
340.00 29.75
341.00 29.73
342.00 25.24
343.00 23.21
344.00 23.54
345.00 26.66
346.00 34.02
347.00 27.63
348.00 21.73
349.00 18.75
350.00 17.40
351.00 17.30
352.00 18.45
353.00 21.07
354.00 25.69
355.00 32.42
356.00 28.01
357.00 20.05
358.00 13.95
359.00 9.31
