NAME ATR4518R7_2350_X_CO_P45_03T_yL
FREQUENCY 2350
GAIN 15.50 dBd
TILT	ELECTRICAL
COMMENT DATE 05.08.2013 +45 degrees polarized system Lever position 03T deg
HORIZONTAL 360
0.00 0.05
1.00 0.02
2.00 0.00
3.00 0.00
4.00 0.01
5.00 0.04
6.00 0.08
7.00 0.13
8.00 0.19
9.00 0.26
10.00 0.34
11.00 0.43
12.00 0.52
13.00 0.62
14.00 0.72
15.00 0.82
16.00 0.92
17.00 1.02
18.00 1.11
19.00 1.21
20.00 1.30
21.00 1.39
22.00 1.48
23.00 1.57
24.00 1.66
25.00 1.75
26.00 1.85
27.00 1.96
28.00 2.07
29.00 2.19
30.00 2.32
31.00 2.46
32.00 2.61
33.00 2.78
34.00 2.95
35.00 3.14
36.00 3.34
37.00 3.56
38.00 3.78
39.00 4.02
40.00 4.26
41.00 4.52
42.00 4.78
43.00 5.05
44.00 5.32
45.00 5.60
46.00 5.88
47.00 6.15
48.00 6.43
49.00 6.71
50.00 6.98
51.00 7.25
52.00 7.51
53.00 7.77
54.00 8.02
55.00 8.27
56.00 8.51
57.00 8.75
58.00 8.99
59.00 9.23
60.00 9.46
61.00 9.70
62.00 9.94
63.00 10.19
64.00 10.44
65.00 10.70
66.00 10.96
67.00 11.24
68.00 11.52
69.00 11.81
70.00 12.11
71.00 12.42
72.00 12.74
73.00 13.07
74.00 13.41
75.00 13.75
76.00 14.10
77.00 14.46
78.00 14.82
79.00 15.18
80.00 15.54
81.00 15.90
82.00 16.26
83.00 16.62
84.00 16.97
85.00 17.31
86.00 17.65
87.00 17.99
88.00 18.32
89.00 18.64
90.00 18.96
91.00 19.28
92.00 19.60
93.00 19.92
94.00 20.24
95.00 20.56
96.00 20.89
97.00 21.22
98.00 21.54
99.00 21.87
100.00 22.20
101.00 22.52
102.00 22.84
103.00 23.13
104.00 23.41
105.00 23.67
106.00 23.89
107.00 24.07
108.00 24.21
109.00 24.31
110.00 24.36
111.00 24.37
112.00 24.34
113.00 24.29
114.00 24.22
115.00 24.13
116.00 24.05
117.00 23.97
118.00 23.92
119.00 23.88
120.00 23.88
121.00 23.93
122.00 24.01
123.00 24.15
124.00 24.34
125.00 24.59
126.00 24.90
127.00 25.29
128.00 25.74
129.00 26.27
130.00 26.88
131.00 27.57
132.00 28.34
133.00 29.18
134.00 30.07
135.00 31.00
136.00 31.93
137.00 32.78
138.00 33.49
139.00 33.99
140.00 34.23
141.00 34.25
142.00 34.10
143.00 33.86
144.00 33.60
145.00 33.35
146.00 33.15
147.00 33.00
148.00 32.92
149.00 32.89
150.00 32.92
151.00 32.99
152.00 33.11
153.00 33.26
154.00 33.44
155.00 33.64
156.00 33.84
157.00 34.02
158.00 34.16
159.00 34.23
160.00 34.20
161.00 34.05
162.00 33.78
163.00 33.39
164.00 32.91
165.00 32.38
166.00 31.83
167.00 31.29
168.00 30.80
169.00 30.36
170.00 30.01
171.00 29.73
172.00 29.55
173.00 29.46
174.00 29.47
175.00 29.57
176.00 29.77
177.00 30.05
178.00 30.40
179.00 30.81
180.00 31.23
181.00 31.62
182.00 31.93
183.00 32.10
184.00 32.11
185.00 31.97
186.00 31.71
187.00 31.40
188.00 31.09
189.00 30.84
190.00 30.68
191.00 30.63
192.00 30.72
193.00 30.97
194.00 31.40
195.00 32.02
196.00 32.87
197.00 33.98
198.00 35.35
199.00 36.96
200.00 38.56
201.00 39.47
202.00 38.99
203.00 37.48
204.00 35.73
205.00 34.16
206.00 32.87
207.00 31.84
208.00 31.05
209.00 30.49
210.00 30.13
211.00 29.95
212.00 29.96
213.00 30.16
214.00 30.54
215.00 31.13
216.00 31.93
217.00 32.98
218.00 34.30
219.00 35.95
220.00 37.94
221.00 40.10
222.00 41.72
223.00 41.62
224.00 40.05
225.00 38.22
226.00 36.65
227.00 35.43
228.00 34.53
229.00 33.90
230.00 33.52
231.00 33.37
232.00 33.44
233.00 33.72
234.00 34.22
235.00 34.96
236.00 35.96
237.00 37.25
238.00 38.82
239.00 40.55
240.00 41.87
241.00 41.80
242.00 40.28
243.00 38.25
244.00 36.33
245.00 34.66
246.00 33.26
247.00 32.07
248.00 31.07
249.00 30.23
250.00 29.52
251.00 28.94
252.00 28.46
253.00 28.07
254.00 27.77
255.00 27.54
256.00 27.37
257.00 27.24
258.00 27.14
259.00 27.05
260.00 26.95
261.00 26.81
262.00 26.60
263.00 26.32
264.00 25.97
265.00 25.53
266.00 25.03
267.00 24.49
268.00 23.94
269.00 23.38
270.00 22.84
271.00 22.32
272.00 21.85
273.00 21.41
274.00 21.02
275.00 20.67
276.00 20.37
277.00 20.11
278.00 19.88
279.00 19.68
280.00 19.51
281.00 19.35
282.00 19.19
283.00 19.03
284.00 18.85
285.00 18.65
286.00 18.41
287.00 18.13
288.00 17.81
289.00 17.45
290.00 17.05
291.00 16.61
292.00 16.15
293.00 15.67
294.00 15.19
295.00 14.69
296.00 14.20
297.00 13.71
298.00 13.23
299.00 12.76
300.00 12.30
301.00 11.85
302.00 11.42
303.00 10.99
304.00 10.58
305.00 10.17
306.00 9.78
307.00 9.39
308.00 9.01
309.00 8.63
310.00 8.26
311.00 7.90
312.00 7.55
313.00 7.19
314.00 6.85
315.00 6.52
316.00 6.19
317.00 5.87
318.00 5.57
319.00 5.27
320.00 4.99
321.00 4.72
322.00 4.46
323.00 4.22
324.00 3.99
325.00 3.78
326.00 3.58
327.00 3.39
328.00 3.21
329.00 3.05
330.00 2.89
331.00 2.75
332.00 2.62
333.00 2.50
334.00 2.39
335.00 2.28
336.00 2.18
337.00 2.08
338.00 1.99
339.00 1.89
340.00 1.81
341.00 1.72
342.00 1.63
343.00 1.54
344.00 1.45
345.00 1.35
346.00 1.26
347.00 1.16
348.00 1.06
349.00 0.95
350.00 0.85
351.00 0.75
352.00 0.64
353.00 0.54
354.00 0.45
355.00 0.36
356.00 0.28
357.00 0.20
358.00 0.14
359.00 0.09
VERTICAL 360
0.00 5.89
1.00 2.68
2.00 0.78
3.00 0.00
4.00 0.33
5.00 1.94
6.00 5.33
7.00 12.32
8.00 29.25
9.00 12.73
10.00 9.99
11.00 10.67
12.00 14.38
13.00 23.87
14.00 22.15
15.00 16.47
16.00 15.47
17.00 17.47
18.00 22.87
19.00 22.93
20.00 18.04
21.00 16.56
22.00 17.85
23.00 22.28
24.00 33.98
25.00 27.21
26.00 21.46
27.00 19.14
28.00 18.58
29.00 19.32
30.00 20.56
31.00 20.86
32.00 20.04
33.00 18.89
34.00 17.69
35.00 16.80
36.00 16.57
37.00 17.05
38.00 18.00
39.00 19.39
40.00 21.85
41.00 26.92
42.00 36.24
43.00 27.75
44.00 23.54
45.00 22.14
46.00 22.30
47.00 23.66
48.00 26.40
49.00 32.00
50.00 43.21
51.00 30.94
52.00 26.35
53.00 24.49
54.00 24.10
55.00 24.67
56.00 25.91
57.00 27.70
58.00 30.14
59.00 33.57
60.00 36.37
61.00 34.74
62.00 32.65
63.00 31.86
64.00 31.83
65.00 31.93
66.00 31.98
67.00 32.21
68.00 33.04
69.00 34.60
70.00 36.59
71.00 38.17
72.00 38.23
73.00 37.00
74.00 36.09
75.00 36.16
76.00 36.92
77.00 37.59
78.00 37.47
79.00 36.71
80.00 36.01
81.00 35.75
82.00 35.86
83.00 36.15
84.00 36.46
85.00 36.72
86.00 37.13
87.00 38.04
88.00 39.51
89.00 41.11
90.00 41.89
91.00 41.23
92.00 39.96
93.00 39.01
94.00 38.62
95.00 38.72
96.00 39.56
97.00 41.75
98.00 45.55
99.00 49.20
100.00 50.15
101.00 49.81
102.00 48.36
103.00 46.66
104.00 45.28
105.00 45.07
106.00 47.10
107.00 52.21
108.00 56.33
109.00 51.48
110.00 46.24
111.00 42.89
112.00 41.44
113.00 41.23
114.00 41.47
115.00 41.71
116.00 41.97
117.00 42.65
118.00 44.70
119.00 49.05
120.00 47.61
121.00 42.62
122.00 40.93
123.00 42.71
124.00 48.52
125.00 43.48
126.00 38.57
127.00 37.07
128.00 37.84
129.00 40.15
130.00 42.39
131.00 43.52
132.00 44.05
133.00 41.92
134.00 39.04
135.00 37.83
136.00 38.67
137.00 41.28
138.00 41.92
139.00 39.10
140.00 37.46
141.00 37.48
142.00 38.23
143.00 38.27
144.00 37.10
145.00 35.86
146.00 35.78
147.00 37.42
148.00 40.83
149.00 45.08
150.00 47.17
151.00 44.94
152.00 43.85
153.00 41.76
154.00 36.26
155.00 32.83
156.00 32.08
157.00 33.89
158.00 38.31
159.00 45.28
160.00 54.53
161.00 45.26
162.00 40.33
163.00 39.88
164.00 43.01
165.00 44.01
166.00 40.32
167.00 39.11
168.00 40.06
169.00 41.93
170.00 44.98
171.00 53.15
172.00 41.42
173.00 35.36
174.00 32.95
175.00 32.63
176.00 32.87
177.00 32.04
178.00 30.91
179.00 30.70
180.00 31.43
181.00 32.67
182.00 34.13
183.00 35.80
184.00 37.61
185.00 39.17
186.00 39.77
187.00 39.40
188.00 38.48
189.00 36.29
190.00 33.87
191.00 32.87
192.00 33.71
193.00 36.05
194.00 39.14
195.00 43.20
196.00 40.35
197.00 35.28
198.00 33.64
199.00 34.95
200.00 38.94
201.00 44.19
202.00 50.25
203.00 54.25
204.00 44.13
205.00 41.21
206.00 40.39
207.00 39.99
208.00 40.66
209.00 43.42
210.00 49.33
211.00 50.66
212.00 42.70
213.00 39.46
214.00 39.98
215.00 44.64
216.00 44.82
217.00 40.09
218.00 38.88
219.00 39.52
220.00 39.71
221.00 37.08
222.00 33.32
223.00 30.73
224.00 29.78
225.00 30.29
226.00 31.49
227.00 31.79
228.00 31.01
229.00 30.49
230.00 30.74
231.00 31.67
232.00 32.93
233.00 33.64
234.00 32.73
235.00 30.83
236.00 29.20
237.00 28.40
238.00 28.60
239.00 29.90
240.00 32.35
241.00 35.51
242.00 37.05
243.00 35.80
244.00 34.13
245.00 32.86
246.00 31.99
247.00 31.54
248.00 31.52
249.00 31.85
250.00 32.34
251.00 32.87
252.00 33.38
253.00 33.74
254.00 33.78
255.00 33.66
256.00 33.78
257.00 34.54
258.00 36.12
259.00 38.35
260.00 40.24
261.00 40.02
262.00 37.34
263.00 33.90
264.00 31.07
265.00 29.27
266.00 28.51
267.00 28.47
268.00 28.65
269.00 28.42
270.00 27.59
271.00 26.51
272.00 25.57
273.00 24.89
274.00 24.33
275.00 23.73
276.00 23.04
277.00 22.35
278.00 21.73
279.00 21.17
280.00 20.58
281.00 19.90
282.00 19.18
283.00 18.49
284.00 17.89
285.00 17.41
286.00 17.07
287.00 16.84
288.00 16.74
289.00 16.72
290.00 16.78
291.00 16.99
292.00 17.45
293.00 18.31
294.00 19.75
295.00 21.88
296.00 24.82
297.00 28.41
298.00 30.94
299.00 29.61
300.00 26.45
301.00 23.43
302.00 21.08
303.00 19.64
304.00 19.30
305.00 20.22
306.00 22.80
307.00 28.22
308.00 40.73
309.00 30.31
310.00 25.45
311.00 23.25
312.00 22.38
313.00 22.62
314.00 23.93
315.00 25.49
316.00 25.07
317.00 22.91
318.00 21.21
319.00 20.79
320.00 22.18
321.00 26.66
322.00 31.95
323.00 23.53
324.00 18.99
325.00 16.69
326.00 15.70
327.00 15.78
328.00 16.98
329.00 19.42
330.00 22.89
331.00 25.68
332.00 24.79
333.00 21.10
334.00 17.67
335.00 15.58
336.00 15.01
337.00 16.23
338.00 20.16
339.00 33.30
340.00 24.72
341.00 18.73
342.00 17.29
343.00 18.74
344.00 24.33
345.00 35.04
346.00 21.88
347.00 18.34
348.00 18.20
349.00 21.10
350.00 26.48
351.00 22.37
352.00 18.89
353.00 18.88
354.00 22.60
355.00 35.37
356.00 30.58
357.00 27.01
358.00 18.47
359.00 10.85
