NAME ATR4518R7_1880_X_CO_P45_02T_yL
FREQUENCY 1880
GAIN 14.88 dBd
TILT	ELECTRICAL
COMMENT DATE 05.08.2013 +45 degrees polarized system Lever position 02T deg
HORIZONTAL 360
0.00 0.11
1.00 0.07
2.00 0.05
3.00 0.03
4.00 0.01
5.00 0.01
6.00 0.00
7.00 0.01
8.00 0.02
9.00 0.04
10.00 0.06
11.00 0.09
12.00 0.14
13.00 0.18
14.00 0.24
15.00 0.31
16.00 0.38
17.00 0.46
18.00 0.55
19.00 0.65
20.00 0.76
21.00 0.87
22.00 0.99
23.00 1.12
24.00 1.25
25.00 1.40
26.00 1.55
27.00 1.70
28.00 1.86
29.00 2.03
30.00 2.21
31.00 2.38
32.00 2.57
33.00 2.76
34.00 2.95
35.00 3.15
36.00 3.36
37.00 3.56
38.00 3.78
39.00 3.99
40.00 4.21
41.00 4.43
42.00 4.66
43.00 4.89
44.00 5.12
45.00 5.36
46.00 5.60
47.00 5.84
48.00 6.08
49.00 6.33
50.00 6.58
51.00 6.83
52.00 7.08
53.00 7.33
54.00 7.59
55.00 7.84
56.00 8.10
57.00 8.37
58.00 8.63
59.00 8.89
60.00 9.16
61.00 9.42
62.00 9.69
63.00 9.97
64.00 10.24
65.00 10.51
66.00 10.79
67.00 11.07
68.00 11.35
69.00 11.63
70.00 11.91
71.00 12.19
72.00 12.47
73.00 12.76
74.00 13.04
75.00 13.32
76.00 13.60
77.00 13.88
78.00 14.16
79.00 14.44
80.00 14.72
81.00 15.00
82.00 15.28
83.00 15.57
84.00 15.85
85.00 16.14
86.00 16.43
87.00 16.74
88.00 17.05
89.00 17.37
90.00 17.70
91.00 18.05
92.00 18.42
93.00 18.80
94.00 19.20
95.00 19.63
96.00 20.08
97.00 20.56
98.00 21.06
99.00 21.58
100.00 22.13
101.00 22.71
102.00 23.31
103.00 23.93
104.00 24.56
105.00 25.20
106.00 25.84
107.00 26.47
108.00 27.08
109.00 27.66
110.00 28.20
111.00 28.70
112.00 29.15
113.00 29.54
114.00 29.90
115.00 30.21
116.00 30.50
117.00 30.77
118.00 31.02
119.00 31.26
120.00 31.47
121.00 31.67
122.00 31.84
123.00 31.97
124.00 32.05
125.00 32.08
126.00 32.05
127.00 31.97
128.00 31.84
129.00 31.68
130.00 31.51
131.00 31.32
132.00 31.15
133.00 30.99
134.00 30.85
135.00 30.75
136.00 30.68
137.00 30.64
138.00 30.63
139.00 30.65
140.00 30.70
141.00 30.77
142.00 30.85
143.00 30.95
144.00 31.06
145.00 31.18
146.00 31.30
147.00 31.42
148.00 31.54
149.00 31.67
150.00 31.80
151.00 31.95
152.00 32.12
153.00 32.30
154.00 32.51
155.00 32.74
156.00 32.98
157.00 33.24
158.00 33.51
159.00 33.78
160.00 34.04
161.00 34.29
162.00 34.51
163.00 34.71
164.00 34.87
165.00 35.03
166.00 35.18
167.00 35.34
168.00 35.52
169.00 35.75
170.00 36.06
171.00 36.46
172.00 36.97
173.00 37.62
174.00 38.46
175.00 39.53
176.00 40.89
177.00 42.65
178.00 45.01
179.00 48.32
180.00 53.26
181.00 56.90
182.00 51.88
183.00 47.64
184.00 44.85
185.00 42.89
186.00 41.51
187.00 40.53
188.00 39.88
189.00 39.53
190.00 39.44
191.00 39.62
192.00 40.11
193.00 40.93
194.00 42.17
195.00 44.04
196.00 46.90
197.00 51.77
198.00 59.82
199.00 52.13
200.00 46.25
201.00 42.62
202.00 40.05
203.00 38.10
204.00 36.57
205.00 35.34
206.00 34.36
207.00 33.58
208.00 32.98
209.00 32.54
210.00 32.24
211.00 32.08
212.00 32.06
213.00 32.18
214.00 32.45
215.00 32.88
216.00 33.48
217.00 34.29
218.00 35.34
219.00 36.71
220.00 38.52
221.00 40.98
222.00 44.49
223.00 49.43
224.00 49.93
225.00 44.76
226.00 40.89
227.00 38.15
228.00 36.07
229.00 34.45
230.00 33.13
231.00 32.05
232.00 31.16
233.00 30.42
234.00 29.80
235.00 29.29
236.00 28.88
237.00 28.55
238.00 28.29
239.00 28.10
240.00 27.97
241.00 27.90
242.00 27.86
243.00 27.86
244.00 27.88
245.00 27.92
246.00 27.96
247.00 27.99
248.00 27.99
249.00 27.95
250.00 27.85
251.00 27.70
252.00 27.48
253.00 27.20
254.00 26.87
255.00 26.50
256.00 26.09
257.00 25.67
258.00 25.23
259.00 24.79
260.00 24.36
261.00 23.94
262.00 23.53
263.00 23.14
264.00 22.76
265.00 22.40
266.00 22.05
267.00 21.72
268.00 21.39
269.00 21.08
270.00 20.77
271.00 20.47
272.00 20.17
273.00 19.87
274.00 19.57
275.00 19.27
276.00 18.97
277.00 18.66
278.00 18.36
279.00 18.05
280.00 17.73
281.00 17.42
282.00 17.10
283.00 16.78
284.00 16.46
285.00 16.14
286.00 15.83
287.00 15.51
288.00 15.20
289.00 14.89
290.00 14.58
291.00 14.28
292.00 13.99
293.00 13.69
294.00 13.41
295.00 13.13
296.00 12.85
297.00 12.57
298.00 12.31
299.00 12.04
300.00 11.78
301.00 11.53
302.00 11.28
303.00 11.03
304.00 10.79
305.00 10.54
306.00 10.30
307.00 10.06
308.00 9.82
309.00 9.57
310.00 9.32
311.00 9.08
312.00 8.82
313.00 8.57
314.00 8.31
315.00 8.05
316.00 7.78
317.00 7.51
318.00 7.23
319.00 6.95
320.00 6.67
321.00 6.39
322.00 6.11
323.00 5.82
324.00 5.54
325.00 5.26
326.00 4.99
327.00 4.72
328.00 4.45
329.00 4.19
330.00 3.94
331.00 3.70
332.00 3.46
333.00 3.23
334.00 3.01
335.00 2.80
336.00 2.59
337.00 2.40
338.00 2.22
339.00 2.05
340.00 1.88
341.00 1.72
342.00 1.58
343.00 1.44
344.00 1.31
345.00 1.19
346.00 1.07
347.00 0.97
348.00 0.87
349.00 0.77
350.00 0.69
351.00 0.60
352.00 0.53
353.00 0.46
354.00 0.39
355.00 0.33
356.00 0.28
357.00 0.23
358.00 0.18
359.00 0.14
VERTICAL 360
0.00 1.70
1.00 0.49
2.00 0.00
3.00 0.23
4.00 1.23
5.00 3.14
6.00 6.24
7.00 11.45
8.00 23.53
9.00 20.32
10.00 13.99
11.00 12.43
12.00 13.22
13.00 16.32
14.00 23.31
15.00 26.13
16.00 19.08
17.00 16.43
18.00 15.97
19.00 17.05
20.00 19.44
21.00 22.19
22.00 22.06
23.00 19.67
24.00 17.90
25.00 17.29
26.00 17.93
27.00 20.14
28.00 25.06
29.00 36.74
30.00 26.70
31.00 21.55
32.00 19.29
33.00 18.30
34.00 17.89
35.00 17.67
36.00 17.54
37.00 17.52
38.00 17.66
39.00 17.88
40.00 18.01
41.00 17.91
42.00 17.59
43.00 17.31
44.00 17.37
45.00 17.96
46.00 19.15
47.00 20.97
48.00 23.38
49.00 26.33
50.00 29.90
51.00 34.93
52.00 43.20
53.00 35.83
54.00 29.95
55.00 26.90
56.00 25.51
57.00 25.34
58.00 26.11
59.00 27.47
60.00 28.96
61.00 30.19
62.00 31.20
63.00 32.28
64.00 33.65
65.00 35.53
66.00 37.86
67.00 40.21
68.00 41.97
69.00 42.70
70.00 42.63
71.00 42.67
72.00 43.11
73.00 43.22
74.00 42.84
75.00 42.82
76.00 43.26
77.00 42.99
78.00 41.60
79.00 40.15
80.00 39.13
81.00 38.30
82.00 37.26
83.00 36.11
84.00 35.36
85.00 35.44
86.00 36.26
87.00 37.16
88.00 37.92
89.00 39.90
90.00 44.94
91.00 45.61
92.00 41.30
93.00 41.67
94.00 49.65
95.00 46.71
96.00 39.08
97.00 37.06
98.00 37.88
99.00 41.07
100.00 45.84
101.00 45.55
102.00 42.40
103.00 40.78
104.00 40.42
105.00 40.86
106.00 41.39
107.00 41.09
108.00 40.19
109.00 39.74
110.00 40.05
111.00 40.51
112.00 40.33
113.00 39.55
114.00 38.71
115.00 38.38
116.00 38.99
117.00 40.55
118.00 42.16
119.00 42.67
120.00 42.89
121.00 43.99
122.00 45.96
123.00 47.52
124.00 48.16
125.00 49.35
126.00 49.80
127.00 47.21
128.00 44.13
129.00 41.19
130.00 38.61
131.00 36.89
132.00 35.96
133.00 35.36
134.00 34.88
135.00 35.01
136.00 36.37
137.00 39.44
138.00 44.73
139.00 50.22
140.00 46.57
141.00 42.08
142.00 39.35
143.00 38.38
144.00 39.07
145.00 41.16
146.00 43.99
147.00 45.88
148.00 45.30
149.00 44.52
150.00 44.89
151.00 43.36
152.00 40.03
153.00 38.27
154.00 37.97
155.00 37.35
156.00 36.05
157.00 35.83
158.00 37.27
159.00 38.44
160.00 36.96
161.00 35.50
162.00 34.88
163.00 34.32
164.00 33.78
165.00 33.87
166.00 34.53
167.00 34.90
168.00 34.77
169.00 35.11
170.00 36.61
171.00 39.29
172.00 42.77
173.00 46.42
174.00 44.09
175.00 39.45
176.00 37.42
177.00 38.01
178.00 41.51
179.00 47.36
180.00 45.13
181.00 41.90
182.00 40.57
183.00 40.43
184.00 41.58
185.00 44.23
186.00 48.06
187.00 52.18
188.00 55.41
189.00 50.88
190.00 46.06
191.00 43.45
192.00 42.13
193.00 40.71
194.00 38.81
195.00 37.56
196.00 37.54
197.00 37.94
198.00 37.06
199.00 35.68
200.00 35.40
201.00 36.68
202.00 39.51
203.00 43.61
204.00 49.23
205.00 63.42
206.00 44.70
207.00 38.30
208.00 35.37
209.00 34.75
210.00 36.22
211.00 38.80
212.00 38.10
213.00 35.31
214.00 33.65
215.00 33.03
216.00 32.99
217.00 33.30
218.00 34.09
219.00 35.51
220.00 37.44
221.00 39.18
222.00 39.66
223.00 39.04
224.00 38.75
225.00 39.96
226.00 43.07
227.00 43.60
228.00 39.94
229.00 37.98
230.00 38.04
231.00 39.90
232.00 43.87
233.00 51.59
234.00 50.82
235.00 44.20
236.00 41.00
237.00 39.51
238.00 39.16
239.00 39.76
240.00 41.61
241.00 46.30
242.00 66.28
243.00 45.73
244.00 40.84
245.00 39.49
246.00 40.31
247.00 42.83
248.00 45.43
249.00 43.38
250.00 39.98
251.00 38.16
252.00 37.93
253.00 38.43
254.00 37.96
255.00 36.50
256.00 35.40
257.00 34.94
258.00 34.95
259.00 35.44
260.00 36.69
261.00 38.88
262.00 41.98
263.00 46.15
264.00 51.15
265.00 47.97
266.00 43.20
267.00 40.57
268.00 39.43
269.00 39.35
270.00 40.09
271.00 41.34
272.00 42.58
273.00 43.18
274.00 43.01
275.00 42.57
276.00 42.40
277.00 42.90
278.00 43.65
279.00 41.41
280.00 37.13
281.00 33.81
282.00 31.72
283.00 30.51
284.00 29.80
285.00 29.24
286.00 28.69
287.00 28.33
288.00 28.51
289.00 29.51
290.00 31.49
291.00 34.39
292.00 37.49
293.00 38.49
294.00 36.79
295.00 34.25
296.00 31.68
297.00 29.33
298.00 27.42
299.00 26.12
300.00 25.53
301.00 25.67
302.00 26.45
303.00 27.64
304.00 29.01
305.00 30.59
306.00 32.96
307.00 36.23
308.00 33.77
309.00 28.65
310.00 25.50
311.00 23.98
312.00 23.67
313.00 24.24
314.00 25.41
315.00 26.94
316.00 28.64
317.00 29.59
318.00 28.04
319.00 25.00
320.00 22.28
321.00 20.26
322.00 18.77
323.00 17.62
324.00 16.73
325.00 16.14
326.00 16.04
327.00 16.69
328.00 18.44
329.00 22.06
330.00 30.55
331.00 32.98
332.00 23.53
333.00 20.09
334.00 18.79
335.00 18.98
336.00 20.78
337.00 25.35
338.00 45.62
339.00 26.41
340.00 20.37
341.00 17.84
342.00 17.36
343.00 18.96
344.00 24.09
345.00 42.88
346.00 22.94
347.00 18.30
348.00 16.84
349.00 17.49
350.00 20.58
351.00 28.73
352.00 30.53
353.00 23.88
354.00 24.75
355.00 38.05
356.00 18.46
357.00 11.12
358.00 6.68
359.00 3.70
