NAME ATR4518R7_2140_X_CO_M45_01T_yL
FREQUENCY 2140
GAIN 16.11 dBd
TILT	ELECTRICAL
COMMENT DATE 05.08.2013 -45 degrees polarized system Lever position 01T deg
HORIZONTAL 360
0.00 0.04
1.00 0.07
2.00 0.11
3.00 0.16
4.00 0.21
5.00 0.27
6.00 0.34
7.00 0.41
8.00 0.50
9.00 0.59
10.00 0.69
11.00 0.79
12.00 0.91
13.00 1.04
14.00 1.17
15.00 1.31
16.00 1.46
17.00 1.62
18.00 1.78
19.00 1.96
20.00 2.14
21.00 2.32
22.00 2.52
23.00 2.71
24.00 2.91
25.00 3.12
26.00 3.33
27.00 3.54
28.00 3.76
29.00 3.98
30.00 4.19
31.00 4.42
32.00 4.64
33.00 4.87
34.00 5.09
35.00 5.32
36.00 5.55
37.00 5.79
38.00 6.02
39.00 6.26
40.00 6.50
41.00 6.74
42.00 6.99
43.00 7.23
44.00 7.48
45.00 7.73
46.00 7.98
47.00 8.23
48.00 8.48
49.00 8.73
50.00 8.98
51.00 9.23
52.00 9.48
53.00 9.74
54.00 9.99
55.00 10.24
56.00 10.50
57.00 10.76
58.00 11.03
59.00 11.29
60.00 11.57
61.00 11.85
62.00 12.14
63.00 12.43
64.00 12.74
65.00 13.06
66.00 13.40
67.00 13.74
68.00 14.11
69.00 14.48
70.00 14.88
71.00 15.29
72.00 15.72
73.00 16.17
74.00 16.63
75.00 17.11
76.00 17.61
77.00 18.11
78.00 18.64
79.00 19.17
80.00 19.71
81.00 20.25
82.00 20.79
83.00 21.33
84.00 21.86
85.00 22.38
86.00 22.90
87.00 23.39
88.00 23.88
89.00 24.36
90.00 24.82
91.00 25.29
92.00 25.76
93.00 26.25
94.00 26.76
95.00 27.30
96.00 27.89
97.00 28.54
98.00 29.26
99.00 30.06
100.00 30.97
101.00 31.99
102.00 33.15
103.00 34.48
104.00 35.99
105.00 37.69
106.00 39.56
107.00 41.44
108.00 42.92
109.00 43.47
110.00 43.01
111.00 42.08
112.00 41.13
113.00 40.37
114.00 39.86
115.00 39.59
116.00 39.56
117.00 39.77
118.00 40.18
119.00 40.79
120.00 41.53
121.00 42.31
122.00 42.94
123.00 43.17
124.00 42.88
125.00 42.15
126.00 41.21
127.00 40.27
128.00 39.40
129.00 38.70
130.00 38.13
131.00 37.72
132.00 37.42
133.00 37.22
134.00 37.06
135.00 36.88
136.00 36.62
137.00 36.24
138.00 35.70
139.00 35.02
140.00 34.26
141.00 33.45
142.00 32.66
143.00 31.92
144.00 31.26
145.00 30.69
146.00 30.23
147.00 29.89
148.00 29.66
149.00 29.57
150.00 29.60
151.00 29.78
152.00 30.10
153.00 30.57
154.00 31.22
155.00 32.03
156.00 33.00
157.00 34.07
158.00 35.10
159.00 35.79
160.00 35.81
161.00 35.10
162.00 33.95
163.00 32.68
164.00 31.49
165.00 30.45
166.00 29.58
167.00 28.88
168.00 28.35
169.00 27.97
170.00 27.74
171.00 27.66
172.00 27.73
173.00 27.95
174.00 28.33
175.00 28.86
176.00 29.57
177.00 30.47
178.00 31.56
179.00 32.84
180.00 34.24
181.00 35.58
182.00 36.45
183.00 36.43
184.00 35.58
185.00 34.37
186.00 33.15
187.00 32.07
188.00 31.20
189.00 30.52
190.00 30.04
191.00 29.74
192.00 29.62
193.00 29.67
194.00 29.90
195.00 30.31
196.00 30.92
197.00 31.76
198.00 32.87
199.00 34.34
200.00 36.28
201.00 38.96
202.00 43.05
203.00 51.21
204.00 56.17
205.00 44.92
206.00 40.35
207.00 37.54
208.00 35.61
209.00 34.21
210.00 33.19
211.00 32.45
212.00 31.95
213.00 31.66
214.00 31.57
215.00 31.66
216.00 31.93
217.00 32.41
218.00 33.12
219.00 34.09
220.00 35.40
221.00 37.17
222.00 39.62
223.00 43.15
224.00 47.63
225.00 46.68
226.00 41.85
227.00 38.22
228.00 35.57
229.00 33.53
230.00 31.91
231.00 30.59
232.00 29.51
233.00 28.62
234.00 27.88
235.00 27.28
236.00 26.79
237.00 26.42
238.00 26.15
239.00 25.97
240.00 25.87
241.00 25.85
242.00 25.91
243.00 26.03
244.00 26.20
245.00 26.40
246.00 26.62
247.00 26.84
248.00 27.02
249.00 27.13
250.00 27.15
251.00 27.07
252.00 26.88
253.00 26.60
254.00 26.24
255.00 25.85
256.00 25.43
257.00 25.02
258.00 24.61
259.00 24.24
260.00 23.89
261.00 23.56
262.00 23.26
263.00 22.98
264.00 22.70
265.00 22.43
266.00 22.15
267.00 21.86
268.00 21.55
269.00 21.21
270.00 20.85
271.00 20.46
272.00 20.05
273.00 19.62
274.00 19.19
275.00 18.75
276.00 18.31
277.00 17.87
278.00 17.45
279.00 17.04
280.00 16.65
281.00 16.27
282.00 15.92
283.00 15.58
284.00 15.26
285.00 14.95
286.00 14.67
287.00 14.39
288.00 14.13
289.00 13.87
290.00 13.62
291.00 13.37
292.00 13.12
293.00 12.87
294.00 12.62
295.00 12.36
296.00 12.09
297.00 11.81
298.00 11.53
299.00 11.23
300.00 10.93
301.00 10.63
302.00 10.32
303.00 10.01
304.00 9.70
305.00 9.39
306.00 9.08
307.00 8.77
308.00 8.47
309.00 8.17
310.00 7.88
311.00 7.59
312.00 7.31
313.00 7.03
314.00 6.75
315.00 6.47
316.00 6.20
317.00 5.92
318.00 5.66
319.00 5.38
320.00 5.12
321.00 4.85
322.00 4.59
323.00 4.33
324.00 4.07
325.00 3.82
326.00 3.57
327.00 3.33
328.00 3.10
329.00 2.87
330.00 2.66
331.00 2.45
332.00 2.25
333.00 2.06
334.00 1.88
335.00 1.71
336.00 1.55
337.00 1.40
338.00 1.26
339.00 1.12
340.00 1.00
341.00 0.88
342.00 0.77
343.00 0.67
344.00 0.57
345.00 0.48
346.00 0.40
347.00 0.33
348.00 0.26
349.00 0.20
350.00 0.15
351.00 0.11
352.00 0.07
353.00 0.04
354.00 0.02
355.00 0.00
356.00 0.00
357.00 0.00
358.00 0.01
359.00 0.02
VERTICAL 360
0.00 0.70
1.00 0.02
2.00 0.19
3.00 1.28
4.00 3.47
5.00 7.24
6.00 14.01
7.00 26.08
8.00 16.48
9.00 13.75
10.00 14.27
11.00 17.12
12.00 20.15
13.00 18.09
14.00 15.96
15.00 15.96
16.00 18.27
17.00 23.64
18.00 28.08
19.00 22.75
20.00 20.26
21.00 20.18
22.00 22.03
23.00 24.87
24.00 23.93
25.00 20.65
26.00 18.59
27.00 17.79
28.00 17.88
29.00 18.64
30.00 19.96
31.00 21.70
32.00 23.35
33.00 24.00
34.00 23.44
35.00 22.21
36.00 20.75
37.00 19.46
38.00 18.73
39.00 18.86
40.00 20.15
41.00 23.06
42.00 28.93
43.00 50.21
44.00 32.38
45.00 28.08
46.00 26.92
47.00 27.07
48.00 27.81
49.00 28.87
50.00 30.43
51.00 33.02
52.00 37.24
53.00 39.57
54.00 35.11
55.00 31.72
56.00 30.02
57.00 29.56
58.00 30.08
59.00 31.37
60.00 33.19
61.00 35.22
62.00 37.14
63.00 38.77
64.00 39.92
65.00 40.26
66.00 40.00
67.00 39.82
68.00 40.05
69.00 40.52
70.00 40.72
71.00 40.25
72.00 39.42
73.00 38.93
74.00 39.05
75.00 39.44
76.00 39.48
77.00 38.78
78.00 37.61
79.00 36.53
80.00 36.13
81.00 36.82
82.00 38.75
83.00 41.45
84.00 43.67
85.00 46.35
86.00 52.10
87.00 45.31
88.00 39.78
89.00 37.66
90.00 37.90
91.00 40.23
92.00 44.34
93.00 48.32
94.00 48.23
95.00 44.03
96.00 40.28
97.00 38.39
98.00 38.28
99.00 39.67
100.00 41.98
101.00 44.02
102.00 45.25
103.00 47.04
104.00 50.83
105.00 58.54
106.00 71.46
107.00 65.89
108.00 60.38
109.00 54.44
110.00 50.96
111.00 48.73
112.00 47.16
113.00 46.39
114.00 46.47
115.00 46.86
116.00 46.86
117.00 46.42
118.00 46.13
119.00 46.54
120.00 48.17
121.00 51.74
122.00 58.58
123.00 55.91
124.00 50.03
125.00 47.17
126.00 46.14
127.00 46.71
128.00 49.50
129.00 55.96
130.00 51.36
131.00 45.27
132.00 42.18
133.00 40.58
134.00 39.58
135.00 38.60
136.00 37.73
137.00 37.68
138.00 39.38
139.00 44.20
140.00 47.07
141.00 40.29
142.00 36.96
143.00 35.80
144.00 35.78
145.00 36.09
146.00 36.20
147.00 36.56
148.00 38.27
149.00 42.98
150.00 48.20
151.00 41.04
152.00 37.98
153.00 37.84
154.00 39.72
155.00 42.97
156.00 47.49
157.00 54.65
158.00 49.78
159.00 46.24
160.00 46.93
161.00 47.54
162.00 44.48
163.00 43.36
164.00 45.31
165.00 48.29
166.00 47.90
167.00 49.47
168.00 57.66
169.00 49.69
170.00 45.13
171.00 44.79
172.00 48.80
173.00 57.25
174.00 43.32
175.00 37.69
176.00 34.37
177.00 32.03
178.00 30.43
179.00 29.86
180.00 30.60
181.00 32.83
182.00 36.19
183.00 38.38
184.00 38.18
185.00 37.86
186.00 37.51
187.00 36.56
188.00 35.76
189.00 36.05
190.00 37.94
191.00 41.71
192.00 47.25
193.00 50.84
194.00 47.93
195.00 45.19
196.00 44.16
197.00 43.55
198.00 42.23
199.00 41.47
200.00 42.38
201.00 45.12
202.00 48.83
203.00 51.12
204.00 50.68
205.00 49.03
206.00 47.93
207.00 47.45
208.00 46.44
209.00 44.15
210.00 41.63
211.00 40.04
212.00 39.79
213.00 40.67
214.00 41.33
215.00 39.67
216.00 36.91
217.00 34.79
218.00 33.66
219.00 33.38
220.00 33.73
221.00 34.62
222.00 36.26
223.00 39.04
224.00 43.46
225.00 50.31
226.00 60.65
227.00 56.71
228.00 49.97
229.00 46.29
230.00 45.58
231.00 48.33
232.00 48.38
233.00 42.17
234.00 38.98
235.00 38.22
236.00 39.15
237.00 40.99
238.00 42.68
239.00 43.33
240.00 42.45
241.00 40.94
242.00 40.05
243.00 40.13
244.00 40.95
245.00 42.04
246.00 43.13
247.00 44.66
248.00 46.87
249.00 47.79
250.00 46.66
251.00 46.65
252.00 49.38
253.00 56.37
254.00 54.60
255.00 48.89
256.00 45.32
257.00 41.95
258.00 38.87
259.00 36.52
260.00 34.94
261.00 33.92
262.00 33.15
263.00 32.42
264.00 31.69
265.00 31.10
266.00 30.80
267.00 30.78
268.00 30.83
269.00 30.69
270.00 30.27
271.00 29.62
272.00 28.93
273.00 28.40
274.00 28.11
275.00 28.05
276.00 28.13
277.00 28.32
278.00 28.53
279.00 28.63
280.00 28.61
281.00 28.54
282.00 28.55
283.00 28.78
284.00 29.26
285.00 29.87
286.00 30.32
287.00 30.38
288.00 30.20
289.00 30.22
290.00 30.86
291.00 32.42
292.00 35.02
293.00 37.43
294.00 36.31
295.00 33.64
296.00 31.77
297.00 30.76
298.00 30.23
299.00 29.69
300.00 28.99
301.00 28.47
302.00 28.62
303.00 29.82
304.00 32.47
305.00 37.42
306.00 46.91
307.00 42.37
308.00 36.01
309.00 32.24
310.00 30.18
311.00 29.79
312.00 30.49
313.00 29.46
314.00 26.21
315.00 23.55
316.00 22.02
317.00 21.23
318.00 20.72
319.00 20.35
320.00 20.35
321.00 20.96
322.00 22.00
323.00 22.49
324.00 21.79
325.00 20.65
326.00 19.68
327.00 18.81
328.00 17.92
329.00 17.24
330.00 17.12
331.00 17.88
332.00 19.86
333.00 23.50
334.00 27.05
335.00 23.93
336.00 20.67
337.00 19.46
338.00 20.26
339.00 23.76
340.00 34.97
341.00 29.54
342.00 22.71
343.00 20.74
344.00 21.56
345.00 26.01
346.00 37.14
347.00 24.67
348.00 20.13
349.00 18.82
350.00 19.64
351.00 22.22
352.00 24.72
353.00 25.04
354.00 28.80
355.00 28.39
356.00 15.44
357.00 9.01
358.00 4.94
359.00 2.29
