NAME ATR4518R7_1950_X_CO_P45_02T_yL
FREQUENCY 1950
GAIN 15.16 dBd
TILT	ELECTRICAL
COMMENT DATE 05.08.2013 +45 degrees polarized system Lever position 02T deg
HORIZONTAL 360
0.00 0.10
1.00 0.07
2.00 0.05
3.00 0.03
4.00 0.01
5.00 0.00
6.00 0.00
7.00 0.00
8.00 0.01
9.00 0.03
10.00 0.05
11.00 0.08
12.00 0.12
13.00 0.16
14.00 0.22
15.00 0.28
16.00 0.34
17.00 0.42
18.00 0.50
19.00 0.59
20.00 0.69
21.00 0.79
22.00 0.90
23.00 1.02
24.00 1.15
25.00 1.28
26.00 1.41
27.00 1.56
28.00 1.70
29.00 1.86
30.00 2.02
31.00 2.18
32.00 2.35
33.00 2.53
34.00 2.71
35.00 2.89
36.00 3.08
37.00 3.28
38.00 3.48
39.00 3.68
40.00 3.89
41.00 4.10
42.00 4.31
43.00 4.53
44.00 4.75
45.00 4.97
46.00 5.19
47.00 5.41
48.00 5.63
49.00 5.85
50.00 6.08
51.00 6.30
52.00 6.52
53.00 6.74
54.00 6.97
55.00 7.19
56.00 7.42
57.00 7.64
58.00 7.87
59.00 8.09
60.00 8.32
61.00 8.55
62.00 8.79
63.00 9.03
64.00 9.28
65.00 9.53
66.00 9.78
67.00 10.04
68.00 10.31
69.00 10.58
70.00 10.86
71.00 11.14
72.00 11.43
73.00 11.73
74.00 12.03
75.00 12.33
76.00 12.64
77.00 12.96
78.00 13.28
79.00 13.60
80.00 13.93
81.00 14.26
82.00 14.58
83.00 14.92
84.00 15.25
85.00 15.58
86.00 15.92
87.00 16.26
88.00 16.60
89.00 16.94
90.00 17.29
91.00 17.64
92.00 17.99
93.00 18.35
94.00 18.72
95.00 19.09
96.00 19.47
97.00 19.85
98.00 20.24
99.00 20.64
100.00 21.04
101.00 21.44
102.00 21.84
103.00 22.24
104.00 22.64
105.00 23.02
106.00 23.40
107.00 23.77
108.00 24.13
109.00 24.48
110.00 24.82
111.00 25.15
112.00 25.48
113.00 25.82
114.00 26.18
115.00 26.55
116.00 26.94
117.00 27.37
118.00 27.83
119.00 28.34
120.00 28.90
121.00 29.51
122.00 30.18
123.00 30.92
124.00 31.72
125.00 32.58
126.00 33.50
127.00 34.48
128.00 35.50
129.00 36.53
130.00 37.55
131.00 38.52
132.00 39.42
133.00 40.20
134.00 40.88
135.00 41.46
136.00 41.95
137.00 42.40
138.00 42.81
139.00 43.18
140.00 43.47
141.00 43.64
142.00 43.65
143.00 43.47
144.00 43.12
145.00 42.65
146.00 42.13
147.00 41.61
148.00 41.14
149.00 40.76
150.00 40.45
151.00 40.24
152.00 40.11
153.00 40.04
154.00 39.99
155.00 39.92
156.00 39.77
157.00 39.50
158.00 39.07
159.00 38.49
160.00 37.80
161.00 37.04
162.00 36.26
163.00 35.52
164.00 34.82
165.00 34.20
166.00 33.67
167.00 33.23
168.00 32.88
169.00 32.62
170.00 32.46
171.00 32.40
172.00 32.42
173.00 32.53
174.00 32.72
175.00 32.98
176.00 33.29
177.00 33.63
178.00 33.97
179.00 34.27
180.00 34.49
181.00 34.60
182.00 34.57
183.00 34.42
184.00 34.17
185.00 33.88
186.00 33.57
187.00 33.29
188.00 33.07
189.00 32.93
190.00 32.88
191.00 32.93
192.00 33.11
193.00 33.42
194.00 33.89
195.00 34.52
196.00 35.34
197.00 36.39
198.00 37.71
199.00 39.33
200.00 41.25
201.00 43.25
202.00 44.43
203.00 43.78
204.00 41.89
205.00 39.88
206.00 38.14
207.00 36.72
208.00 35.58
209.00 34.68
210.00 33.98
211.00 33.46
212.00 33.11
213.00 32.90
214.00 32.84
215.00 32.92
216.00 33.14
217.00 33.50
218.00 34.02
219.00 34.70
220.00 35.58
221.00 36.67
222.00 38.01
223.00 39.64
224.00 41.56
225.00 43.53
226.00 44.72
227.00 44.14
228.00 42.31
229.00 40.28
230.00 38.49
231.00 36.98
232.00 35.72
233.00 34.67
234.00 33.80
235.00 33.07
236.00 32.47
237.00 31.97
238.00 31.57
239.00 31.25
240.00 31.00
241.00 30.82
242.00 30.70
243.00 30.63
244.00 30.60
245.00 30.61
246.00 30.64
247.00 30.68
248.00 30.72
249.00 30.75
250.00 30.74
251.00 30.67
252.00 30.54
253.00 30.33
254.00 30.04
255.00 29.68
256.00 29.25
257.00 28.77
258.00 28.26
259.00 27.72
260.00 27.17
261.00 26.63
262.00 26.10
263.00 25.58
264.00 25.09
265.00 24.61
266.00 24.16
267.00 23.73
268.00 23.33
269.00 22.94
270.00 22.58
271.00 22.23
272.00 21.90
273.00 21.58
274.00 21.26
275.00 20.95
276.00 20.65
277.00 20.35
278.00 20.04
279.00 19.74
280.00 19.43
281.00 19.11
282.00 18.78
283.00 18.45
284.00 18.11
285.00 17.76
286.00 17.41
287.00 17.05
288.00 16.69
289.00 16.33
290.00 15.97
291.00 15.60
292.00 15.24
293.00 14.88
294.00 14.53
295.00 14.18
296.00 13.84
297.00 13.50
298.00 13.16
299.00 12.83
300.00 12.50
301.00 12.17
302.00 11.85
303.00 11.53
304.00 11.21
305.00 10.89
306.00 10.56
307.00 10.24
308.00 9.91
309.00 9.58
310.00 9.25
311.00 8.92
312.00 8.59
313.00 8.25
314.00 7.91
315.00 7.58
316.00 7.24
317.00 6.91
318.00 6.59
319.00 6.26
320.00 5.95
321.00 5.64
322.00 5.33
323.00 5.04
324.00 4.76
325.00 4.48
326.00 4.21
327.00 3.96
328.00 3.71
329.00 3.47
330.00 3.25
331.00 3.03
332.00 2.83
333.00 2.63
334.00 2.45
335.00 2.27
336.00 2.11
337.00 1.95
338.00 1.80
339.00 1.66
340.00 1.53
341.00 1.41
342.00 1.29
343.00 1.18
344.00 1.08
345.00 0.99
346.00 0.90
347.00 0.81
348.00 0.74
349.00 0.66
350.00 0.59
351.00 0.53
352.00 0.47
353.00 0.41
354.00 0.36
355.00 0.31
356.00 0.26
357.00 0.21
358.00 0.17
359.00 0.14
VERTICAL 360
0.00 1.54
1.00 0.40
2.00 0.00
3.00 0.31
4.00 1.37
5.00 3.35
6.00 6.58
7.00 12.05
8.00 25.02
9.00 21.13
10.00 15.58
11.00 14.92
12.00 17.15
13.00 23.24
14.00 23.40
15.00 16.78
16.00 13.84
17.00 13.03
18.00 13.87
19.00 16.44
20.00 21.41
21.00 27.42
22.00 22.39
23.00 18.80
24.00 17.61
25.00 18.25
26.00 20.85
27.00 26.16
28.00 30.06
29.00 24.92
30.00 21.99
31.00 20.67
32.00 20.03
33.00 19.58
34.00 19.19
35.00 18.86
36.00 18.63
37.00 18.46
38.00 18.23
39.00 17.85
40.00 17.37
41.00 16.97
42.00 16.79
43.00 16.95
44.00 17.51
45.00 18.52
46.00 20.10
47.00 22.39
48.00 25.56
49.00 29.93
50.00 36.71
51.00 55.04
52.00 37.82
53.00 31.92
54.00 28.61
55.00 26.68
56.00 25.87
57.00 26.11
58.00 27.41
59.00 29.88
60.00 33.85
61.00 40.05
62.00 44.08
63.00 39.18
64.00 36.08
65.00 34.44
66.00 33.53
67.00 33.01
68.00 32.77
69.00 32.72
70.00 32.79
71.00 33.04
72.00 33.59
73.00 34.40
74.00 35.19
75.00 35.62
76.00 35.54
77.00 35.31
78.00 35.45
79.00 36.21
80.00 37.56
81.00 39.40
82.00 41.94
83.00 45.86
84.00 49.21
85.00 47.00
86.00 45.67
87.00 45.00
88.00 41.77
89.00 38.87
90.00 38.03
91.00 39.23
92.00 41.86
93.00 44.75
94.00 49.05
95.00 54.96
96.00 46.82
97.00 43.80
98.00 43.84
99.00 43.91
100.00 42.66
101.00 42.38
102.00 43.83
103.00 46.20
104.00 48.41
105.00 50.47
106.00 49.55
107.00 46.71
108.00 44.99
109.00 44.17
110.00 43.90
111.00 44.34
112.00 45.44
113.00 46.47
114.00 46.58
115.00 46.12
116.00 46.25
117.00 47.73
118.00 47.95
119.00 43.53
120.00 39.71
121.00 37.68
122.00 37.27
123.00 38.37
124.00 40.76
125.00 43.43
126.00 45.19
127.00 47.13
128.00 47.86
129.00 44.54
130.00 42.02
131.00 41.46
132.00 41.96
133.00 41.32
134.00 39.25
135.00 37.69
136.00 37.10
137.00 36.92
138.00 36.20
139.00 34.75
140.00 33.30
141.00 32.40
142.00 32.23
143.00 32.83
144.00 34.19
145.00 36.32
146.00 39.15
147.00 42.18
148.00 44.27
149.00 44.77
150.00 45.05
151.00 47.01
152.00 47.53
153.00 42.01
154.00 38.51
155.00 37.67
156.00 39.11
157.00 41.86
158.00 42.62
159.00 42.22
160.00 42.90
161.00 42.28
162.00 40.30
163.00 39.73
164.00 40.88
165.00 41.63
166.00 40.29
167.00 39.32
168.00 39.69
169.00 40.50
170.00 40.71
171.00 41.27
172.00 43.85
173.00 47.49
174.00 42.42
175.00 37.71
176.00 35.12
177.00 33.87
178.00 33.57
179.00 33.82
180.00 34.33
181.00 34.90
182.00 35.58
183.00 36.38
184.00 37.18
185.00 37.78
186.00 38.15
187.00 38.21
188.00 38.15
189.00 38.30
190.00 38.23
191.00 37.37
192.00 36.64
193.00 37.27
194.00 39.76
195.00 43.38
196.00 44.94
197.00 46.64
198.00 55.83
199.00 50.41
200.00 43.42
201.00 41.17
202.00 40.71
203.00 40.80
204.00 41.35
205.00 42.76
206.00 43.22
207.00 40.40
208.00 37.70
209.00 36.50
210.00 36.30
211.00 35.67
212.00 34.09
213.00 32.87
214.00 32.80
215.00 33.82
216.00 34.87
217.00 34.87
218.00 34.86
219.00 36.16
220.00 38.77
221.00 39.55
222.00 37.49
223.00 36.19
224.00 36.25
225.00 37.24
226.00 38.49
227.00 39.07
228.00 38.48
229.00 37.48
230.00 36.93
231.00 36.98
232.00 37.18
233.00 36.95
234.00 36.49
235.00 36.41
236.00 37.09
237.00 38.67
238.00 41.25
239.00 45.18
240.00 51.50
241.00 57.17
242.00 51.67
243.00 49.38
244.00 50.25
245.00 55.20
246.00 68.14
247.00 53.47
248.00 49.10
249.00 47.23
250.00 45.59
251.00 42.90
252.00 40.01
253.00 37.92
254.00 36.86
255.00 36.69
256.00 37.07
257.00 37.61
258.00 38.07
259.00 38.41
260.00 38.46
261.00 38.10
262.00 37.51
263.00 37.08
264.00 37.18
265.00 37.97
266.00 39.31
267.00 40.62
268.00 40.84
269.00 39.48
270.00 37.27
271.00 35.11
272.00 33.45
273.00 32.47
274.00 32.16
275.00 32.40
276.00 32.82
277.00 33.07
278.00 33.13
279.00 33.17
280.00 33.08
281.00 32.49
282.00 31.36
283.00 30.27
284.00 29.75
285.00 29.97
286.00 30.92
287.00 32.42
288.00 34.15
289.00 34.84
290.00 33.39
291.00 31.35
292.00 30.01
293.00 29.62
294.00 30.17
295.00 31.73
296.00 34.30
297.00 35.89
298.00 33.03
299.00 29.59
300.00 27.27
301.00 25.81
302.00 24.87
303.00 24.33
304.00 24.31
305.00 25.01
306.00 26.68
307.00 29.68
308.00 35.05
309.00 41.87
310.00 33.88
311.00 28.52
312.00 25.23
313.00 23.24
314.00 22.31
315.00 22.21
316.00 22.67
317.00 23.35
318.00 23.95
319.00 24.23
320.00 23.87
321.00 22.74
322.00 21.11
323.00 19.42
324.00 18.00
325.00 16.97
326.00 16.39
327.00 16.26
328.00 16.63
329.00 17.65
330.00 19.67
331.00 23.51
332.00 30.90
333.00 27.82
334.00 21.92
335.00 19.13
336.00 18.15
337.00 18.66
338.00 20.97
339.00 26.73
340.00 41.56
341.00 25.06
342.00 20.78
343.00 19.62
344.00 20.81
345.00 25.38
346.00 36.94
347.00 24.31
348.00 19.61
349.00 18.14
350.00 18.89
351.00 21.98
352.00 28.20
353.00 33.39
354.00 36.88
355.00 29.64
356.00 17.44
357.00 10.85
358.00 6.49
359.00 3.51
