NAME ATR4518R7_0894_X_CO_M45_00T
FREQUENCY 0894
GAIN 14.64 dBd
TILT	ELECTRICAL
COMMENT DATE 05.08.2013 -45 degrees polarized system Lever position 00T deg
HORIZONTAL 360
0.00 0.01
1.00 0.00
2.00 0.00
3.00 0.01
4.00 0.02
5.00 0.04
6.00 0.07
7.00 0.10
8.00 0.14
9.00 0.19
10.00 0.24
11.00 0.30
12.00 0.37
13.00 0.44
14.00 0.52
15.00 0.61
16.00 0.70
17.00 0.80
18.00 0.90
19.00 1.02
20.00 1.14
21.00 1.27
22.00 1.40
23.00 1.54
24.00 1.68
25.00 1.84
26.00 2.00
27.00 2.17
28.00 2.34
29.00 2.52
30.00 2.71
31.00 2.91
32.00 3.11
33.00 3.32
34.00 3.53
35.00 3.76
36.00 3.99
37.00 4.22
38.00 4.46
39.00 4.71
40.00 4.97
41.00 5.23
42.00 5.50
43.00 5.78
44.00 6.06
45.00 6.35
46.00 6.65
47.00 6.96
48.00 7.27
49.00 7.59
50.00 7.91
51.00 8.24
52.00 8.58
53.00 8.93
54.00 9.28
55.00 9.63
56.00 10.00
57.00 10.37
58.00 10.74
59.00 11.13
60.00 11.52
61.00 11.92
62.00 12.32
63.00 12.72
64.00 13.13
65.00 13.55
66.00 13.98
67.00 14.40
68.00 14.84
69.00 15.27
70.00 15.71
71.00 16.15
72.00 16.59
73.00 17.04
74.00 17.48
75.00 17.93
76.00 18.37
77.00 18.81
78.00 19.25
79.00 19.68
80.00 20.11
81.00 20.53
82.00 20.94
83.00 21.34
84.00 21.73
85.00 22.11
86.00 22.48
87.00 22.84
88.00 23.19
89.00 23.52
90.00 23.85
91.00 24.16
92.00 24.46
93.00 24.76
94.00 25.05
95.00 25.33
96.00 25.61
97.00 25.88
98.00 26.15
99.00 26.42
100.00 26.70
101.00 26.98
102.00 27.25
103.00 27.54
104.00 27.84
105.00 28.14
106.00 28.45
107.00 28.77
108.00 29.10
109.00 29.44
110.00 29.80
111.00 30.17
112.00 30.55
113.00 30.95
114.00 31.36
115.00 31.79
116.00 32.23
117.00 32.69
118.00 33.16
119.00 33.66
120.00 34.16
121.00 34.69
122.00 35.22
123.00 35.78
124.00 36.35
125.00 36.94
126.00 37.54
127.00 38.14
128.00 38.77
129.00 39.40
130.00 40.04
131.00 40.68
132.00 41.32
133.00 41.95
134.00 42.57
135.00 43.17
136.00 43.74
137.00 44.26
138.00 44.73
139.00 45.12
140.00 45.42
141.00 45.62
142.00 45.71
143.00 45.69
144.00 45.54
145.00 45.31
146.00 44.99
147.00 44.61
148.00 44.18
149.00 43.69
150.00 43.20
151.00 42.69
152.00 42.18
153.00 41.67
154.00 41.18
155.00 40.70
156.00 40.23
157.00 39.77
158.00 39.34
159.00 38.93
160.00 38.53
161.00 38.17
162.00 37.81
163.00 37.49
164.00 37.18
165.00 36.90
166.00 36.64
167.00 36.39
168.00 36.17
169.00 35.97
170.00 35.80
171.00 35.64
172.00 35.51
173.00 35.40
174.00 35.30
175.00 35.24
176.00 35.19
177.00 35.17
178.00 35.16
179.00 35.19
180.00 35.23
181.00 35.30
182.00 35.40
183.00 35.52
184.00 35.66
185.00 35.83
186.00 36.03
187.00 36.26
188.00 36.52
189.00 36.81
190.00 37.13
191.00 37.49
192.00 37.88
193.00 38.32
194.00 38.79
195.00 39.31
196.00 39.87
197.00 40.49
198.00 41.15
199.00 41.87
200.00 42.64
201.00 43.45
202.00 44.29
203.00 45.14
204.00 45.95
205.00 46.63
206.00 47.12
207.00 47.29
208.00 47.16
209.00 46.74
210.00 46.13
211.00 45.42
212.00 44.65
213.00 43.87
214.00 43.13
215.00 42.43
216.00 41.77
217.00 41.15
218.00 40.57
219.00 40.04
220.00 39.53
221.00 39.06
222.00 38.62
223.00 38.19
224.00 37.79
225.00 37.42
226.00 37.05
227.00 36.69
228.00 36.35
229.00 36.02
230.00 35.69
231.00 35.37
232.00 35.05
233.00 34.73
234.00 34.42
235.00 34.11
236.00 33.80
237.00 33.49
238.00 33.18
239.00 32.87
240.00 32.55
241.00 32.24
242.00 31.92
243.00 31.60
244.00 31.28
245.00 30.95
246.00 30.62
247.00 30.29
248.00 29.94
249.00 29.60
250.00 29.25
251.00 28.89
252.00 28.53
253.00 28.17
254.00 27.79
255.00 27.41
256.00 27.03
257.00 26.64
258.00 26.24
259.00 25.84
260.00 25.44
261.00 25.03
262.00 24.62
263.00 24.21
264.00 23.79
265.00 23.38
266.00 22.96
267.00 22.54
268.00 22.13
269.00 21.72
270.00 21.30
271.00 20.89
272.00 20.49
273.00 20.08
274.00 19.68
275.00 19.29
276.00 18.89
277.00 18.50
278.00 18.12
279.00 17.73
280.00 17.36
281.00 16.98
282.00 16.61
283.00 16.25
284.00 15.89
285.00 15.53
286.00 15.18
287.00 14.83
288.00 14.48
289.00 14.14
290.00 13.80
291.00 13.47
292.00 13.14
293.00 12.81
294.00 12.49
295.00 12.17
296.00 11.85
297.00 11.53
298.00 11.22
299.00 10.92
300.00 10.61
301.00 10.31
302.00 10.01
303.00 9.71
304.00 9.42
305.00 9.13
306.00 8.84
307.00 8.56
308.00 8.27
309.00 8.00
310.00 7.72
311.00 7.45
312.00 7.18
313.00 6.92
314.00 6.66
315.00 6.41
316.00 6.15
317.00 5.90
318.00 5.66
319.00 5.42
320.00 5.18
321.00 4.95
322.00 4.72
323.00 4.50
324.00 4.28
325.00 4.06
326.00 3.85
327.00 3.65
328.00 3.45
329.00 3.25
330.00 3.06
331.00 2.88
332.00 2.70
333.00 2.52
334.00 2.35
335.00 2.19
336.00 2.03
337.00 1.88
338.00 1.73
339.00 1.59
340.00 1.45
341.00 1.33
342.00 1.20
343.00 1.08
344.00 0.97
345.00 0.86
346.00 0.76
347.00 0.67
348.00 0.58
349.00 0.50
350.00 0.42
351.00 0.35
352.00 0.29
353.00 0.23
354.00 0.18
355.00 0.14
356.00 0.10
357.00 0.07
358.00 0.04
359.00 0.02
VERTICAL 360
0.00 0.00
1.00 0.13
2.00 0.63
3.00 1.53
4.00 2.84
5.00 4.64
6.00 6.98
7.00 10.01
8.00 13.94
9.00 19.10
10.00 25.03
11.00 27.31
12.00 27.59
13.00 31.04
14.00 37.66
15.00 27.67
16.00 22.38
17.00 19.63
18.00 18.32
19.00 18.04
20.00 18.66
21.00 20.25
22.00 23.12
23.00 28.34
24.00 39.44
25.00 31.55
26.00 26.69
27.00 25.21
28.00 26.04
29.00 29.90
30.00 37.28
31.00 27.51
32.00 21.64
33.00 18.13
34.00 15.76
35.00 14.10
36.00 12.93
37.00 12.15
38.00 11.74
39.00 11.69
40.00 11.99
41.00 12.65
42.00 13.65
43.00 14.96
44.00 16.58
45.00 18.52
46.00 20.87
47.00 23.86
48.00 27.94
49.00 33.90
50.00 41.20
51.00 39.39
52.00 37.64
53.00 38.55
54.00 41.52
55.00 43.56
56.00 40.45
57.00 37.76
58.00 36.96
59.00 37.98
60.00 40.85
61.00 45.62
62.00 48.52
63.00 44.95
64.00 41.78
65.00 40.08
66.00 39.62
67.00 40.02
68.00 40.82
69.00 41.60
70.00 42.38
71.00 43.98
72.00 48.13
73.00 52.63
74.00 44.76
75.00 40.29
76.00 37.75
77.00 35.98
78.00 34.94
79.00 35.17
80.00 37.13
81.00 39.39
82.00 36.48
83.00 32.47
84.00 29.76
85.00 28.21
86.00 27.85
87.00 28.95
88.00 32.12
89.00 38.91
90.00 44.19
91.00 38.97
92.00 38.55
93.00 40.10
94.00 39.31
95.00 36.99
96.00 34.67
97.00 32.25
98.00 30.49
99.00 30.00
100.00 30.97
101.00 33.52
102.00 37.72
103.00 42.35
104.00 41.67
105.00 39.03
106.00 37.83
107.00 38.21
108.00 40.03
109.00 42.50
110.00 43.56
111.00 43.10
112.00 43.44
113.00 46.33
114.00 57.62
115.00 49.90
116.00 43.00
117.00 40.54
118.00 40.20
119.00 41.28
120.00 43.10
121.00 43.56
122.00 41.51
123.00 39.27
124.00 37.72
125.00 36.69
126.00 36.05
127.00 35.94
128.00 36.39
129.00 36.90
130.00 36.61
131.00 35.46
132.00 34.11
133.00 33.08
134.00 32.65
135.00 32.89
136.00 33.63
137.00 34.48
138.00 35.14
139.00 35.74
140.00 36.66
141.00 38.26
142.00 40.34
143.00 40.12
144.00 37.17
145.00 34.96
146.00 34.29
147.00 35.06
148.00 37.14
149.00 40.23
150.00 43.38
151.00 44.56
152.00 43.15
153.00 40.61
154.00 37.99
155.00 35.74
156.00 33.99
157.00 32.70
158.00 31.80
159.00 31.27
160.00 31.16
161.00 31.54
162.00 32.52
163.00 34.11
164.00 36.11
165.00 37.99
166.00 39.66
167.00 42.20
168.00 43.63
169.00 38.91
170.00 34.84
171.00 32.60
172.00 31.67
173.00 31.69
174.00 32.25
175.00 32.93
176.00 33.39
177.00 33.70
178.00 34.14
179.00 34.78
180.00 35.35
181.00 35.56
182.00 35.55
183.00 35.36
184.00 34.90
185.00 34.28
186.00 33.92
187.00 34.18
188.00 35.25
189.00 37.13
190.00 39.50
191.00 41.43
192.00 41.92
193.00 41.14
194.00 40.13
195.00 39.79
196.00 40.43
197.00 41.52
198.00 41.58
199.00 40.44
200.00 39.42
201.00 38.97
202.00 38.84
203.00 38.56
204.00 37.92
205.00 37.31
206.00 37.10
207.00 37.11
208.00 36.72
209.00 35.90
210.00 35.23
211.00 34.95
212.00 34.83
213.00 34.59
214.00 34.15
215.00 33.57
216.00 32.84
217.00 31.94
218.00 30.97
219.00 30.13
220.00 29.74
221.00 30.00
222.00 30.86
223.00 31.91
224.00 32.55
225.00 32.80
226.00 33.07
227.00 33.56
228.00 34.34
229.00 35.56
230.00 37.14
231.00 38.31
232.00 38.68
233.00 39.08
234.00 39.84
235.00 40.34
236.00 40.71
237.00 42.19
238.00 45.06
239.00 44.57
240.00 41.25
241.00 39.52
242.00 39.41
243.00 40.10
244.00 40.23
245.00 39.07
246.00 37.67
247.00 37.00
248.00 37.37
249.00 38.46
250.00 39.05
251.00 38.26
252.00 37.08
253.00 36.31
254.00 36.13
255.00 36.88
256.00 39.19
257.00 43.48
258.00 43.14
259.00 38.27
260.00 35.21
261.00 33.64
262.00 33.38
263.00 34.77
264.00 38.85
265.00 45.84
266.00 38.71
267.00 34.03
268.00 31.85
269.00 31.05
270.00 31.34
271.00 32.71
272.00 34.72
273.00 34.86
274.00 32.56
275.00 30.56
276.00 29.63
277.00 29.70
278.00 30.64
279.00 32.12
280.00 33.04
281.00 32.37
282.00 31.07
283.00 30.19
284.00 30.00
285.00 30.55
286.00 31.87
287.00 33.89
288.00 36.26
289.00 38.31
290.00 39.59
291.00 39.13
292.00 36.65
293.00 33.98
294.00 32.00
295.00 30.76
296.00 30.08
297.00 29.67
298.00 29.28
299.00 28.89
300.00 28.76
301.00 29.27
302.00 30.94
303.00 34.83
304.00 46.31
305.00 37.49
306.00 30.18
307.00 26.16
308.00 23.30
309.00 20.91
310.00 18.82
311.00 17.02
312.00 15.58
313.00 14.52
314.00 13.85
315.00 13.54
316.00 13.50
317.00 13.65
318.00 13.93
319.00 14.36
320.00 15.03
321.00 16.07
322.00 17.62
323.00 19.84
324.00 22.91
325.00 27.00
326.00 32.32
327.00 38.38
328.00 40.23
329.00 37.15
330.00 34.19
331.00 31.93
332.00 30.15
333.00 28.54
334.00 26.86
335.00 25.09
336.00 23.36
337.00 21.87
338.00 20.78
339.00 20.20
340.00 20.22
341.00 20.98
342.00 22.67
343.00 25.83
344.00 32.18
345.00 41.31
346.00 29.81
347.00 25.75
348.00 24.66
349.00 26.23
350.00 28.86
351.00 21.74
352.00 15.24
353.00 10.75
354.00 7.47
355.00 5.01
356.00 3.15
357.00 1.78
358.00 0.82
359.00 0.23
