NAME ATR4518R7_2655_X_CO_M45_01T_yyR
FREQUENCY 2655
GAIN 15.74 dBd
TILT	ELECTRICAL
COMMENT DATE 05.08.2013 -45 degrees polarized system Lever position 01T deg
HORIZONTAL 360
0.00 0.01
1.00 0.00
2.00 0.00
3.00 0.02
4.00 0.05
5.00 0.09
6.00 0.14
7.00 0.21
8.00 0.29
9.00 0.38
10.00 0.49
11.00 0.61
12.00 0.73
13.00 0.87
14.00 1.03
15.00 1.19
16.00 1.36
17.00 1.53
18.00 1.72
19.00 1.90
20.00 2.10
21.00 2.30
22.00 2.50
23.00 2.71
24.00 2.90
25.00 3.11
26.00 3.32
27.00 3.53
28.00 3.73
29.00 3.94
30.00 4.14
31.00 4.35
32.00 4.55
33.00 4.76
34.00 4.98
35.00 5.19
36.00 5.41
37.00 5.63
38.00 5.86
39.00 6.10
40.00 6.35
41.00 6.60
42.00 6.89
43.00 7.19
44.00 7.50
45.00 7.82
46.00 8.17
47.00 8.52
48.00 8.89
49.00 9.29
50.00 9.68
51.00 10.11
52.00 10.54
53.00 11.00
54.00 11.47
55.00 11.97
56.00 12.48
57.00 13.01
58.00 13.57
59.00 14.15
60.00 14.76
61.00 15.39
62.00 16.06
63.00 16.74
64.00 17.46
65.00 18.23
66.00 19.03
67.00 19.87
68.00 20.76
69.00 21.70
70.00 22.69
71.00 23.75
72.00 24.87
73.00 26.05
74.00 27.28
75.00 28.59
76.00 29.94
77.00 31.32
78.00 32.70
79.00 34.00
80.00 35.15
81.00 36.04
82.00 36.59
83.00 36.77
84.00 36.64
85.00 36.27
86.00 35.76
87.00 35.17
88.00 34.54
89.00 33.90
90.00 33.28
91.00 32.68
92.00 32.13
93.00 31.62
94.00 31.18
95.00 30.79
96.00 30.48
97.00 30.24
98.00 30.07
99.00 29.98
100.00 29.96
101.00 30.01
102.00 30.13
103.00 30.32
104.00 30.57
105.00 30.87
106.00 31.22
107.00 31.60
108.00 31.99
109.00 32.39
110.00 32.78
111.00 33.15
112.00 33.51
113.00 33.87
114.00 34.26
115.00 34.69
116.00 35.21
117.00 35.87
118.00 36.70
119.00 37.76
120.00 39.09
121.00 40.63
122.00 42.08
123.00 42.55
124.00 41.41
125.00 39.37
126.00 37.27
127.00 35.43
128.00 33.88
129.00 32.60
130.00 31.56
131.00 30.74
132.00 30.10
133.00 29.65
134.00 29.37
135.00 29.25
136.00 29.30
137.00 29.51
138.00 29.91
139.00 30.50
140.00 31.30
141.00 32.33
142.00 33.63
143.00 35.21
144.00 37.03
145.00 38.84
146.00 39.94
147.00 39.62
148.00 38.29
149.00 36.79
150.00 35.49
151.00 34.49
152.00 33.78
153.00 33.35
154.00 33.16
155.00 33.21
156.00 33.47
157.00 33.91
158.00 34.49
159.00 35.11
160.00 35.61
161.00 35.79
162.00 35.52
163.00 34.83
164.00 33.92
165.00 32.95
166.00 32.06
167.00 31.30
168.00 30.70
169.00 30.28
170.00 30.02
171.00 29.94
172.00 30.03
173.00 30.31
174.00 30.78
175.00 31.47
176.00 32.40
177.00 33.62
178.00 35.23
179.00 37.34
180.00 40.27
181.00 44.70
182.00 52.54
183.00 51.24
184.00 44.47
185.00 40.72
186.00 38.30
187.00 36.60
188.00 35.34
189.00 34.38
190.00 33.64
191.00 33.04
192.00 32.55
193.00 32.13
194.00 31.76
195.00 31.42
196.00 31.10
197.00 30.81
198.00 30.55
199.00 30.32
200.00 30.14
201.00 30.02
202.00 29.96
203.00 29.96
204.00 30.03
205.00 30.16
206.00 30.35
207.00 30.59
208.00 30.85
209.00 31.13
210.00 31.38
211.00 31.58
212.00 31.70
213.00 31.72
214.00 31.65
215.00 31.49
216.00 31.26
217.00 30.99
218.00 30.69
219.00 30.38
220.00 30.06
221.00 29.75
222.00 29.44
223.00 29.12
224.00 28.80
225.00 28.47
226.00 28.14
227.00 27.81
228.00 27.49
229.00 27.17
230.00 26.88
231.00 26.61
232.00 26.37
233.00 26.18
234.00 26.03
235.00 25.93
236.00 25.88
237.00 25.87
238.00 25.92
239.00 26.01
240.00 26.15
241.00 26.33
242.00 26.55
243.00 26.81
244.00 27.09
245.00 27.40
246.00 27.73
247.00 28.07
248.00 28.43
249.00 28.79
250.00 29.15
251.00 29.52
252.00 29.88
253.00 30.25
254.00 30.62
255.00 30.99
256.00 31.35
257.00 31.70
258.00 32.03
259.00 32.34
260.00 32.62
261.00 32.86
262.00 33.04
263.00 33.17
264.00 33.22
265.00 33.18
266.00 33.06
267.00 32.85
268.00 32.56
269.00 32.16
270.00 31.69
271.00 31.17
272.00 30.58
273.00 29.99
274.00 29.34
275.00 28.68
276.00 28.03
277.00 27.37
278.00 26.70
279.00 26.05
280.00 25.41
281.00 24.76
282.00 24.14
283.00 23.52
284.00 22.92
285.00 22.34
286.00 21.75
287.00 21.17
288.00 20.59
289.00 20.02
290.00 19.45
291.00 18.88
292.00 18.32
293.00 17.76
294.00 17.21
295.00 16.67
296.00 16.13
297.00 15.59
298.00 15.07
299.00 14.55
300.00 14.04
301.00 13.56
302.00 13.07
303.00 12.59
304.00 12.13
305.00 11.67
306.00 11.23
307.00 10.80
308.00 10.38
309.00 9.96
310.00 9.55
311.00 9.16
312.00 8.78
313.00 8.42
314.00 8.06
315.00 7.71
316.00 7.37
317.00 7.03
318.00 6.70
319.00 6.37
320.00 6.05
321.00 5.74
322.00 5.44
323.00 5.13
324.00 4.84
325.00 4.55
326.00 4.29
327.00 4.02
328.00 3.76
329.00 3.52
330.00 3.29
331.00 3.06
332.00 2.85
333.00 2.65
334.00 2.47
335.00 2.29
336.00 2.11
337.00 1.96
338.00 1.81
339.00 1.67
340.00 1.54
341.00 1.41
342.00 1.30
343.00 1.19
344.00 1.09
345.00 0.98
346.00 0.89
347.00 0.79
348.00 0.70
349.00 0.62
350.00 0.54
351.00 0.45
352.00 0.39
353.00 0.31
354.00 0.25
355.00 0.18
356.00 0.14
357.00 0.09
358.00 0.05
359.00 0.03
VERTICAL 360
0.00 0.51
1.00 0.00
2.00 0.82
3.00 3.17
4.00 7.71
5.00 16.58
6.00 20.30
7.00 15.66
8.00 16.46
9.00 18.43
10.00 15.44
11.00 12.66
12.00 12.40
13.00 14.87
14.00 20.36
15.00 19.78
16.00 15.77
17.00 15.28
18.00 18.36
19.00 24.68
20.00 21.07
21.00 16.68
22.00 15.07
23.00 14.82
24.00 15.19
25.00 15.50
26.00 15.16
27.00 14.20
28.00 13.20
29.00 12.72
30.00 13.05
31.00 14.42
32.00 17.35
33.00 23.82
34.00 34.60
35.00 23.27
36.00 19.89
37.00 20.59
38.00 25.54
39.00 34.66
40.00 25.91
41.00 21.63
42.00 20.53
43.00 21.61
44.00 25.16
45.00 32.29
46.00 35.66
47.00 33.31
48.00 35.89
49.00 48.41
50.00 44.98
51.00 36.64
52.00 32.31
53.00 29.75
54.00 28.72
55.00 29.41
56.00 33.66
57.00 43.35
58.00 30.18
59.00 23.45
60.00 19.39
61.00 16.72
62.00 15.14
63.00 14.37
64.00 14.12
65.00 14.15
66.00 14.35
67.00 14.77
68.00 15.43
69.00 16.26
70.00 17.12
71.00 17.93
72.00 18.69
73.00 19.48
74.00 20.31
75.00 21.18
76.00 22.17
77.00 23.31
78.00 24.35
79.00 25.12
80.00 25.77
81.00 26.87
82.00 29.00
83.00 30.49
84.00 29.04
85.00 27.05
86.00 25.71
87.00 25.19
88.00 26.02
89.00 28.16
90.00 29.77
91.00 29.31
92.00 28.56
93.00 28.10
94.00 27.89
95.00 28.95
96.00 31.58
97.00 33.50
98.00 33.06
99.00 32.40
100.00 31.98
101.00 31.92
102.00 32.45
103.00 33.10
104.00 33.41
105.00 33.62
106.00 34.12
107.00 35.01
108.00 36.21
109.00 37.62
110.00 37.99
111.00 36.79
112.00 35.74
113.00 35.27
114.00 35.14
115.00 35.50
116.00 36.29
117.00 37.56
118.00 39.75
119.00 42.58
120.00 44.50
121.00 44.44
122.00 42.92
123.00 40.62
124.00 39.23
125.00 39.77
126.00 40.63
127.00 39.89
128.00 39.87
129.00 41.37
130.00 43.22
131.00 42.56
132.00 39.85
133.00 39.41
134.00 42.08
135.00 45.34
136.00 43.28
137.00 39.02
138.00 37.39
139.00 39.25
140.00 41.98
141.00 41.66
142.00 43.86
143.00 50.51
144.00 55.89
145.00 46.58
146.00 41.03
147.00 41.47
148.00 48.37
149.00 51.95
150.00 50.47
151.00 49.66
152.00 50.89
153.00 57.18
154.00 43.68
155.00 41.82
156.00 45.65
157.00 48.13
158.00 41.82
159.00 36.77
160.00 34.95
161.00 36.44
162.00 39.98
163.00 42.51
164.00 46.03
165.00 44.45
166.00 41.85
167.00 45.54
168.00 53.90
169.00 40.48
170.00 36.13
171.00 36.46
172.00 40.19
173.00 37.76
174.00 34.62
175.00 34.89
176.00 36.14
177.00 37.32
178.00 40.74
179.00 48.02
180.00 55.29
181.00 46.34
182.00 40.36
183.00 39.41
184.00 41.03
185.00 39.88
186.00 37.36
187.00 35.73
188.00 34.39
189.00 34.12
190.00 36.25
191.00 40.36
192.00 39.86
193.00 38.66
194.00 40.94
195.00 47.67
196.00 45.98
197.00 38.10
198.00 35.59
199.00 36.55
200.00 37.44
201.00 35.62
202.00 35.04
203.00 36.29
204.00 37.14
205.00 35.49
206.00 32.82
207.00 31.31
208.00 31.85
209.00 34.71
210.00 38.85
211.00 39.90
212.00 39.34
213.00 40.01
214.00 41.77
215.00 42.21
216.00 39.48
217.00 36.43
218.00 34.54
219.00 34.23
220.00 34.94
221.00 35.12
222.00 35.31
223.00 37.26
224.00 41.40
225.00 47.48
226.00 44.30
227.00 38.83
228.00 37.15
229.00 36.55
230.00 35.16
231.00 34.41
232.00 35.19
233.00 36.70
234.00 37.58
235.00 38.14
236.00 39.74
237.00 41.12
238.00 39.18
239.00 36.98
240.00 35.89
241.00 35.27
242.00 34.84
243.00 35.01
244.00 36.27
245.00 38.44
246.00 40.09
247.00 39.90
248.00 39.17
249.00 39.23
250.00 37.60
251.00 33.89
252.00 31.32
253.00 30.44
254.00 30.98
255.00 32.38
256.00 33.07
257.00 32.62
258.00 32.79
259.00 34.53
260.00 37.04
261.00 36.28
262.00 33.88
263.00 33.63
264.00 36.24
265.00 41.87
266.00 43.35
267.00 38.75
268.00 36.02
269.00 35.17
270.00 35.10
271.00 34.60
272.00 33.76
273.00 33.22
274.00 33.11
275.00 33.20
276.00 33.39
277.00 33.69
278.00 33.67
279.00 33.37
280.00 33.41
281.00 33.58
282.00 33.60
283.00 33.81
284.00 34.12
285.00 34.50
286.00 35.90
287.00 39.10
288.00 38.93
289.00 33.21
290.00 28.75
291.00 25.81
292.00 23.70
293.00 21.86
294.00 20.05
295.00 18.36
296.00 17.01
297.00 16.11
298.00 15.66
299.00 15.58
300.00 15.83
301.00 16.51
302.00 17.83
303.00 20.06
304.00 23.74
305.00 30.61
306.00 36.98
307.00 27.98
308.00 23.78
309.00 22.30
310.00 22.59
311.00 23.72
312.00 23.26
313.00 21.20
314.00 20.03
315.00 20.76
316.00 23.64
317.00 26.62
318.00 24.68
319.00 21.95
320.00 20.51
321.00 20.11
322.00 21.09
323.00 24.57
324.00 29.10
325.00 24.01
326.00 19.74
327.00 18.09
328.00 18.24
329.00 20.04
330.00 23.48
331.00 27.08
332.00 26.65
333.00 22.76
334.00 18.81
335.00 16.27
336.00 15.35
337.00 16.11
338.00 19.06
339.00 26.80
340.00 28.91
341.00 21.16
342.00 19.39
343.00 21.23
344.00 27.78
345.00 32.30
346.00 25.64
347.00 24.54
348.00 27.53
349.00 28.71
350.00 24.65
351.00 23.89
352.00 26.63
353.00 25.73
354.00 23.06
355.00 26.96
356.00 21.95
357.00 11.40
358.00 5.74
359.00 2.35
