NAME ATR4518R7_2655_X_CO_M45_03T_yyR
FREQUENCY 2655
GAIN 16.11 dBd
TILT	ELECTRICAL
COMMENT DATE 05.08.2013 -45 degrees polarized system Lever position 03T deg
HORIZONTAL 360
0.00 0.02
1.00 0.00
2.00 0.00
3.00 0.00
4.00 0.03
5.00 0.06
6.00 0.10
7.00 0.16
8.00 0.24
9.00 0.33
10.00 0.42
11.00 0.54
12.00 0.66
13.00 0.80
14.00 0.95
15.00 1.11
16.00 1.28
17.00 1.45
18.00 1.64
19.00 1.83
20.00 2.01
21.00 2.20
22.00 2.39
23.00 2.58
24.00 2.76
25.00 2.94
26.00 3.12
27.00 3.30
28.00 3.46
29.00 3.64
30.00 3.81
31.00 3.98
32.00 4.15
33.00 4.33
34.00 4.52
35.00 4.71
36.00 4.91
37.00 5.12
38.00 5.34
39.00 5.58
40.00 5.86
41.00 6.16
42.00 6.47
43.00 6.82
44.00 7.17
45.00 7.56
46.00 7.95
47.00 8.37
48.00 8.82
49.00 9.27
50.00 9.76
51.00 10.26
52.00 10.77
53.00 11.31
54.00 11.86
55.00 12.44
56.00 13.03
57.00 13.64
58.00 14.27
59.00 14.93
60.00 15.61
61.00 16.33
62.00 17.09
63.00 17.88
64.00 18.70
65.00 19.58
66.00 20.53
67.00 21.54
68.00 22.62
69.00 23.79
70.00 25.08
71.00 26.46
72.00 27.99
73.00 29.70
74.00 31.61
75.00 33.82
76.00 36.46
77.00 39.75
78.00 44.33
79.00 52.38
80.00 56.81
81.00 47.32
82.00 42.92
83.00 40.10
84.00 38.01
85.00 36.31
86.00 34.87
87.00 33.62
88.00 32.52
89.00 31.55
90.00 30.68
91.00 29.93
92.00 29.28
93.00 28.73
94.00 28.27
95.00 27.91
96.00 27.64
97.00 27.46
98.00 27.36
99.00 27.35
100.00 27.41
101.00 27.54
102.00 27.74
103.00 28.00
104.00 28.30
105.00 28.63
106.00 28.97
107.00 29.31
108.00 29.62
109.00 29.89
110.00 30.11
111.00 30.29
112.00 30.45
113.00 30.59
114.00 30.76
115.00 30.98
116.00 31.27
117.00 31.67
118.00 32.19
119.00 32.89
120.00 33.80
121.00 34.96
122.00 36.47
123.00 38.44
124.00 41.03
125.00 44.34
126.00 47.06
127.00 45.50
128.00 42.21
129.00 39.54
130.00 37.57
131.00 36.12
132.00 35.08
133.00 34.36
134.00 33.92
135.00 33.72
136.00 33.77
137.00 34.05
138.00 34.58
139.00 35.38
140.00 36.49
141.00 37.98
142.00 39.94
143.00 42.48
144.00 45.47
145.00 47.31
146.00 45.81
147.00 43.14
148.00 40.95
149.00 39.33
150.00 38.20
151.00 37.45
152.00 37.02
153.00 36.86
154.00 36.90
155.00 37.07
156.00 37.27
157.00 37.33
158.00 37.08
159.00 36.44
160.00 35.49
161.00 34.36
162.00 33.21
163.00 32.12
164.00 31.15
165.00 30.32
166.00 29.62
167.00 29.06
168.00 28.64
169.00 28.35
170.00 28.20
171.00 28.17
172.00 28.28
173.00 28.51
174.00 28.88
175.00 29.40
176.00 30.07
177.00 30.90
178.00 31.91
179.00 33.14
180.00 34.62
181.00 36.42
182.00 38.65
183.00 41.49
184.00 45.25
185.00 50.19
186.00 52.13
187.00 48.18
188.00 44.85
189.00 42.55
190.00 40.90
191.00 39.64
192.00 38.63
193.00 37.77
194.00 37.02
195.00 36.33
196.00 35.70
197.00 35.13
198.00 34.63
199.00 34.19
200.00 33.84
201.00 33.57
202.00 33.40
203.00 33.32
204.00 33.33
205.00 33.42
206.00 33.58
207.00 33.78
208.00 33.99
209.00 34.17
210.00 34.28
211.00 34.28
212.00 34.16
213.00 33.93
214.00 33.61
215.00 33.25
216.00 32.88
217.00 32.55
218.00 32.26
219.00 32.03
220.00 31.86
221.00 31.75
222.00 31.70
223.00 31.67
224.00 31.65
225.00 31.62
226.00 31.54
227.00 31.43
228.00 31.25
229.00 31.03
230.00 30.77
231.00 30.50
232.00 30.24
233.00 30.02
234.00 29.84
235.00 29.73
236.00 29.69
237.00 29.74
238.00 29.88
239.00 30.11
240.00 30.43
241.00 30.85
242.00 31.36
243.00 31.94
244.00 32.59
245.00 33.27
246.00 33.94
247.00 34.54
248.00 35.01
249.00 35.30
250.00 35.40
251.00 35.35
252.00 35.19
253.00 34.97
254.00 34.78
255.00 34.63
256.00 34.54
257.00 34.55
258.00 34.65
259.00 34.85
260.00 35.15
261.00 35.54
262.00 36.01
263.00 36.56
264.00 37.13
265.00 37.68
266.00 38.11
267.00 38.33
268.00 38.26
269.00 37.86
270.00 37.20
271.00 36.36
272.00 35.43
273.00 34.48
274.00 33.55
275.00 32.65
276.00 31.80
277.00 30.99
278.00 30.24
279.00 29.52
280.00 28.84
281.00 28.19
282.00 27.55
283.00 26.94
284.00 26.34
285.00 25.75
286.00 25.16
287.00 24.56
288.00 23.96
289.00 23.35
290.00 22.74
291.00 22.12
292.00 21.49
293.00 20.86
294.00 20.22
295.00 19.58
296.00 18.94
297.00 18.31
298.00 17.69
299.00 17.07
300.00 16.46
301.00 15.87
302.00 15.28
303.00 14.71
304.00 14.15
305.00 13.60
306.00 13.06
307.00 12.54
308.00 12.02
309.00 11.52
310.00 11.02
311.00 10.54
312.00 10.08
313.00 9.61
314.00 9.17
315.00 8.76
316.00 8.35
317.00 7.95
318.00 7.56
319.00 7.18
320.00 6.80
321.00 6.44
322.00 6.09
323.00 5.75
324.00 5.41
325.00 5.09
326.00 4.79
327.00 4.49
328.00 4.19
329.00 3.93
330.00 3.66
331.00 3.41
332.00 3.17
333.00 2.95
334.00 2.74
335.00 2.53
336.00 2.34
337.00 2.16
338.00 2.00
339.00 1.84
340.00 1.70
341.00 1.55
342.00 1.42
343.00 1.30
344.00 1.18
345.00 1.07
346.00 0.97
347.00 0.86
348.00 0.77
349.00 0.68
350.00 0.60
351.00 0.51
352.00 0.43
353.00 0.36
354.00 0.29
355.00 0.23
356.00 0.17
357.00 0.12
358.00 0.08
359.00 0.04
VERTICAL 360
0.00 7.02
1.00 3.07
2.00 0.83
3.00 0.00
4.00 0.55
5.00 2.65
6.00 6.90
7.00 15.55
8.00 21.26
9.00 14.85
10.00 15.00
11.00 20.47
12.00 24.02
13.00 16.59
14.00 14.56
15.00 16.46
16.00 24.07
17.00 24.14
18.00 17.48
19.00 16.40
20.00 19.10
21.00 26.55
22.00 23.64
23.00 17.90
24.00 15.95
25.00 15.95
26.00 17.18
27.00 19.03
28.00 20.64
29.00 20.89
30.00 19.48
31.00 17.37
32.00 15.77
33.00 15.44
34.00 17.01
35.00 21.83
36.00 34.96
37.00 26.13
38.00 21.50
39.00 21.57
40.00 25.58
41.00 37.40
42.00 28.74
43.00 23.42
44.00 22.08
45.00 22.56
46.00 24.11
47.00 26.38
48.00 29.39
49.00 33.39
50.00 38.42
51.00 43.02
52.00 40.25
53.00 38.22
54.00 39.50
55.00 36.74
56.00 31.68
57.00 28.69
58.00 27.74
59.00 29.09
60.00 31.02
61.00 27.49
62.00 23.27
63.00 20.72
64.00 19.13
65.00 17.98
66.00 17.16
67.00 16.76
68.00 16.83
69.00 17.27
70.00 17.79
71.00 18.24
72.00 18.65
73.00 19.19
74.00 19.93
75.00 20.76
76.00 21.70
77.00 22.93
78.00 24.48
79.00 26.05
80.00 27.53
81.00 29.78
82.00 36.39
83.00 41.00
84.00 30.00
85.00 26.48
86.00 25.33
87.00 25.31
88.00 26.76
89.00 31.40
90.00 39.03
91.00 32.36
92.00 29.28
93.00 28.68
94.00 28.76
95.00 30.27
96.00 34.28
97.00 38.50
98.00 36.40
99.00 33.48
100.00 31.81
101.00 31.53
102.00 32.59
103.00 34.08
104.00 34.25
105.00 33.24
106.00 32.64
107.00 33.17
108.00 34.89
109.00 37.54
110.00 40.41
111.00 41.53
112.00 39.95
113.00 38.05
114.00 37.07
115.00 36.95
116.00 37.37
117.00 38.21
118.00 39.59
119.00 41.47
120.00 43.12
121.00 43.01
122.00 40.37
123.00 37.59
124.00 36.66
125.00 38.09
126.00 41.51
127.00 44.84
128.00 45.68
129.00 44.61
130.00 43.60
131.00 41.57
132.00 39.52
133.00 39.83
134.00 42.13
135.00 43.05
136.00 39.79
137.00 36.12
138.00 35.09
139.00 36.70
140.00 38.37
141.00 39.40
142.00 45.59
143.00 58.73
144.00 48.29
145.00 56.75
146.00 45.92
147.00 43.63
148.00 43.33
149.00 39.97
150.00 40.29
151.00 48.35
152.00 55.16
153.00 44.78
154.00 41.53
155.00 39.29
156.00 39.09
157.00 39.67
158.00 36.87
159.00 33.73
160.00 33.34
161.00 36.17
162.00 41.89
163.00 51.62
164.00 49.48
165.00 39.15
166.00 38.00
167.00 44.24
168.00 53.45
169.00 41.23
170.00 40.03
171.00 43.60
172.00 55.43
173.00 40.39
174.00 37.08
175.00 37.19
176.00 39.31
177.00 38.65
178.00 37.05
179.00 36.87
180.00 37.07
181.00 36.93
182.00 37.59
183.00 40.22
184.00 40.94
185.00 37.15
186.00 34.96
187.00 34.77
188.00 35.38
189.00 36.52
190.00 38.26
191.00 39.61
192.00 39.25
193.00 39.70
194.00 41.56
195.00 42.11
196.00 39.84
197.00 36.81
198.00 35.74
199.00 36.57
200.00 35.81
201.00 33.83
202.00 33.90
203.00 36.32
204.00 39.73
205.00 40.93
206.00 39.17
207.00 37.80
208.00 39.53
209.00 49.62
210.00 48.89
211.00 43.07
212.00 43.38
213.00 39.82
214.00 37.08
215.00 37.54
216.00 39.58
217.00 39.96
218.00 37.80
219.00 35.97
220.00 35.19
221.00 34.22
222.00 33.84
223.00 35.97
224.00 41.39
225.00 49.72
226.00 52.55
227.00 39.39
228.00 36.33
229.00 37.52
230.00 37.83
231.00 34.92
232.00 33.80
233.00 34.70
234.00 36.69
235.00 39.47
236.00 42.38
237.00 39.33
238.00 35.37
239.00 34.49
240.00 36.38
241.00 40.13
242.00 42.83
243.00 41.23
244.00 38.63
245.00 37.93
246.00 38.57
247.00 38.82
248.00 38.40
249.00 38.43
250.00 38.00
251.00 34.87
252.00 32.18
253.00 31.93
254.00 34.27
255.00 38.28
256.00 39.97
257.00 39.41
258.00 39.61
259.00 40.41
260.00 40.00
261.00 38.35
262.00 37.64
263.00 39.12
264.00 43.29
265.00 44.23
266.00 41.20
267.00 40.33
268.00 39.96
269.00 40.83
270.00 44.00
271.00 39.02
272.00 33.96
273.00 32.17
274.00 32.12
275.00 32.90
276.00 34.84
277.00 38.71
278.00 40.91
279.00 38.97
280.00 36.78
281.00 34.12
282.00 32.50
283.00 32.26
284.00 31.95
285.00 30.64
286.00 29.18
287.00 28.30
288.00 28.31
289.00 29.09
290.00 30.03
291.00 30.87
292.00 32.12
293.00 34.12
294.00 34.13
295.00 29.44
296.00 24.75
297.00 21.21
298.00 18.45
299.00 16.23
300.00 14.53
301.00 13.40
302.00 12.86
303.00 12.87
304.00 13.41
305.00 14.52
306.00 16.41
307.00 19.58
308.00 25.55
309.00 36.14
310.00 27.54
311.00 23.24
312.00 22.53
313.00 23.94
314.00 26.41
315.00 27.67
316.00 26.99
317.00 26.03
318.00 25.69
319.00 26.89
320.00 29.96
321.00 27.67
322.00 22.51
323.00 20.15
324.00 20.33
325.00 23.28
326.00 29.54
327.00 25.84
328.00 20.10
329.00 17.92
330.00 18.21
331.00 20.99
332.00 27.55
333.00 34.63
334.00 28.96
335.00 28.28
336.00 30.17
337.00 25.56
338.00 20.68
339.00 18.86
340.00 19.95
341.00 25.52
342.00 39.38
343.00 24.89
344.00 21.77
345.00 23.04
346.00 30.30
347.00 37.11
348.00 25.70
349.00 24.06
350.00 26.18
351.00 28.08
352.00 24.79
353.00 22.47
354.00 22.45
355.00 23.41
356.00 23.93
357.00 27.80
358.00 27.02
359.00 13.59
