NAME ATR4518R7_2535_X_CO_P45_08T_yL
FREQUENCY 2535
GAIN 15.52 dBd
TILT	ELECTRICAL
COMMENT DATE 05.08.2013 +45 degrees polarized system Lever position 08T deg
HORIZONTAL 360
0.00 0.13
1.00 0.07
2.00 0.04
3.00 0.01
4.00 0.00
5.00 0.01
6.00 0.03
7.00 0.06
8.00 0.11
9.00 0.18
10.00 0.25
11.00 0.33
12.00 0.44
13.00 0.54
14.00 0.66
15.00 0.78
16.00 0.91
17.00 1.04
18.00 1.19
19.00 1.33
20.00 1.47
21.00 1.62
22.00 1.76
23.00 1.91
24.00 2.08
25.00 2.23
26.00 2.39
27.00 2.56
28.00 2.74
29.00 2.91
30.00 3.10
31.00 3.29
32.00 3.49
33.00 3.70
34.00 3.91
35.00 4.14
36.00 4.37
37.00 4.61
38.00 4.85
39.00 5.11
40.00 5.36
41.00 5.62
42.00 5.88
43.00 6.15
44.00 6.42
45.00 6.68
46.00 6.95
47.00 7.23
48.00 7.49
49.00 7.75
50.00 8.02
51.00 8.28
52.00 8.52
53.00 8.77
54.00 9.02
55.00 9.26
56.00 9.49
57.00 9.72
58.00 9.95
59.00 10.18
60.00 10.40
61.00 10.63
62.00 10.85
63.00 11.07
64.00 11.31
65.00 11.55
66.00 11.80
67.00 12.05
68.00 12.30
69.00 12.57
70.00 12.82
71.00 13.09
72.00 13.36
73.00 13.63
74.00 13.90
75.00 14.17
76.00 14.44
77.00 14.71
78.00 14.97
79.00 15.23
80.00 15.48
81.00 15.72
82.00 15.97
83.00 16.21
84.00 16.45
85.00 16.68
86.00 16.93
87.00 17.16
88.00 17.41
89.00 17.66
90.00 17.92
91.00 18.20
92.00 18.49
93.00 18.79
94.00 19.10
95.00 19.44
96.00 19.78
97.00 20.14
98.00 20.51
99.00 20.88
100.00 21.26
101.00 21.63
102.00 21.98
103.00 22.32
104.00 22.65
105.00 22.96
106.00 23.25
107.00 23.52
108.00 23.79
109.00 24.05
110.00 24.30
111.00 24.58
112.00 24.88
113.00 25.20
114.00 25.56
115.00 25.94
116.00 26.39
117.00 26.88
118.00 27.42
119.00 28.00
120.00 28.63
121.00 29.28
122.00 29.94
123.00 30.56
124.00 31.12
125.00 31.57
126.00 31.86
127.00 31.97
128.00 31.92
129.00 31.73
130.00 31.46
131.00 31.15
132.00 30.84
133.00 30.56
134.00 30.33
135.00 30.16
136.00 30.06
137.00 30.05
138.00 30.11
139.00 30.26
140.00 30.49
141.00 30.81
142.00 31.22
143.00 31.71
144.00 32.29
145.00 32.95
146.00 33.68
147.00 34.47
148.00 35.29
149.00 36.09
150.00 36.83
151.00 37.46
152.00 37.93
153.00 38.22
154.00 38.36
155.00 38.40
156.00 38.40
157.00 38.42
158.00 38.50
159.00 38.71
160.00 39.05
161.00 39.57
162.00 40.32
163.00 41.33
164.00 42.69
165.00 44.53
166.00 46.99
167.00 50.07
168.00 52.04
169.00 49.86
170.00 46.49
171.00 43.75
172.00 41.65
173.00 40.04
174.00 38.80
175.00 37.87
176.00 37.19
177.00 36.75
178.00 36.52
179.00 36.51
180.00 36.73
181.00 37.17
182.00 37.88
183.00 38.92
184.00 40.35
185.00 42.34
186.00 45.20
187.00 49.74
188.00 58.30
189.00 54.95
190.00 48.30
191.00 44.70
192.00 42.42
193.00 40.92
194.00 39.95
195.00 39.40
196.00 39.21
197.00 39.35
198.00 39.80
199.00 40.50
200.00 41.31
201.00 41.90
202.00 41.76
203.00 40.68
204.00 39.06
205.00 37.34
206.00 35.76
207.00 34.39
208.00 33.26
209.00 32.34
210.00 31.62
211.00 31.09
212.00 30.74
213.00 30.57
214.00 30.57
215.00 30.76
216.00 31.14
217.00 31.72
218.00 32.54
219.00 33.63
220.00 35.07
221.00 36.93
222.00 39.35
223.00 42.31
224.00 44.66
225.00 43.66
226.00 40.82
227.00 38.30
228.00 36.38
229.00 34.92
230.00 33.84
231.00 33.05
232.00 32.50
233.00 32.16
234.00 31.99
235.00 31.98
236.00 32.10
237.00 32.34
238.00 32.65
239.00 33.01
240.00 33.35
241.00 33.59
242.00 33.69
243.00 33.59
244.00 33.28
245.00 32.82
246.00 32.26
247.00 31.65
248.00 31.03
249.00 30.45
250.00 29.92
251.00 29.43
252.00 28.98
253.00 28.56
254.00 28.17
255.00 27.79
256.00 27.40
257.00 27.00
258.00 26.58
259.00 26.13
260.00 25.66
261.00 25.16
262.00 24.66
263.00 24.14
264.00 23.63
265.00 23.13
266.00 22.64
267.00 22.19
268.00 21.76
269.00 21.37
270.00 21.01
271.00 20.69
272.00 20.40
273.00 20.15
274.00 19.92
275.00 19.71
276.00 19.54
277.00 19.37
278.00 19.22
279.00 19.06
280.00 18.92
281.00 18.76
282.00 18.61
283.00 18.43
284.00 18.25
285.00 18.04
286.00 17.83
287.00 17.61
288.00 17.37
289.00 17.12
290.00 16.88
291.00 16.62
292.00 16.35
293.00 16.09
294.00 15.84
295.00 15.58
296.00 15.32
297.00 15.05
298.00 14.80
299.00 14.53
300.00 14.26
301.00 13.99
302.00 13.73
303.00 13.46
304.00 13.19
305.00 12.91
306.00 12.63
307.00 12.33
308.00 12.02
309.00 11.71
310.00 11.38
311.00 11.06
312.00 10.72
313.00 10.37
314.00 10.02
315.00 9.66
316.00 9.29
317.00 8.93
318.00 8.56
319.00 8.19
320.00 7.83
321.00 7.46
322.00 7.10
323.00 6.75
324.00 6.40
325.00 6.06
326.00 5.74
327.00 5.43
328.00 5.12
329.00 4.83
330.00 4.55
331.00 4.29
332.00 4.03
333.00 3.79
334.00 3.56
335.00 3.34
336.00 3.14
337.00 2.94
338.00 2.75
339.00 2.58
340.00 2.41
341.00 2.25
342.00 2.10
343.00 1.95
344.00 1.81
345.00 1.67
346.00 1.55
347.00 1.42
348.00 1.29
349.00 1.18
350.00 1.06
351.00 0.95
352.00 0.84
353.00 0.73
354.00 0.63
355.00 0.52
356.00 0.43
357.00 0.34
358.00 0.26
359.00 0.19
VERTICAL 360
0.00 21.32
1.00 21.64
2.00 18.02
3.00 12.97
4.00 8.29
5.00 4.59
6.00 1.98
7.00 0.45
8.00 0.00
9.00 0.75
10.00 2.97
11.00 7.46
12.00 17.89
13.00 19.02
14.00 12.01
15.00 11.05
16.00 13.19
17.00 18.74
18.00 20.95
19.00 16.30
20.00 15.14
21.00 17.15
22.00 23.77
23.00 34.39
24.00 22.44
25.00 20.67
26.00 23.28
27.00 33.88
28.00 27.75
29.00 21.60
30.00 19.75
31.00 20.50
32.00 24.66
33.00 28.58
34.00 20.39
35.00 16.32
36.00 14.79
37.00 14.87
38.00 16.06
39.00 18.10
40.00 21.27
41.00 27.04
42.00 40.85
43.00 31.01
44.00 27.72
45.00 27.63
46.00 27.81
47.00 26.72
48.00 25.95
49.00 26.89
50.00 30.13
51.00 36.55
52.00 46.66
53.00 45.63
54.00 44.29
55.00 39.75
56.00 32.34
57.00 27.82
58.00 25.70
59.00 25.22
60.00 25.61
61.00 26.28
62.00 27.14
63.00 28.46
64.00 30.57
65.00 33.26
66.00 35.53
67.00 37.40
68.00 39.35
69.00 40.01
70.00 38.01
71.00 35.71
72.00 35.19
73.00 36.07
74.00 36.51
75.00 35.91
76.00 34.85
77.00 34.34
78.00 35.12
79.00 35.68
80.00 35.36
81.00 36.48
82.00 39.24
83.00 41.79
84.00 44.60
85.00 44.92
86.00 44.09
87.00 43.88
88.00 40.15
89.00 37.07
90.00 35.05
91.00 34.19
92.00 35.40
93.00 38.78
94.00 41.33
95.00 43.04
96.00 49.11
97.00 55.29
98.00 55.94
99.00 50.89
100.00 44.21
101.00 41.79
102.00 40.59
103.00 39.46
104.00 38.97
105.00 38.71
106.00 37.20
107.00 35.44
108.00 34.74
109.00 34.92
110.00 35.28
111.00 35.11
112.00 33.81
113.00 32.33
114.00 31.72
115.00 31.93
116.00 32.25
117.00 32.07
118.00 31.58
119.00 31.24
120.00 31.17
121.00 31.64
122.00 33.46
123.00 37.76
124.00 47.00
125.00 56.65
126.00 44.46
127.00 39.14
128.00 36.29
129.00 34.78
130.00 33.61
131.00 32.89
132.00 33.16
133.00 34.19
134.00 35.20
135.00 36.46
136.00 38.61
137.00 40.43
138.00 39.66
139.00 37.55
140.00 36.18
141.00 36.34
142.00 37.86
143.00 40.05
144.00 41.97
145.00 42.83
146.00 42.72
147.00 40.55
148.00 37.97
149.00 37.05
150.00 37.52
151.00 37.99
152.00 37.56
153.00 36.50
154.00 35.57
155.00 35.07
156.00 34.73
157.00 35.03
158.00 37.02
159.00 40.99
160.00 43.56
161.00 44.30
162.00 46.52
163.00 42.39
164.00 38.16
165.00 36.19
166.00 35.42
167.00 35.66
168.00 37.91
169.00 44.85
170.00 53.41
171.00 43.03
172.00 41.26
173.00 41.58
174.00 44.24
175.00 48.01
176.00 43.22
177.00 38.97
178.00 37.01
179.00 36.45
180.00 36.70
181.00 37.24
182.00 37.02
183.00 35.80
184.00 35.26
185.00 36.30
186.00 38.74
187.00 41.74
188.00 44.15
189.00 45.02
190.00 43.03
191.00 38.85
192.00 36.33
193.00 36.64
194.00 40.52
195.00 53.21
196.00 48.47
197.00 42.37
198.00 40.14
199.00 39.91
200.00 41.92
201.00 47.36
202.00 57.97
203.00 45.61
204.00 40.33
205.00 37.84
206.00 37.37
207.00 38.78
208.00 42.08
209.00 48.44
210.00 49.01
211.00 40.22
212.00 36.48
213.00 35.76
214.00 37.67
215.00 42.59
216.00 52.08
217.00 55.01
218.00 45.27
219.00 39.55
220.00 36.06
221.00 34.02
222.00 33.03
223.00 32.65
224.00 32.57
225.00 32.94
226.00 34.08
227.00 35.95
228.00 38.00
229.00 39.13
230.00 38.21
231.00 36.30
232.00 34.80
233.00 33.98
234.00 33.79
235.00 34.12
236.00 34.94
237.00 36.28
238.00 38.46
239.00 41.40
240.00 42.46
241.00 41.42
242.00 41.42
243.00 42.64
244.00 44.43
245.00 46.87
246.00 49.06
247.00 44.47
248.00 39.56
249.00 37.32
250.00 37.40
251.00 39.35
252.00 42.53
253.00 45.85
254.00 46.30
255.00 44.64
256.00 42.54
257.00 40.31
258.00 39.56
259.00 40.94
260.00 43.59
261.00 43.34
262.00 40.30
263.00 37.76
264.00 36.32
265.00 35.99
266.00 36.78
267.00 38.68
268.00 41.52
269.00 44.80
270.00 46.54
271.00 45.41
272.00 42.31
273.00 38.72
274.00 36.43
275.00 35.80
276.00 36.52
277.00 37.88
278.00 38.86
279.00 38.88
280.00 38.07
281.00 36.50
282.00 34.67
283.00 33.16
284.00 32.17
285.00 31.61
286.00 31.52
287.00 32.25
288.00 34.36
289.00 37.93
290.00 40.59
291.00 40.60
292.00 39.25
293.00 36.16
294.00 33.03
295.00 30.42
296.00 28.08
297.00 25.72
298.00 23.18
299.00 20.66
300.00 18.40
301.00 16.56
302.00 15.11
303.00 13.92
304.00 12.92
305.00 12.11
306.00 11.56
307.00 11.37
308.00 11.68
309.00 12.59
310.00 14.28
311.00 17.05
312.00 21.34
313.00 24.73
314.00 20.48
315.00 17.40
316.00 16.37
317.00 17.18
318.00 20.47
319.00 30.70
320.00 27.09
321.00 19.74
322.00 17.52
323.00 17.86
324.00 20.73
325.00 28.49
326.00 31.75
327.00 23.03
328.00 20.56
329.00 21.06
330.00 25.14
331.00 34.01
332.00 22.63
333.00 17.78
334.00 16.23
335.00 17.44
336.00 23.14
337.00 32.06
338.00 19.55
339.00 16.37
340.00 16.51
341.00 19.67
342.00 29.08
343.00 29.01
344.00 22.21
345.00 21.65
346.00 25.19
347.00 29.27
348.00 23.27
349.00 20.29
350.00 20.21
351.00 22.77
352.00 28.73
353.00 32.34
354.00 28.96
355.00 28.76
356.00 26.88
357.00 22.80
358.00 20.41
359.00 20.07
