NAME ATR4518R7_1880_X_CO_M45_09T_yL
FREQUENCY 1880
GAIN 14.76 dBd
TILT	ELECTRICAL
COMMENT DATE 05.08.2013 -45 degrees polarized system Lever position 09T deg
HORIZONTAL 360
0.00 0.03
1.00 0.01
2.00 0.01
3.00 0.00
4.00 0.01
5.00 0.02
6.00 0.04
7.00 0.06
8.00 0.09
9.00 0.12
10.00 0.16
11.00 0.21
12.00 0.26
13.00 0.32
14.00 0.38
15.00 0.45
16.00 0.52
17.00 0.60
18.00 0.69
19.00 0.77
20.00 0.86
21.00 0.96
22.00 1.06
23.00 1.17
24.00 1.28
25.00 1.40
26.00 1.52
27.00 1.65
28.00 1.79
29.00 1.93
30.00 2.08
31.00 2.23
32.00 2.39
33.00 2.56
34.00 2.74
35.00 2.92
36.00 3.11
37.00 3.30
38.00 3.51
39.00 3.72
40.00 3.94
41.00 4.17
42.00 4.40
43.00 4.65
44.00 4.90
45.00 5.15
46.00 5.42
47.00 5.69
48.00 5.97
49.00 6.26
50.00 6.55
51.00 6.85
52.00 7.16
53.00 7.47
54.00 7.79
55.00 8.12
56.00 8.45
57.00 8.79
58.00 9.13
59.00 9.48
60.00 9.83
61.00 10.18
62.00 10.54
63.00 10.90
64.00 11.27
65.00 11.64
66.00 12.01
67.00 12.38
68.00 12.75
69.00 13.12
70.00 13.48
71.00 13.85
72.00 14.21
73.00 14.57
74.00 14.92
75.00 15.26
76.00 15.60
77.00 15.94
78.00 16.26
79.00 16.57
80.00 16.88
81.00 17.18
82.00 17.47
83.00 17.75
84.00 18.03
85.00 18.31
86.00 18.58
87.00 18.85
88.00 19.13
89.00 19.41
90.00 19.69
91.00 19.98
92.00 20.28
93.00 20.59
94.00 20.91
95.00 21.24
96.00 21.57
97.00 21.92
98.00 22.27
99.00 22.62
100.00 22.97
101.00 23.32
102.00 23.64
103.00 23.95
104.00 24.23
105.00 24.48
106.00 24.70
107.00 24.88
108.00 25.02
109.00 25.14
110.00 25.23
111.00 25.31
112.00 25.38
113.00 25.44
114.00 25.50
115.00 25.58
116.00 25.67
117.00 25.78
118.00 25.90
119.00 26.04
120.00 26.20
121.00 26.38
122.00 26.57
123.00 26.76
124.00 26.97
125.00 27.18
126.00 27.39
127.00 27.60
128.00 27.81
129.00 28.03
130.00 28.25
131.00 28.49
132.00 28.75
133.00 29.04
134.00 29.37
135.00 29.74
136.00 30.16
137.00 30.65
138.00 31.20
139.00 31.82
140.00 32.49
141.00 33.21
142.00 33.93
143.00 34.61
144.00 35.14
145.00 35.43
146.00 35.43
147.00 35.14
148.00 34.63
149.00 34.00
150.00 33.34
151.00 32.69
152.00 32.10
153.00 31.57
154.00 31.12
155.00 30.74
156.00 30.43
157.00 30.20
158.00 30.02
159.00 29.90
160.00 29.82
161.00 29.79
162.00 29.80
163.00 29.83
164.00 29.90
165.00 29.98
166.00 30.08
167.00 30.19
168.00 30.31
169.00 30.44
170.00 30.56
171.00 30.67
172.00 30.75
173.00 30.80
174.00 30.79
175.00 30.71
176.00 30.56
177.00 30.33
178.00 30.03
179.00 29.67
180.00 29.29
181.00 28.88
182.00 28.49
183.00 28.12
184.00 27.80
185.00 27.53
186.00 27.34
187.00 27.22
188.00 27.20
189.00 27.27
190.00 27.45
191.00 27.76
192.00 28.20
193.00 28.80
194.00 29.59
195.00 30.60
196.00 31.87
197.00 33.45
198.00 35.34
199.00 37.32
200.00 38.44
201.00 37.59
202.00 35.51
203.00 33.34
204.00 31.46
205.00 29.91
206.00 28.63
207.00 27.59
208.00 26.75
209.00 26.08
210.00 25.58
211.00 25.21
212.00 24.98
213.00 24.87
214.00 24.90
215.00 25.06
216.00 25.35
217.00 25.78
218.00 26.38
219.00 27.17
220.00 28.18
221.00 29.46
222.00 31.13
223.00 33.34
224.00 36.44
225.00 41.21
226.00 47.10
227.00 42.04
228.00 36.91
229.00 33.61
230.00 31.26
231.00 29.49
232.00 28.10
233.00 26.99
234.00 26.10
235.00 25.38
236.00 24.81
237.00 24.36
238.00 24.02
239.00 23.77
240.00 23.61
241.00 23.53
242.00 23.52
243.00 23.57
244.00 23.67
245.00 23.80
246.00 23.97
247.00 24.13
248.00 24.28
249.00 24.40
250.00 24.45
251.00 24.42
252.00 24.31
253.00 24.11
254.00 23.82
255.00 23.47
256.00 23.08
257.00 22.66
258.00 22.23
259.00 21.82
260.00 21.42
261.00 21.04
262.00 20.69
263.00 20.38
264.00 20.09
265.00 19.84
266.00 19.61
267.00 19.39
268.00 19.20
269.00 19.01
270.00 18.82
271.00 18.63
272.00 18.42
273.00 18.19
274.00 17.94
275.00 17.66
276.00 17.35
277.00 17.01
278.00 16.65
279.00 16.27
280.00 15.86
281.00 15.45
282.00 15.03
283.00 14.62
284.00 14.20
285.00 13.79
286.00 13.39
287.00 13.01
288.00 12.63
289.00 12.27
290.00 11.93
291.00 11.60
292.00 11.28
293.00 10.97
294.00 10.68
295.00 10.39
296.00 10.12
297.00 9.85
298.00 9.59
299.00 9.34
300.00 9.08
301.00 8.84
302.00 8.59
303.00 8.35
304.00 8.11
305.00 7.88
306.00 7.65
307.00 7.42
308.00 7.19
309.00 6.97
310.00 6.75
311.00 6.54
312.00 6.33
313.00 6.13
314.00 5.93
315.00 5.74
316.00 5.56
317.00 5.37
318.00 5.19
319.00 5.02
320.00 4.84
321.00 4.67
322.00 4.50
323.00 4.33
324.00 4.16
325.00 3.98
326.00 3.81
327.00 3.64
328.00 3.46
329.00 3.29
330.00 3.11
331.00 2.94
332.00 2.77
333.00 2.60
334.00 2.43
335.00 2.26
336.00 2.10
337.00 1.95
338.00 1.80
339.00 1.66
340.00 1.52
341.00 1.39
342.00 1.27
343.00 1.15
344.00 1.04
345.00 0.93
346.00 0.83
347.00 0.74
348.00 0.65
349.00 0.57
350.00 0.49
351.00 0.42
352.00 0.36
353.00 0.30
354.00 0.24
355.00 0.19
356.00 0.15
357.00 0.11
358.00 0.08
359.00 0.05
VERTICAL 360
0.00 28.33
1.00 30.13
2.00 19.48
3.00 12.70
4.00 8.11
5.00 4.83
6.00 2.48
7.00 0.94
8.00 0.13
9.00 0.06
10.00 0.74
11.00 2.27
12.00 4.85
13.00 9.01
14.00 16.43
15.00 21.42
16.00 14.32
17.00 11.75
18.00 11.51
19.00 13.01
20.00 16.34
21.00 21.77
22.00 23.27
23.00 19.45
24.00 17.56
25.00 17.53
26.00 19.21
27.00 23.12
28.00 30.14
29.00 26.15
30.00 20.99
31.00 18.60
32.00 17.99
33.00 18.93
34.00 21.60
35.00 26.79
36.00 34.79
37.00 29.93
38.00 25.53
39.00 23.08
40.00 21.76
41.00 21.49
42.00 22.14
43.00 22.95
44.00 22.50
45.00 20.90
46.00 19.21
47.00 17.70
48.00 16.38
49.00 15.38
50.00 14.86
51.00 14.92
52.00 15.51
53.00 16.48
54.00 17.66
55.00 19.06
56.00 20.96
57.00 23.83
58.00 28.40
59.00 36.13
60.00 41.68
61.00 36.78
62.00 35.38
63.00 35.62
64.00 36.50
65.00 38.18
66.00 42.27
67.00 60.68
68.00 43.22
69.00 37.35
70.00 34.92
71.00 33.93
72.00 33.60
73.00 33.50
74.00 33.47
75.00 33.56
76.00 33.91
77.00 34.46
78.00 35.11
79.00 36.06
80.00 37.45
81.00 38.66
82.00 38.91
83.00 38.36
84.00 37.69
85.00 37.88
86.00 39.67
87.00 42.10
88.00 41.94
89.00 41.87
90.00 44.99
91.00 46.68
92.00 41.43
93.00 38.74
94.00 38.01
95.00 37.92
96.00 37.35
97.00 36.15
98.00 35.09
99.00 34.76
100.00 35.22
101.00 36.18
102.00 37.13
103.00 37.87
104.00 38.68
105.00 39.97
106.00 41.98
107.00 44.56
108.00 47.40
109.00 50.59
110.00 54.25
111.00 57.17
112.00 58.18
113.00 56.72
114.00 53.57
115.00 49.39
116.00 45.71
117.00 43.37
118.00 42.08
119.00 41.24
120.00 40.78
121.00 41.19
122.00 42.60
123.00 44.12
124.00 43.75
125.00 41.38
126.00 38.98
127.00 37.87
128.00 38.59
129.00 41.66
130.00 48.17
131.00 58.50
132.00 49.53
133.00 43.03
134.00 39.39
135.00 38.15
136.00 39.05
137.00 41.32
138.00 41.33
139.00 38.48
140.00 36.27
141.00 35.37
142.00 35.77
143.00 37.34
144.00 39.48
145.00 40.72
146.00 39.94
147.00 38.37
148.00 37.61
149.00 38.21
150.00 39.24
151.00 38.21
152.00 36.12
153.00 34.94
154.00 34.73
155.00 34.98
156.00 35.31
157.00 35.81
158.00 36.60
159.00 36.99
160.00 36.20
161.00 34.99
162.00 34.27
163.00 34.49
164.00 35.92
165.00 39.16
166.00 46.35
167.00 53.63
168.00 40.03
169.00 34.30
170.00 30.76
171.00 28.70
172.00 27.82
173.00 27.93
174.00 28.80
175.00 30.27
176.00 32.42
177.00 35.46
178.00 38.19
179.00 37.87
180.00 37.30
181.00 39.01
182.00 44.35
183.00 61.92
184.00 52.41
185.00 50.23
186.00 51.06
187.00 47.94
188.00 42.71
189.00 39.17
190.00 38.04
191.00 39.76
192.00 44.45
193.00 41.98
194.00 38.00
195.00 37.34
196.00 39.53
197.00 43.95
198.00 43.34
199.00 38.29
200.00 34.22
201.00 31.58
202.00 30.61
203.00 31.56
204.00 34.59
205.00 36.40
206.00 32.94
207.00 30.36
208.00 29.44
209.00 29.52
210.00 30.00
211.00 30.74
212.00 32.17
213.00 34.99
214.00 40.24
215.00 50.41
216.00 49.61
217.00 46.89
218.00 48.51
219.00 50.98
220.00 49.33
221.00 46.47
222.00 43.90
223.00 41.29
224.00 38.58
225.00 36.01
226.00 33.91
227.00 32.55
228.00 32.10
229.00 32.72
230.00 34.58
231.00 37.88
232.00 42.11
233.00 42.62
234.00 40.28
235.00 39.24
236.00 39.87
237.00 42.28
238.00 47.34
239.00 61.19
240.00 52.84
241.00 47.23
242.00 44.92
243.00 43.22
244.00 41.26
245.00 39.46
246.00 38.37
247.00 38.22
248.00 39.11
249.00 41.02
250.00 43.79
251.00 46.58
252.00 47.16
253.00 44.84
254.00 41.76
255.00 39.05
256.00 36.98
257.00 35.59
258.00 34.85
259.00 34.60
260.00 34.48
261.00 34.14
262.00 33.55
263.00 32.92
264.00 32.50
265.00 32.33
266.00 32.26
267.00 31.96
268.00 31.31
269.00 30.54
270.00 29.91
271.00 29.42
272.00 28.94
273.00 28.35
274.00 27.63
275.00 26.86
276.00 26.13
277.00 25.51
278.00 25.02
279.00 24.69
280.00 24.54
281.00 24.58
282.00 24.80
283.00 25.16
284.00 25.58
285.00 26.06
286.00 26.66
287.00 27.58
288.00 29.09
289.00 31.61
290.00 35.96
291.00 44.26
292.00 41.23
293.00 34.70
294.00 30.96
295.00 28.26
296.00 26.06
297.00 24.20
298.00 22.74
299.00 21.81
300.00 21.50
301.00 21.87
302.00 22.98
303.00 24.89
304.00 27.83
305.00 32.99
306.00 42.61
307.00 31.47
308.00 25.57
309.00 22.37
310.00 20.70
311.00 20.06
312.00 20.08
313.00 20.48
314.00 21.30
315.00 23.00
316.00 26.60
317.00 32.30
318.00 27.48
319.00 22.53
320.00 20.09
321.00 19.25
322.00 19.68
323.00 21.39
324.00 24.77
325.00 29.51
326.00 27.08
327.00 22.55
328.00 19.90
329.00 18.53
330.00 18.07
331.00 18.44
332.00 19.81
333.00 22.60
334.00 28.02
335.00 44.22
336.00 33.35
337.00 28.64
338.00 27.70
339.00 28.09
340.00 27.77
341.00 26.35
342.00 25.63
343.00 26.88
344.00 29.66
345.00 26.24
346.00 21.22
347.00 18.25
348.00 16.83
349.00 16.59
350.00 17.49
351.00 19.79
352.00 24.30
353.00 29.15
354.00 24.57
355.00 21.49
356.00 20.91
357.00 22.08
358.00 24.04
359.00 25.59
