NAME ATR4518R7_2140_X_CO_M45_04T_yyR
FREQUENCY 2140
GAIN 15.76 dBd
TILT	ELECTRICAL
COMMENT DATE 05.08.2013 -45 degrees polarized system Lever position 04T deg
HORIZONTAL 360
0.00 0.01
1.00 0.01
2.00 0.00
3.00 0.00
4.00 0.00
5.00 0.00
6.00 0.01
7.00 0.03
8.00 0.05
9.00 0.07
10.00 0.10
11.00 0.13
12.00 0.17
13.00 0.22
14.00 0.27
15.00 0.34
16.00 0.41
17.00 0.50
18.00 0.59
19.00 0.70
20.00 0.82
21.00 0.96
22.00 1.11
23.00 1.27
24.00 1.45
25.00 1.65
26.00 1.86
27.00 2.09
28.00 2.33
29.00 2.60
30.00 2.88
31.00 3.18
32.00 3.50
33.00 3.83
34.00 4.19
35.00 4.56
36.00 4.95
37.00 5.36
38.00 5.79
39.00 6.23
40.00 6.69
41.00 7.17
42.00 7.66
43.00 8.17
44.00 8.69
45.00 9.23
46.00 9.78
47.00 10.34
48.00 10.91
49.00 11.48
50.00 12.06
51.00 12.65
52.00 13.23
53.00 13.81
54.00 14.39
55.00 14.95
56.00 15.51
57.00 16.05
58.00 16.57
59.00 17.07
60.00 17.54
61.00 17.99
62.00 18.42
63.00 18.83
64.00 19.21
65.00 19.57
66.00 19.92
67.00 20.25
68.00 20.58
69.00 20.89
70.00 21.21
71.00 21.54
72.00 21.86
73.00 22.20
74.00 22.54
75.00 22.90
76.00 23.28
77.00 23.66
78.00 24.06
79.00 24.48
80.00 24.90
81.00 25.33
82.00 25.77
83.00 26.20
84.00 26.62
85.00 27.02
86.00 27.40
87.00 27.75
88.00 28.06
89.00 28.32
90.00 28.54
91.00 28.71
92.00 28.84
93.00 28.93
94.00 28.98
95.00 29.02
96.00 29.03
97.00 29.04
98.00 29.05
99.00 29.06
100.00 29.08
101.00 29.11
102.00 29.16
103.00 29.22
104.00 29.30
105.00 29.40
106.00 29.52
107.00 29.66
108.00 29.82
109.00 30.00
110.00 30.19
111.00 30.41
112.00 30.64
113.00 30.88
114.00 31.14
115.00 31.41
116.00 31.69
117.00 31.98
118.00 32.28
119.00 32.59
120.00 32.90
121.00 33.22
122.00 33.54
123.00 33.87
124.00 34.20
125.00 34.52
126.00 34.84
127.00 35.15
128.00 35.45
129.00 35.72
130.00 35.97
131.00 36.18
132.00 36.35
133.00 36.48
134.00 36.56
135.00 36.61
136.00 36.62
137.00 36.61
138.00 36.60
139.00 36.59
140.00 36.60
141.00 36.65
142.00 36.74
143.00 36.90
144.00 37.15
145.00 37.47
146.00 37.90
147.00 38.45
148.00 39.12
149.00 39.92
150.00 40.85
151.00 41.85
152.00 42.80
153.00 43.43
154.00 43.45
155.00 42.77
156.00 41.62
157.00 40.30
158.00 38.99
159.00 37.79
160.00 36.73
161.00 35.81
162.00 35.02
163.00 34.36
164.00 33.82
165.00 33.38
166.00 33.05
167.00 32.82
168.00 32.68
169.00 32.63
170.00 32.68
171.00 32.81
172.00 33.04
173.00 33.36
174.00 33.78
175.00 34.30
176.00 34.91
177.00 35.63
178.00 36.46
179.00 37.40
180.00 38.45
181.00 39.62
182.00 40.87
183.00 42.19
184.00 43.48
185.00 44.67
186.00 45.63
187.00 46.29
188.00 46.67
189.00 46.90
190.00 47.11
191.00 47.38
192.00 47.78
193.00 48.29
194.00 48.79
195.00 49.02
196.00 48.67
197.00 47.63
198.00 46.13
199.00 44.48
200.00 42.88
201.00 41.42
202.00 40.12
203.00 38.99
204.00 38.00
205.00 37.16
206.00 36.44
207.00 35.85
208.00 35.36
209.00 34.97
210.00 34.69
211.00 34.49
212.00 34.39
213.00 34.36
214.00 34.42
215.00 34.56
216.00 34.77
217.00 35.04
218.00 35.37
219.00 35.74
220.00 36.13
221.00 36.51
222.00 36.85
223.00 37.11
224.00 37.25
225.00 37.25
226.00 37.11
227.00 36.84
228.00 36.46
229.00 36.03
230.00 35.57
231.00 35.11
232.00 34.66
233.00 34.26
234.00 33.89
235.00 33.57
236.00 33.29
237.00 33.06
238.00 32.87
239.00 32.74
240.00 32.64
241.00 32.59
242.00 32.57
243.00 32.59
244.00 32.64
245.00 32.72
246.00 32.81
247.00 32.90
248.00 33.00
249.00 33.06
250.00 33.09
251.00 33.06
252.00 32.95
253.00 32.76
254.00 32.46
255.00 32.08
256.00 31.61
257.00 31.07
258.00 30.49
259.00 29.87
260.00 29.23
261.00 28.59
262.00 27.95
263.00 27.33
264.00 26.72
265.00 26.13
266.00 25.55
267.00 25.00
268.00 24.47
269.00 23.95
270.00 23.45
271.00 22.96
272.00 22.49
273.00 22.03
274.00 21.58
275.00 21.14
276.00 20.70
277.00 20.27
278.00 19.84
279.00 19.41
280.00 18.99
281.00 18.57
282.00 18.14
283.00 17.73
284.00 17.31
285.00 16.89
286.00 16.47
287.00 16.06
288.00 15.65
289.00 15.24
290.00 14.85
291.00 14.45
292.00 14.06
293.00 13.67
294.00 13.29
295.00 12.92
296.00 12.56
297.00 12.20
298.00 11.86
299.00 11.52
300.00 11.19
301.00 10.86
302.00 10.55
303.00 10.24
304.00 9.94
305.00 9.65
306.00 9.37
307.00 9.09
308.00 8.82
309.00 8.56
310.00 8.30
311.00 8.05
312.00 7.80
313.00 7.55
314.00 7.31
315.00 7.07
316.00 6.84
317.00 6.60
318.00 6.37
319.00 6.14
320.00 5.91
321.00 5.68
322.00 5.45
323.00 5.22
324.00 4.99
325.00 4.76
326.00 4.53
327.00 4.30
328.00 4.08
329.00 3.85
330.00 3.63
331.00 3.41
332.00 3.19
333.00 2.97
334.00 2.77
335.00 2.56
336.00 2.36
337.00 2.17
338.00 1.98
339.00 1.80
340.00 1.63
341.00 1.47
342.00 1.32
343.00 1.17
344.00 1.03
345.00 0.91
346.00 0.79
347.00 0.68
348.00 0.58
349.00 0.49
350.00 0.41
351.00 0.34
352.00 0.28
353.00 0.22
354.00 0.17
355.00 0.13
356.00 0.10
357.00 0.07
358.00 0.05
359.00 0.03
VERTICAL 360
0.00 7.24
1.00 4.01
2.00 1.80
3.00 0.48
4.00 0.00
5.00 0.36
6.00 1.66
7.00 4.10
8.00 8.12
9.00 14.55
10.00 18.42
11.00 14.72
12.00 13.23
13.00 14.24
14.00 17.64
15.00 22.07
16.00 20.61
17.00 18.06
18.00 18.23
19.00 21.65
20.00 32.20
21.00 27.45
22.00 20.65
23.00 18.26
24.00 17.80
25.00 18.95
26.00 22.27
27.00 28.87
28.00 27.77
29.00 22.37
30.00 20.39
31.00 20.45
32.00 21.73
33.00 23.19
34.00 23.80
35.00 23.82
36.00 24.09
37.00 24.98
38.00 26.60
39.00 28.53
40.00 29.24
41.00 28.23
42.00 27.08
43.00 26.58
44.00 26.74
45.00 27.52
46.00 29.09
47.00 31.89
48.00 36.38
49.00 38.47
50.00 34.45
51.00 31.26
52.00 29.52
53.00 28.76
54.00 28.78
55.00 29.61
56.00 31.48
57.00 34.67
58.00 38.48
59.00 39.25
60.00 37.87
61.00 37.41
62.00 37.74
63.00 38.09
64.00 38.17
65.00 38.37
66.00 39.27
67.00 40.97
68.00 42.77
69.00 44.14
70.00 44.49
71.00 42.59
72.00 40.34
73.00 38.90
74.00 37.68
75.00 36.14
76.00 34.25
77.00 32.31
78.00 30.75
79.00 29.71
80.00 29.00
81.00 28.50
82.00 28.33
83.00 28.52
84.00 29.07
85.00 30.03
86.00 31.41
87.00 33.07
88.00 35.15
89.00 37.45
90.00 37.02
91.00 34.11
92.00 31.74
93.00 30.22
94.00 29.52
95.00 29.82
96.00 31.22
97.00 33.38
98.00 35.28
99.00 35.98
100.00 35.83
101.00 35.84
102.00 36.75
103.00 38.98
104.00 42.71
105.00 48.08
106.00 55.56
107.00 58.48
108.00 53.36
109.00 50.81
110.00 50.67
111.00 52.56
112.00 55.45
113.00 57.07
114.00 57.17
115.00 53.82
116.00 49.23
117.00 46.14
118.00 44.64
119.00 44.79
120.00 46.87
121.00 49.57
122.00 48.83
123.00 47.08
124.00 45.69
125.00 43.76
126.00 42.69
127.00 43.66
128.00 46.33
129.00 48.04
130.00 49.45
131.00 54.86
132.00 49.19
133.00 42.54
134.00 39.47
135.00 37.82
136.00 36.60
137.00 35.76
138.00 35.83
139.00 37.35
140.00 40.93
141.00 47.71
142.00 56.50
143.00 56.32
144.00 51.00
145.00 43.89
146.00 39.57
147.00 37.19
148.00 36.01
149.00 35.91
150.00 37.39
151.00 41.20
152.00 44.86
153.00 42.75
154.00 41.91
155.00 43.66
156.00 46.48
157.00 52.21
158.00 49.94
159.00 41.65
160.00 38.97
161.00 39.10
162.00 38.89
163.00 36.71
164.00 35.20
165.00 35.18
166.00 36.02
167.00 36.81
168.00 37.07
169.00 37.05
170.00 37.59
171.00 39.76
172.00 44.32
173.00 46.50
174.00 43.56
175.00 42.45
176.00 42.84
177.00 43.20
178.00 43.02
179.00 42.17
180.00 40.69
181.00 38.97
182.00 37.50
183.00 36.66
184.00 36.82
185.00 38.32
186.00 41.46
187.00 46.48
188.00 51.09
189.00 49.64
190.00 46.35
191.00 44.04
192.00 42.84
193.00 42.54
194.00 43.41
195.00 46.51
196.00 51.15
197.00 48.82
198.00 46.34
199.00 46.22
200.00 46.24
201.00 46.17
202.00 46.29
203.00 46.04
204.00 47.58
205.00 49.60
206.00 43.26
207.00 38.85
208.00 37.23
209.00 37.20
210.00 37.82
211.00 37.91
212.00 36.33
213.00 34.04
214.00 32.48
215.00 32.08
216.00 32.91
217.00 35.13
218.00 38.79
219.00 42.62
220.00 44.78
221.00 46.49
222.00 44.95
223.00 41.86
224.00 40.98
225.00 42.26
226.00 44.44
227.00 45.82
228.00 47.77
229.00 51.25
230.00 49.47
231.00 48.11
232.00 53.16
233.00 47.88
234.00 40.84
235.00 38.73
236.00 40.03
237.00 44.98
238.00 45.54
239.00 39.61
240.00 36.54
241.00 35.36
242.00 35.55
243.00 37.14
244.00 39.92
245.00 40.60
246.00 37.92
247.00 36.07
248.00 35.84
249.00 36.69
250.00 37.96
251.00 39.29
252.00 40.55
253.00 40.42
254.00 38.43
255.00 36.79
256.00 36.62
257.00 37.90
258.00 39.40
259.00 38.76
260.00 36.55
261.00 34.48
262.00 32.79
263.00 31.17
264.00 29.57
265.00 28.21
266.00 27.28
267.00 26.71
268.00 26.30
269.00 25.89
270.00 25.44
271.00 25.06
272.00 24.87
273.00 24.86
274.00 24.96
275.00 25.03
276.00 25.03
277.00 24.98
278.00 24.94
279.00 24.92
280.00 24.88
281.00 24.78
282.00 24.65
283.00 24.55
284.00 24.60
285.00 24.85
286.00 25.26
287.00 25.75
288.00 26.21
289.00 26.69
290.00 27.22
291.00 27.83
292.00 28.40
293.00 28.76
294.00 28.79
295.00 28.56
296.00 28.32
297.00 28.39
298.00 28.94
299.00 29.79
300.00 30.24
301.00 29.66
302.00 28.46
303.00 27.49
304.00 27.15
305.00 27.54
306.00 28.70
307.00 30.99
308.00 35.50
309.00 40.07
310.00 34.40
311.00 29.99
312.00 27.93
313.00 27.42
314.00 28.39
315.00 31.36
316.00 39.21
317.00 38.79
318.00 28.50
319.00 23.29
320.00 20.02
321.00 18.00
322.00 17.01
323.00 16.95
324.00 17.76
325.00 19.26
326.00 20.73
327.00 21.01
328.00 20.26
329.00 19.62
330.00 19.61
331.00 20.21
332.00 21.29
333.00 22.98
334.00 25.69
335.00 30.60
336.00 38.53
337.00 31.63
338.00 25.36
339.00 22.09
340.00 20.62
341.00 20.84
342.00 23.29
343.00 30.64
344.00 38.37
345.00 25.86
346.00 22.83
347.00 23.13
348.00 27.38
349.00 37.09
350.00 25.54
351.00 20.19
352.00 18.26
353.00 18.35
354.00 19.97
355.00 22.53
356.00 25.28
357.00 24.80
358.00 17.99
359.00 11.75
