NAME ATR4518R7_2655_X_CO_P45_02T_yyR
FREQUENCY 2655
GAIN 15.57 dBd
TILT	ELECTRICAL
COMMENT DATE 05.08.2013 +45 degrees polarized system Lever position 02T deg
HORIZONTAL 360
0.00 0.05
1.00 0.08
2.00 0.12
3.00 0.17
4.00 0.23
5.00 0.30
6.00 0.38
7.00 0.46
8.00 0.56
9.00 0.67
10.00 0.79
11.00 0.92
12.00 1.05
13.00 1.19
14.00 1.34
15.00 1.50
16.00 1.65
17.00 1.82
18.00 1.98
19.00 2.15
20.00 2.31
21.00 2.47
22.00 2.63
23.00 2.79
24.00 2.94
25.00 3.08
26.00 3.22
27.00 3.36
28.00 3.48
29.00 3.60
30.00 3.72
31.00 3.83
32.00 3.94
33.00 4.04
34.00 4.15
35.00 4.26
36.00 4.37
37.00 4.49
38.00 4.62
39.00 4.75
40.00 4.90
41.00 5.06
42.00 5.23
43.00 5.41
44.00 5.61
45.00 5.82
46.00 6.05
47.00 6.30
48.00 6.56
49.00 6.84
50.00 7.14
51.00 7.46
52.00 7.80
53.00 8.15
54.00 8.52
55.00 8.92
56.00 9.33
57.00 9.76
58.00 10.21
59.00 10.69
60.00 11.18
61.00 11.70
62.00 12.24
63.00 12.81
64.00 13.41
65.00 14.03
66.00 14.68
67.00 15.36
68.00 16.06
69.00 16.80
70.00 17.56
71.00 18.35
72.00 19.16
73.00 19.99
74.00 20.83
75.00 21.69
76.00 22.53
77.00 23.37
78.00 24.18
79.00 24.95
80.00 25.66
81.00 26.29
82.00 26.81
83.00 27.23
84.00 27.51
85.00 27.66
86.00 27.68
87.00 27.59
88.00 27.42
89.00 27.19
90.00 26.92
91.00 26.64
92.00 26.38
93.00 26.14
94.00 25.94
95.00 25.78
96.00 25.69
97.00 25.65
98.00 25.68
99.00 25.76
100.00 25.91
101.00 26.11
102.00 26.35
103.00 26.63
104.00 26.92
105.00 27.19
106.00 27.42
107.00 27.59
108.00 27.66
109.00 27.64
110.00 27.53
111.00 27.36
112.00 27.15
113.00 26.93
114.00 26.74
115.00 26.60
116.00 26.54
117.00 26.57
118.00 26.71
119.00 26.98
120.00 27.39
121.00 27.96
122.00 28.74
123.00 29.75
124.00 31.08
125.00 32.82
126.00 35.18
127.00 38.57
128.00 43.95
129.00 48.82
130.00 42.42
131.00 37.80
132.00 34.86
133.00 32.82
134.00 31.35
135.00 30.28
136.00 29.53
137.00 29.04
138.00 28.77
139.00 28.72
140.00 28.86
141.00 29.21
142.00 29.77
143.00 30.54
144.00 31.53
145.00 32.71
146.00 34.04
147.00 35.28
148.00 36.04
149.00 35.92
150.00 35.02
151.00 33.80
152.00 32.59
153.00 31.55
154.00 30.71
155.00 30.09
156.00 29.66
157.00 29.42
158.00 29.37
159.00 29.49
160.00 29.79
161.00 30.26
162.00 30.92
163.00 31.77
164.00 32.83
165.00 34.10
166.00 35.56
167.00 37.12
168.00 38.52
169.00 39.27
170.00 39.04
171.00 38.07
172.00 36.85
173.00 35.66
174.00 34.61
175.00 33.72
176.00 32.98
177.00 32.35
178.00 31.82
179.00 31.39
180.00 31.02
181.00 30.73
182.00 30.50
183.00 30.35
184.00 30.28
185.00 30.29
186.00 30.41
187.00 30.64
188.00 31.01
189.00 31.52
190.00 32.22
191.00 33.14
192.00 34.32
193.00 35.81
194.00 37.64
195.00 39.64
196.00 41.06
197.00 40.59
198.00 38.61
199.00 36.40
200.00 34.47
201.00 32.86
202.00 31.56
203.00 30.51
204.00 29.66
205.00 29.00
206.00 28.50
207.00 28.13
208.00 27.90
209.00 27.79
210.00 27.79
211.00 27.90
212.00 28.11
213.00 28.41
214.00 28.77
215.00 29.20
216.00 29.63
217.00 30.04
218.00 30.34
219.00 30.48
220.00 30.40
221.00 30.10
222.00 29.63
223.00 29.04
224.00 28.40
225.00 27.76
226.00 27.16
227.00 26.62
228.00 26.16
229.00 25.77
230.00 25.47
231.00 25.25
232.00 25.12
233.00 25.07
234.00 25.11
235.00 25.22
236.00 25.41
237.00 25.68
238.00 26.02
239.00 26.42
240.00 26.89
241.00 27.40
242.00 27.94
243.00 28.49
244.00 29.02
245.00 29.50
246.00 29.89
247.00 30.18
248.00 30.34
249.00 30.39
250.00 30.35
251.00 30.23
252.00 30.08
253.00 29.91
254.00 29.75
255.00 29.59
256.00 29.45
257.00 29.33
258.00 29.20
259.00 29.08
260.00 28.94
261.00 28.78
262.00 28.58
263.00 28.35
264.00 28.08
265.00 27.77
266.00 27.43
267.00 27.05
268.00 26.66
269.00 26.26
270.00 25.85
271.00 25.44
272.00 25.03
273.00 24.63
274.00 24.24
275.00 23.85
276.00 23.48
277.00 23.11
278.00 22.75
279.00 22.40
280.00 22.05
281.00 21.70
282.00 21.35
283.00 21.00
284.00 20.64
285.00 20.28
286.00 19.89
287.00 19.50
288.00 19.10
289.00 18.69
290.00 18.26
291.00 17.81
292.00 17.36
293.00 16.90
294.00 16.43
295.00 15.97
296.00 15.50
297.00 15.03
298.00 14.57
299.00 14.12
300.00 13.68
301.00 13.24
302.00 12.82
303.00 12.40
304.00 11.99
305.00 11.59
306.00 11.20
307.00 10.82
308.00 10.44
309.00 10.07
310.00 9.70
311.00 9.33
312.00 8.96
313.00 8.60
314.00 8.23
315.00 7.86
316.00 7.50
317.00 7.13
318.00 6.77
319.00 6.40
320.00 6.04
321.00 5.68
322.00 5.33
323.00 4.98
324.00 4.65
325.00 4.31
326.00 4.00
327.00 3.69
328.00 3.39
329.00 3.11
330.00 2.84
331.00 2.58
332.00 2.34
333.00 2.11
334.00 1.90
335.00 1.70
336.00 1.51
337.00 1.34
338.00 1.19
339.00 1.04
340.00 0.91
341.00 0.79
342.00 0.68
343.00 0.59
344.00 0.50
345.00 0.42
346.00 0.35
347.00 0.28
348.00 0.23
349.00 0.17
350.00 0.13
351.00 0.09
352.00 0.06
353.00 0.04
354.00 0.02
355.00 0.01
356.00 0.00
357.00 0.00
358.00 0.01
359.00 0.02
VERTICAL 360
0.00 2.61
1.00 0.58
2.00 0.00
3.00 0.77
4.00 2.99
5.00 7.05
6.00 13.14
7.00 15.53
8.00 14.10
9.00 16.20
10.00 24.19
11.00 21.34
12.00 15.88
13.00 15.14
14.00 17.62
15.00 22.93
16.00 21.33
17.00 17.26
18.00 16.68
19.00 19.39
20.00 28.21
21.00 30.43
22.00 21.26
23.00 18.65
24.00 18.83
25.00 21.12
26.00 23.43
27.00 22.02
28.00 17.96
29.00 14.16
30.00 11.97
31.00 11.58
32.00 12.91
33.00 15.89
34.00 20.41
35.00 23.71
36.00 21.67
37.00 20.06
38.00 20.97
39.00 24.30
40.00 28.32
41.00 27.50
42.00 23.90
43.00 21.36
44.00 20.64
45.00 22.04
46.00 25.88
47.00 30.39
48.00 30.06
49.00 30.28
50.00 34.43
51.00 42.92
52.00 51.59
53.00 43.48
54.00 31.26
55.00 26.65
56.00 25.64
57.00 27.40
58.00 31.72
59.00 39.66
60.00 31.12
61.00 23.51
62.00 19.99
63.00 18.53
64.00 18.11
65.00 17.94
66.00 17.69
67.00 17.61
68.00 18.02
69.00 18.85
70.00 19.62
71.00 19.90
72.00 19.89
73.00 20.25
74.00 21.42
75.00 23.37
76.00 25.37
77.00 26.26
78.00 26.05
79.00 25.48
80.00 25.18
81.00 26.06
82.00 28.32
83.00 31.28
84.00 32.12
85.00 30.12
86.00 27.52
87.00 25.61
88.00 25.57
89.00 28.62
90.00 35.67
91.00 31.27
92.00 27.04
93.00 27.63
94.00 32.15
95.00 31.72
96.00 28.02
97.00 28.51
98.00 31.55
99.00 32.51
100.00 34.16
101.00 42.24
102.00 37.60
103.00 34.11
104.00 34.44
105.00 33.67
106.00 33.53
107.00 36.65
108.00 43.31
109.00 49.65
110.00 51.43
111.00 49.91
112.00 51.68
113.00 47.02
114.00 44.32
115.00 42.90
116.00 39.23
117.00 37.77
118.00 39.65
119.00 45.17
120.00 51.47
121.00 45.65
122.00 45.03
123.00 50.07
124.00 40.08
125.00 35.09
126.00 33.76
127.00 33.68
128.00 34.16
129.00 36.27
130.00 38.14
131.00 36.72
132.00 37.21
133.00 37.52
134.00 34.61
135.00 34.94
136.00 39.90
137.00 38.29
138.00 36.13
139.00 40.46
140.00 45.45
141.00 44.91
142.00 44.59
143.00 36.41
144.00 34.44
145.00 36.71
146.00 41.18
147.00 45.13
148.00 46.24
149.00 45.49
150.00 50.03
151.00 42.82
152.00 38.97
153.00 40.35
154.00 43.59
155.00 45.78
156.00 50.17
157.00 48.08
158.00 43.52
159.00 39.05
160.00 36.40
161.00 36.38
162.00 38.16
163.00 39.96
164.00 39.93
165.00 38.66
166.00 39.16
167.00 43.57
168.00 46.98
169.00 41.53
170.00 39.18
171.00 39.28
172.00 40.94
173.00 42.66
174.00 43.24
175.00 43.10
176.00 38.67
177.00 34.28
178.00 32.65
179.00 33.53
180.00 36.44
181.00 40.55
182.00 44.16
183.00 42.98
184.00 40.80
185.00 39.29
186.00 38.25
187.00 40.44
188.00 47.86
189.00 41.04
190.00 37.32
191.00 38.93
192.00 45.81
193.00 47.43
194.00 43.50
195.00 41.99
196.00 39.24
197.00 36.95
198.00 36.20
199.00 36.62
200.00 37.33
201.00 37.54
202.00 38.35
203.00 42.47
204.00 46.56
205.00 38.35
206.00 34.41
207.00 33.31
208.00 34.07
209.00 36.20
210.00 39.07
211.00 41.46
212.00 41.55
213.00 39.14
214.00 36.64
215.00 35.64
216.00 36.39
217.00 37.98
218.00 38.44
219.00 36.38
220.00 33.56
221.00 32.53
222.00 34.22
223.00 37.73
224.00 38.46
225.00 38.82
226.00 41.32
227.00 40.36
228.00 37.63
229.00 35.91
230.00 35.34
231.00 36.52
232.00 38.18
233.00 37.47
234.00 36.49
235.00 36.52
236.00 36.76
237.00 37.54
238.00 39.91
239.00 42.76
240.00 42.85
241.00 42.47
242.00 40.13
243.00 36.65
244.00 35.00
245.00 34.75
246.00 34.49
247.00 33.74
248.00 33.02
249.00 32.91
250.00 33.94
251.00 36.25
252.00 37.28
253.00 34.96
254.00 33.23
255.00 33.39
256.00 34.97
257.00 36.81
258.00 37.62
259.00 37.55
260.00 37.87
261.00 39.10
262.00 41.25
263.00 45.15
264.00 52.75
265.00 52.93
266.00 46.23
267.00 41.17
268.00 37.40
269.00 35.18
270.00 34.17
271.00 33.77
272.00 34.07
273.00 35.52
274.00 37.26
275.00 38.14
276.00 40.31
277.00 41.10
278.00 34.97
279.00 30.45
280.00 28.29
281.00 27.85
282.00 28.15
283.00 28.03
284.00 27.36
285.00 26.88
286.00 27.40
287.00 29.75
288.00 33.36
289.00 32.66
290.00 29.16
291.00 26.35
292.00 23.80
293.00 21.19
294.00 18.68
295.00 16.55
296.00 14.86
297.00 13.50
298.00 12.41
299.00 11.62
300.00 11.16
301.00 11.07
302.00 11.42
303.00 12.28
304.00 13.83
305.00 16.35
306.00 20.51
307.00 28.79
308.00 33.76
309.00 25.20
310.00 22.97
311.00 23.71
312.00 26.97
313.00 33.99
314.00 44.07
315.00 33.63
316.00 28.43
317.00 25.66
318.00 24.50
319.00 23.68
320.00 21.81
321.00 20.03
322.00 19.63
323.00 20.90
324.00 23.95
325.00 28.05
326.00 26.83
327.00 22.95
328.00 21.16
329.00 21.29
330.00 22.83
331.00 24.73
332.00 25.74
333.00 26.75
334.00 27.63
335.00 24.28
336.00 20.24
337.00 18.19
338.00 18.19
339.00 20.71
340.00 29.44
341.00 31.21
342.00 21.98
343.00 20.65
344.00 23.90
345.00 29.55
346.00 23.73
347.00 20.22
348.00 20.20
349.00 22.93
350.00 26.02
351.00 24.75
352.00 25.46
353.00 33.74
354.00 25.54
355.00 19.96
356.00 21.32
357.00 29.19
358.00 13.54
359.00 6.47
