NAME ATR4518R7_1950_X_CO_M45_05T_yL
FREQUENCY 1950
GAIN 15.31 dBd
TILT	ELECTRICAL
COMMENT DATE 05.08.2013 -45 degrees polarized system Lever position 05T deg
HORIZONTAL 360
0.00 0.00
1.00 0.02
2.00 0.03
3.00 0.05
4.00 0.07
5.00 0.09
6.00 0.12
7.00 0.15
8.00 0.19
9.00 0.23
10.00 0.27
11.00 0.31
12.00 0.36
13.00 0.41
14.00 0.46
15.00 0.53
16.00 0.59
17.00 0.66
18.00 0.74
19.00 0.83
20.00 0.92
21.00 1.02
22.00 1.12
23.00 1.24
24.00 1.36
25.00 1.49
26.00 1.63
27.00 1.78
28.00 1.94
29.00 2.10
30.00 2.28
31.00 2.46
32.00 2.66
33.00 2.86
34.00 3.07
35.00 3.29
36.00 3.52
37.00 3.76
38.00 4.01
39.00 4.26
40.00 4.53
41.00 4.80
42.00 5.08
43.00 5.37
44.00 5.67
45.00 5.97
46.00 6.28
47.00 6.60
48.00 6.92
49.00 7.24
50.00 7.57
51.00 7.90
52.00 8.24
53.00 8.58
54.00 8.92
55.00 9.26
56.00 9.61
57.00 9.95
58.00 10.30
59.00 10.64
60.00 10.99
61.00 11.34
62.00 11.69
63.00 12.05
64.00 12.40
65.00 12.76
66.00 13.12
67.00 13.49
68.00 13.85
69.00 14.23
70.00 14.60
71.00 14.98
72.00 15.36
73.00 15.74
74.00 16.12
75.00 16.51
76.00 16.89
77.00 17.26
78.00 17.64
79.00 18.01
80.00 18.37
81.00 18.73
82.00 19.08
83.00 19.42
84.00 19.76
85.00 20.10
86.00 20.44
87.00 20.77
88.00 21.12
89.00 21.48
90.00 21.85
91.00 22.24
92.00 22.65
93.00 23.09
94.00 23.56
95.00 24.07
96.00 24.62
97.00 25.20
98.00 25.82
99.00 26.47
100.00 27.13
101.00 27.80
102.00 28.43
103.00 28.99
104.00 29.44
105.00 29.72
106.00 29.83
107.00 29.76
108.00 29.56
109.00 29.26
110.00 28.91
111.00 28.56
112.00 28.23
113.00 27.94
114.00 27.70
115.00 27.51
116.00 27.39
117.00 27.32
118.00 27.31
119.00 27.35
120.00 27.42
121.00 27.53
122.00 27.65
123.00 27.78
124.00 27.90
125.00 28.00
126.00 28.06
127.00 28.08
128.00 28.05
129.00 27.98
130.00 27.88
131.00 27.76
132.00 27.62
133.00 27.49
134.00 27.38
135.00 27.28
136.00 27.22
137.00 27.19
138.00 27.20
139.00 27.25
140.00 27.34
141.00 27.47
142.00 27.64
143.00 27.84
144.00 28.08
145.00 28.36
146.00 28.68
147.00 29.03
148.00 29.41
149.00 29.83
150.00 30.27
151.00 30.73
152.00 31.20
153.00 31.66
154.00 32.06
155.00 32.36
156.00 32.52
157.00 32.49
158.00 32.26
159.00 31.87
160.00 31.36
161.00 30.78
162.00 30.19
163.00 29.63
164.00 29.12
165.00 28.68
166.00 28.33
167.00 28.08
168.00 27.92
169.00 27.87
170.00 27.94
171.00 28.12
172.00 28.43
173.00 28.86
174.00 29.43
175.00 30.12
176.00 30.93
177.00 31.81
178.00 32.67
179.00 33.33
180.00 33.58
181.00 33.32
182.00 32.61
183.00 31.68
184.00 30.71
185.00 29.80
186.00 29.01
187.00 28.36
188.00 27.86
189.00 27.51
190.00 27.30
191.00 27.25
192.00 27.35
193.00 27.62
194.00 28.07
195.00 28.72
196.00 29.60
197.00 30.79
198.00 32.36
199.00 34.51
200.00 37.60
201.00 42.57
202.00 50.39
203.00 43.93
204.00 38.28
205.00 34.85
206.00 32.48
207.00 30.73
208.00 29.40
209.00 28.38
210.00 27.60
211.00 27.03
212.00 26.64
213.00 26.41
214.00 26.34
215.00 26.42
216.00 26.65
217.00 27.04
218.00 27.60
219.00 28.37
220.00 29.36
221.00 30.65
222.00 32.32
223.00 34.52
224.00 37.54
225.00 41.63
226.00 44.09
227.00 40.41
228.00 36.50
229.00 33.64
230.00 31.50
231.00 29.83
232.00 28.50
233.00 27.42
234.00 26.54
235.00 25.81
236.00 25.22
237.00 24.73
238.00 24.34
239.00 24.04
240.00 23.80
241.00 23.62
242.00 23.49
243.00 23.40
244.00 23.34
245.00 23.30
246.00 23.26
247.00 23.21
248.00 23.15
249.00 23.06
250.00 22.95
251.00 22.79
252.00 22.61
253.00 22.38
254.00 22.13
255.00 21.86
256.00 21.58
257.00 21.29
258.00 20.99
259.00 20.71
260.00 20.43
261.00 20.16
262.00 19.91
263.00 19.67
264.00 19.44
265.00 19.21
266.00 19.00
267.00 18.78
268.00 18.57
269.00 18.35
270.00 18.12
271.00 17.88
272.00 17.63
273.00 17.36
274.00 17.07
275.00 16.77
276.00 16.45
277.00 16.13
278.00 15.79
279.00 15.44
280.00 15.09
281.00 14.74
282.00 14.39
283.00 14.04
284.00 13.69
285.00 13.35
286.00 13.01
287.00 12.68
288.00 12.36
289.00 12.04
290.00 11.73
291.00 11.42
292.00 11.12
293.00 10.82
294.00 10.53
295.00 10.25
296.00 9.96
297.00 9.68
298.00 9.41
299.00 9.14
300.00 8.88
301.00 8.62
302.00 8.36
303.00 8.11
304.00 7.87
305.00 7.63
306.00 7.39
307.00 7.17
308.00 6.94
309.00 6.72
310.00 6.51
311.00 6.31
312.00 6.11
313.00 5.91
314.00 5.71
315.00 5.52
316.00 5.34
317.00 5.15
318.00 4.97
319.00 4.78
320.00 4.60
321.00 4.42
322.00 4.23
323.00 4.05
324.00 3.87
325.00 3.69
326.00 3.51
327.00 3.33
328.00 3.15
329.00 2.98
330.00 2.80
331.00 2.63
332.00 2.46
333.00 2.30
334.00 2.14
335.00 1.98
336.00 1.82
337.00 1.67
338.00 1.53
339.00 1.39
340.00 1.25
341.00 1.12
342.00 1.00
343.00 0.88
344.00 0.77
345.00 0.67
346.00 0.57
347.00 0.48
348.00 0.40
349.00 0.32
350.00 0.26
351.00 0.20
352.00 0.15
353.00 0.10
354.00 0.07
355.00 0.04
356.00 0.02
357.00 0.01
358.00 0.00
359.00 0.00
VERTICAL 360
0.00 9.16
1.00 5.64
2.00 3.05
3.00 1.28
4.00 0.27
5.00 0.00
6.00 0.49
7.00 1.80
8.00 4.13
9.00 7.98
10.00 14.99
11.00 26.97
12.00 15.83
13.00 12.94
14.00 13.09
15.00 15.43
16.00 19.48
17.00 20.19
18.00 16.82
19.00 14.57
20.00 13.75
21.00 14.30
22.00 16.52
23.00 21.21
24.00 26.98
25.00 22.25
26.00 19.08
27.00 18.36
28.00 19.39
29.00 22.03
30.00 25.58
31.00 25.05
32.00 21.67
33.00 19.54
34.00 18.79
35.00 19.19
36.00 20.64
37.00 23.09
38.00 25.38
39.00 24.00
40.00 20.86
41.00 18.50
42.00 17.08
43.00 16.36
44.00 16.16
45.00 16.43
46.00 17.23
47.00 18.65
48.00 20.72
49.00 23.30
50.00 26.10
51.00 29.11
52.00 33.21
53.00 39.10
54.00 36.63
55.00 31.93
56.00 29.27
57.00 27.56
58.00 26.31
59.00 25.50
60.00 25.25
61.00 25.64
62.00 26.64
63.00 28.06
64.00 29.52
65.00 30.69
66.00 31.62
67.00 32.65
68.00 34.14
69.00 36.47
70.00 40.18
71.00 45.16
72.00 46.79
73.00 45.70
74.00 45.70
75.00 45.43
76.00 43.29
77.00 40.18
78.00 37.71
79.00 36.57
80.00 36.97
81.00 38.99
82.00 42.55
83.00 47.10
84.00 50.10
85.00 48.12
86.00 44.60
87.00 42.07
88.00 40.74
89.00 40.26
90.00 39.65
91.00 38.03
92.00 36.23
93.00 35.15
94.00 34.84
95.00 34.94
96.00 35.23
97.00 35.90
98.00 37.05
99.00 38.25
100.00 39.07
101.00 39.82
102.00 40.85
103.00 41.86
104.00 42.41
105.00 42.28
106.00 41.90
107.00 42.25
108.00 44.28
109.00 48.47
110.00 50.19
111.00 46.35
112.00 43.47
113.00 41.59
114.00 40.30
115.00 39.36
116.00 38.62
117.00 38.23
118.00 38.56
119.00 39.95
120.00 42.55
121.00 45.27
122.00 44.66
123.00 42.72
124.00 42.28
125.00 44.04
126.00 48.24
127.00 47.68
128.00 42.57
129.00 39.53
130.00 37.98
131.00 37.34
132.00 37.32
133.00 37.76
134.00 38.67
135.00 40.06
136.00 41.96
137.00 43.92
138.00 44.69
139.00 44.05
140.00 43.22
141.00 42.70
142.00 42.67
143.00 43.79
144.00 47.28
145.00 52.52
146.00 46.54
147.00 41.68
148.00 38.39
149.00 35.61
150.00 33.42
151.00 32.08
152.00 31.61
153.00 31.84
154.00 32.50
155.00 33.25
156.00 33.52
157.00 32.87
158.00 31.81
159.00 31.08
160.00 31.02
161.00 31.64
162.00 32.83
163.00 34.51
164.00 36.70
165.00 39.12
166.00 40.33
167.00 39.93
168.00 40.13
169.00 41.92
170.00 43.68
171.00 42.32
172.00 39.76
173.00 37.05
174.00 34.66
175.00 33.33
176.00 33.24
177.00 34.33
178.00 35.94
179.00 37.31
180.00 38.82
181.00 40.77
182.00 40.68
183.00 38.05
184.00 35.93
185.00 34.92
186.00 34.68
187.00 34.62
188.00 34.39
189.00 34.36
190.00 35.04
191.00 36.48
192.00 38.02
193.00 38.63
194.00 38.16
195.00 37.16
196.00 36.13
197.00 35.40
198.00 35.13
199.00 35.61
200.00 37.22
201.00 38.85
202.00 36.56
203.00 33.26
204.00 31.54
205.00 31.64
206.00 33.89
207.00 39.76
208.00 41.82
209.00 34.58
210.00 31.30
211.00 30.15
212.00 30.36
213.00 31.60
214.00 33.84
215.00 37.63
216.00 46.03
217.00 48.82
218.00 39.00
219.00 35.57
220.00 34.28
221.00 34.15
222.00 34.50
223.00 34.88
224.00 35.22
225.00 35.90
226.00 37.39
227.00 39.92
228.00 41.57
229.00 39.18
230.00 36.35
231.00 34.80
232.00 34.49
233.00 35.26
234.00 36.96
235.00 39.00
236.00 39.44
237.00 37.87
238.00 36.47
239.00 36.13
240.00 36.91
241.00 38.72
242.00 41.50
243.00 45.45
244.00 49.46
245.00 45.71
246.00 40.71
247.00 37.64
248.00 36.28
249.00 36.55
250.00 38.51
251.00 42.12
252.00 45.99
253.00 45.97
254.00 43.25
255.00 40.30
256.00 37.75
257.00 35.62
258.00 34.01
259.00 33.15
260.00 33.19
261.00 33.84
262.00 34.30
263.00 33.90
264.00 33.01
265.00 32.20
266.00 31.59
267.00 31.11
268.00 30.62
269.00 30.03
270.00 29.33
271.00 28.58
272.00 27.82
273.00 27.11
274.00 26.56
275.00 26.24
276.00 26.25
277.00 26.63
278.00 27.42
279.00 28.57
280.00 30.04
281.00 31.79
282.00 33.89
283.00 36.48
284.00 39.56
285.00 42.14
286.00 41.39
287.00 38.29
288.00 35.08
289.00 32.22
290.00 29.74
291.00 27.65
292.00 25.90
293.00 24.42
294.00 23.15
295.00 22.10
296.00 21.35
297.00 21.00
298.00 21.14
299.00 21.85
300.00 23.12
301.00 24.80
302.00 26.49
303.00 27.59
304.00 27.51
305.00 26.13
306.00 24.27
307.00 22.78
308.00 22.01
309.00 22.04
310.00 22.82
311.00 24.26
312.00 26.35
313.00 29.09
314.00 30.34
315.00 26.99
316.00 23.40
317.00 21.20
318.00 20.28
319.00 20.51
320.00 21.82
321.00 24.31
322.00 28.36
323.00 33.99
324.00 31.76
325.00 26.90
326.00 24.27
327.00 23.32
328.00 23.78
329.00 25.45
330.00 27.75
331.00 29.24
332.00 29.50
333.00 30.19
334.00 33.53
335.00 59.45
336.00 30.65
337.00 23.82
338.00 20.43
339.00 19.07
340.00 19.50
341.00 22.11
342.00 28.90
343.00 34.67
344.00 24.94
345.00 21.88
346.00 21.56
347.00 23.67
348.00 30.23
349.00 32.62
350.00 22.61
351.00 18.26
352.00 16.09
353.00 15.33
354.00 15.69
355.00 17.06
356.00 19.51
357.00 22.43
358.00 19.77
359.00 13.86
