NAME ATR4518R7_1880_X_CO_P45_06T_yyR
FREQUENCY 1880
GAIN 14.70 dBd
TILT	ELECTRICAL
COMMENT DATE 05.08.2013 +45 degrees polarized system Lever position 06T deg
HORIZONTAL 360
0.00 0.08
1.00 0.05
2.00 0.03
3.00 0.02
4.00 0.00
5.00 0.00
6.00 0.00
7.00 0.00
8.00 0.01
9.00 0.03
10.00 0.05
11.00 0.08
12.00 0.12
13.00 0.17
14.00 0.22
15.00 0.29
16.00 0.36
17.00 0.45
18.00 0.54
19.00 0.64
20.00 0.76
21.00 0.88
22.00 1.01
23.00 1.16
24.00 1.32
25.00 1.48
26.00 1.66
27.00 1.85
28.00 2.05
29.00 2.25
30.00 2.47
31.00 2.70
32.00 2.93
33.00 3.18
34.00 3.43
35.00 3.68
36.00 3.95
37.00 4.21
38.00 4.49
39.00 4.76
40.00 5.04
41.00 5.32
42.00 5.61
43.00 5.89
44.00 6.17
45.00 6.45
46.00 6.74
47.00 7.02
48.00 7.30
49.00 7.58
50.00 7.86
51.00 8.14
52.00 8.42
53.00 8.70
54.00 8.98
55.00 9.25
56.00 9.53
57.00 9.82
58.00 10.10
59.00 10.38
60.00 10.67
61.00 10.95
62.00 11.24
63.00 11.53
64.00 11.82
65.00 12.11
66.00 12.40
67.00 12.70
68.00 12.99
69.00 13.29
70.00 13.59
71.00 13.89
72.00 14.20
73.00 14.51
74.00 14.82
75.00 15.14
76.00 15.47
77.00 15.80
78.00 16.14
79.00 16.49
80.00 16.85
81.00 17.22
82.00 17.60
83.00 17.99
84.00 18.39
85.00 18.81
86.00 19.24
87.00 19.68
88.00 20.12
89.00 20.58
90.00 21.04
91.00 21.50
92.00 21.97
93.00 22.43
94.00 22.88
95.00 23.32
96.00 23.75
97.00 24.16
98.00 24.55
99.00 24.91
100.00 25.25
101.00 25.58
102.00 25.88
103.00 26.17
104.00 26.44
105.00 26.72
106.00 26.99
107.00 27.26
108.00 27.55
109.00 27.84
110.00 28.15
111.00 28.47
112.00 28.80
113.00 29.13
114.00 29.48
115.00 29.82
116.00 30.15
117.00 30.47
118.00 30.76
119.00 31.01
120.00 31.22
121.00 31.39
122.00 31.51
123.00 31.61
124.00 31.67
125.00 31.72
126.00 31.76
127.00 31.80
128.00 31.87
129.00 31.96
130.00 32.08
131.00 32.24
132.00 32.45
133.00 32.71
134.00 33.03
135.00 33.40
136.00 33.83
137.00 34.31
138.00 34.86
139.00 35.45
140.00 36.08
141.00 36.74
142.00 37.42
143.00 38.09
144.00 38.73
145.00 39.31
146.00 39.82
147.00 40.25
148.00 40.61
149.00 40.92
150.00 41.19
151.00 41.47
152.00 41.79
153.00 42.15
154.00 42.58
155.00 43.07
156.00 43.61
157.00 44.13
158.00 44.57
159.00 44.78
160.00 44.68
161.00 44.23
162.00 43.52
163.00 42.64
164.00 41.72
165.00 40.83
166.00 40.01
167.00 39.29
168.00 38.67
169.00 38.15
170.00 37.72
171.00 37.40
172.00 37.18
173.00 37.04
174.00 36.99
175.00 37.00
176.00 37.10
177.00 37.24
178.00 37.44
179.00 37.66
180.00 37.88
181.00 38.08
182.00 38.23
183.00 38.31
184.00 38.29
185.00 38.19
186.00 38.00
187.00 37.75
188.00 37.46
189.00 37.17
190.00 36.88
191.00 36.62
192.00 36.39
193.00 36.22
194.00 36.09
195.00 36.01
196.00 35.98
197.00 35.99
198.00 36.02
199.00 36.06
200.00 36.09
201.00 36.09
202.00 36.03
203.00 35.89
204.00 35.68
205.00 35.37
206.00 34.98
207.00 34.53
208.00 34.04
209.00 33.53
210.00 33.01
211.00 32.50
212.00 32.02
213.00 31.56
214.00 31.14
215.00 30.75
216.00 30.40
217.00 30.08
218.00 29.80
219.00 29.55
220.00 29.32
221.00 29.13
222.00 28.95
223.00 28.80
224.00 28.66
225.00 28.53
226.00 28.42
227.00 28.31
228.00 28.22
229.00 28.12
230.00 28.03
231.00 27.95
232.00 27.87
233.00 27.80
234.00 27.73
235.00 27.67
236.00 27.62
237.00 27.58
238.00 27.55
239.00 27.53
240.00 27.53
241.00 27.55
242.00 27.58
243.00 27.63
244.00 27.69
245.00 27.77
246.00 27.87
247.00 27.98
248.00 28.11
249.00 28.25
250.00 28.39
251.00 28.55
252.00 28.71
253.00 28.87
254.00 29.03
255.00 29.19
256.00 29.33
257.00 29.46
258.00 29.58
259.00 29.66
260.00 29.72
261.00 29.75
262.00 29.74
263.00 29.68
264.00 29.58
265.00 29.43
266.00 29.24
267.00 28.99
268.00 28.70
269.00 28.37
270.00 28.00
271.00 27.58
272.00 27.14
273.00 26.67
274.00 26.18
275.00 25.68
276.00 25.16
277.00 24.64
278.00 24.11
279.00 23.57
280.00 23.04
281.00 22.51
282.00 21.99
283.00 21.47
284.00 20.95
285.00 20.45
286.00 19.95
287.00 19.45
288.00 18.96
289.00 18.48
290.00 18.01
291.00 17.54
292.00 17.07
293.00 16.62
294.00 16.16
295.00 15.72
296.00 15.28
297.00 14.84
298.00 14.40
299.00 13.98
300.00 13.56
301.00 13.14
302.00 12.72
303.00 12.31
304.00 11.90
305.00 11.50
306.00 11.11
307.00 10.71
308.00 10.33
309.00 9.94
310.00 9.56
311.00 9.19
312.00 8.83
313.00 8.47
314.00 8.11
315.00 7.76
316.00 7.42
317.00 7.08
318.00 6.75
319.00 6.43
320.00 6.12
321.00 5.81
322.00 5.51
323.00 5.22
324.00 4.94
325.00 4.66
326.00 4.40
327.00 4.14
328.00 3.89
329.00 3.65
330.00 3.42
331.00 3.20
332.00 2.99
333.00 2.78
334.00 2.58
335.00 2.40
336.00 2.22
337.00 2.05
338.00 1.89
339.00 1.74
340.00 1.60
341.00 1.46
342.00 1.33
343.00 1.21
344.00 1.10
345.00 0.99
346.00 0.89
347.00 0.80
348.00 0.72
349.00 0.64
350.00 0.56
351.00 0.49
352.00 0.43
353.00 0.37
354.00 0.31
355.00 0.26
356.00 0.22
357.00 0.18
358.00 0.14
359.00 0.11
VERTICAL 360
0.00 14.12
1.00 9.15
2.00 5.54
3.00 2.96
4.00 1.22
5.00 0.24
6.00 0.00
7.00 0.51
8.00 1.83
9.00 4.11
10.00 7.70
11.00 13.72
12.00 26.08
13.00 19.97
14.00 14.99
15.00 13.96
16.00 15.24
17.00 19.19
18.00 28.07
19.00 25.53
20.00 19.63
21.00 17.90
22.00 18.48
23.00 21.37
24.00 28.75
25.00 33.58
26.00 23.75
27.00 20.44
28.00 19.58
29.00 20.40
30.00 22.86
31.00 27.83
32.00 36.79
33.00 29.35
34.00 23.38
35.00 20.39
36.00 19.10
37.00 19.25
38.00 20.96
39.00 24.61
40.00 29.50
41.00 28.80
42.00 26.06
43.00 25.46
44.00 26.66
45.00 29.21
46.00 32.64
47.00 36.61
48.00 37.35
49.00 32.77
50.00 29.59
51.00 28.44
52.00 28.90
53.00 30.61
54.00 33.03
55.00 34.82
56.00 34.34
57.00 32.28
58.00 30.12
59.00 28.39
60.00 27.24
61.00 26.68
62.00 26.64
63.00 26.93
64.00 27.39
65.00 28.05
66.00 29.07
67.00 30.53
68.00 32.20
69.00 33.39
70.00 33.64
71.00 33.27
72.00 32.92
73.00 32.88
74.00 32.98
75.00 32.77
76.00 31.99
77.00 30.85
78.00 29.74
79.00 28.94
80.00 28.36
81.00 27.76
82.00 26.94
83.00 26.07
84.00 25.48
85.00 25.51
86.00 26.24
87.00 27.47
88.00 28.65
89.00 29.32
90.00 29.56
91.00 29.57
92.00 29.39
93.00 29.09
94.00 28.87
95.00 28.86
96.00 29.17
97.00 29.95
98.00 31.39
99.00 33.65
100.00 36.71
101.00 40.13
102.00 42.64
103.00 43.60
104.00 44.85
105.00 48.49
106.00 49.99
107.00 44.24
108.00 40.87
109.00 39.39
110.00 38.82
111.00 38.69
112.00 38.78
113.00 39.07
114.00 39.83
115.00 41.52
116.00 44.20
117.00 46.91
118.00 48.73
119.00 50.45
120.00 51.95
121.00 51.55
122.00 48.93
123.00 45.76
124.00 43.29
125.00 41.92
126.00 41.99
127.00 44.02
128.00 47.65
129.00 47.36
130.00 45.13
131.00 46.07
132.00 50.47
133.00 47.47
134.00 41.51
135.00 38.34
136.00 36.82
137.00 36.39
138.00 36.56
139.00 36.66
140.00 36.24
141.00 35.58
142.00 35.12
143.00 34.97
144.00 35.10
145.00 35.55
146.00 36.42
147.00 37.70
148.00 38.78
149.00 38.78
150.00 38.48
151.00 39.60
152.00 44.02
153.00 51.49
154.00 42.65
155.00 37.78
156.00 35.29
157.00 34.03
158.00 33.76
159.00 34.22
160.00 34.96
161.00 35.98
162.00 38.21
163.00 42.58
164.00 48.12
165.00 48.63
166.00 43.35
167.00 38.36
168.00 35.64
169.00 34.33
170.00 33.17
171.00 32.11
172.00 32.04
173.00 33.80
174.00 38.10
175.00 43.96
176.00 44.88
177.00 43.70
178.00 41.31
179.00 40.19
180.00 42.66
181.00 46.83
182.00 40.67
183.00 37.01
184.00 36.67
185.00 39.19
186.00 46.06
187.00 52.24
188.00 41.80
189.00 37.69
190.00 36.46
191.00 38.03
192.00 44.58
193.00 53.88
194.00 41.35
195.00 38.58
196.00 38.34
197.00 38.82
198.00 38.84
199.00 37.57
200.00 35.42
201.00 33.67
202.00 32.83
203.00 32.73
204.00 33.01
205.00 33.49
206.00 34.19
207.00 35.18
208.00 36.69
209.00 39.36
210.00 45.18
211.00 54.99
212.00 42.09
213.00 36.93
214.00 34.44
215.00 33.52
216.00 33.87
217.00 35.41
218.00 38.17
219.00 42.05
220.00 45.81
221.00 47.58
222.00 49.75
223.00 53.76
224.00 50.73
225.00 47.43
226.00 48.71
227.00 58.55
228.00 52.22
229.00 46.53
230.00 47.92
231.00 58.13
232.00 45.73
233.00 40.07
234.00 38.37
235.00 39.07
236.00 41.60
237.00 43.78
238.00 42.01
239.00 39.28
240.00 37.52
241.00 36.75
242.00 37.03
243.00 38.60
244.00 41.94
245.00 47.74
246.00 51.17
247.00 46.86
248.00 44.06
249.00 42.34
250.00 40.55
251.00 38.61
252.00 37.27
253.00 36.86
254.00 37.06
255.00 37.08
256.00 36.20
257.00 34.44
258.00 32.71
259.00 31.80
260.00 31.94
261.00 32.99
262.00 34.64
263.00 35.93
264.00 34.66
265.00 32.07
266.00 30.54
267.00 30.42
268.00 31.29
269.00 32.30
270.00 32.65
271.00 32.20
272.00 31.59
273.00 31.77
274.00 33.55
275.00 37.73
276.00 45.09
277.00 46.46
278.00 42.85
279.00 41.57
280.00 41.42
281.00 41.37
282.00 40.07
283.00 38.15
284.00 36.40
285.00 34.46
286.00 32.34
287.00 30.50
288.00 29.03
289.00 27.70
290.00 26.36
291.00 25.03
292.00 23.89
293.00 23.07
294.00 22.65
295.00 22.63
296.00 22.96
297.00 23.71
298.00 25.01
299.00 27.05
300.00 29.70
301.00 31.82
302.00 32.16
303.00 31.99
304.00 32.22
305.00 31.91
306.00 30.00
307.00 27.59
308.00 25.94
309.00 25.49
310.00 26.43
311.00 29.10
312.00 33.80
313.00 33.74
314.00 27.77
315.00 23.69
316.00 21.09
317.00 19.51
318.00 18.77
319.00 18.77
320.00 19.50
321.00 21.03
322.00 23.23
323.00 24.29
324.00 22.05
325.00 19.32
326.00 17.72
327.00 17.27
328.00 17.75
329.00 18.85
330.00 20.19
331.00 21.51
332.00 22.75
333.00 24.02
334.00 25.51
335.00 27.26
336.00 27.93
337.00 25.38
338.00 22.10
339.00 20.10
340.00 19.81
341.00 21.72
342.00 27.93
343.00 38.95
344.00 24.85
345.00 21.36
346.00 21.12
347.00 23.48
348.00 28.12
349.00 27.01
350.00 22.16
351.00 19.67
352.00 19.10
353.00 20.41
354.00 24.40
355.00 32.99
356.00 29.16
357.00 24.63
358.00 23.71
359.00 20.30
