NAME ATR4518R7_1850_X_CO_M45_02T_yL
FREQUENCY 1850
GAIN 15.34 dBd
TILT	ELECTRICAL
COMMENT DATE 05.08.2013 -45 degrees polarized system Lever position 02T deg
HORIZONTAL 360
0.00 0.05
1.00 0.03
2.00 0.01
3.00 0.00
4.00 0.00
5.00 0.00
6.00 0.01
7.00 0.03
8.00 0.06
9.00 0.10
10.00 0.14
11.00 0.20
12.00 0.26
13.00 0.32
14.00 0.40
15.00 0.48
16.00 0.57
17.00 0.66
18.00 0.76
19.00 0.87
20.00 0.98
21.00 1.10
22.00 1.22
23.00 1.34
24.00 1.48
25.00 1.61
26.00 1.76
27.00 1.90
28.00 2.05
29.00 2.21
30.00 2.37
31.00 2.54
32.00 2.72
33.00 2.90
34.00 3.09
35.00 3.28
36.00 3.48
37.00 3.68
38.00 3.90
39.00 4.12
40.00 4.34
41.00 4.57
42.00 4.81
43.00 5.05
44.00 5.30
45.00 5.56
46.00 5.82
47.00 6.08
48.00 6.35
49.00 6.62
50.00 6.90
51.00 7.18
52.00 7.46
53.00 7.75
54.00 8.03
55.00 8.33
56.00 8.62
57.00 8.93
58.00 9.23
59.00 9.54
60.00 9.85
61.00 10.17
62.00 10.49
63.00 10.82
64.00 11.15
65.00 11.50
66.00 11.85
67.00 12.21
68.00 12.57
69.00 12.95
70.00 13.34
71.00 13.74
72.00 14.15
73.00 14.58
74.00 15.01
75.00 15.46
76.00 15.91
77.00 16.37
78.00 16.85
79.00 17.33
80.00 17.81
81.00 18.30
82.00 18.79
83.00 19.28
84.00 19.76
85.00 20.23
86.00 20.69
87.00 21.14
88.00 21.56
89.00 21.97
90.00 22.35
91.00 22.72
92.00 23.07
93.00 23.40
94.00 23.72
95.00 24.04
96.00 24.35
97.00 24.67
98.00 25.00
99.00 25.34
100.00 25.70
101.00 26.08
102.00 26.47
103.00 26.88
104.00 27.30
105.00 27.71
106.00 28.10
107.00 28.46
108.00 28.78
109.00 29.02
110.00 29.20
111.00 29.29
112.00 29.32
113.00 29.29
114.00 29.23
115.00 29.15
116.00 29.08
117.00 29.03
118.00 29.02
119.00 29.05
120.00 29.12
121.00 29.23
122.00 29.38
123.00 29.55
124.00 29.71
125.00 29.83
126.00 29.88
127.00 29.82
128.00 29.63
129.00 29.31
130.00 28.88
131.00 28.37
132.00 27.81
133.00 27.24
134.00 26.69
135.00 26.18
136.00 25.73
137.00 25.33
138.00 25.00
139.00 24.75
140.00 24.58
141.00 24.48
142.00 24.46
143.00 24.53
144.00 24.68
145.00 24.91
146.00 25.23
147.00 25.65
148.00 26.16
149.00 26.76
150.00 27.46
151.00 28.24
152.00 29.09
153.00 29.99
154.00 30.86
155.00 31.63
156.00 32.18
157.00 32.44
158.00 32.38
159.00 32.09
160.00 31.66
161.00 31.20
162.00 30.78
163.00 30.43
164.00 30.19
165.00 30.07
166.00 30.08
167.00 30.22
168.00 30.51
169.00 30.95
170.00 31.55
171.00 32.35
172.00 33.36
173.00 34.63
174.00 36.19
175.00 38.09
176.00 40.24
177.00 42.08
178.00 42.32
179.00 40.79
180.00 38.75
181.00 36.89
182.00 35.37
183.00 34.16
184.00 33.20
185.00 32.47
186.00 31.93
187.00 31.57
188.00 31.37
189.00 31.31
190.00 31.41
191.00 31.67
192.00 32.08
193.00 32.68
194.00 33.50
195.00 34.56
196.00 35.96
197.00 37.84
198.00 40.45
199.00 44.50
200.00 52.52
201.00 53.77
202.00 44.75
203.00 40.26
204.00 37.32
205.00 35.16
206.00 33.49
207.00 32.15
208.00 31.06
209.00 30.18
210.00 29.45
211.00 28.87
212.00 28.42
213.00 28.09
214.00 27.87
215.00 27.76
216.00 27.76
217.00 27.88
218.00 28.12
219.00 28.48
220.00 29.00
221.00 29.67
222.00 30.54
223.00 31.65
224.00 33.05
225.00 34.83
226.00 37.06
227.00 39.60
228.00 41.12
229.00 39.73
230.00 36.97
231.00 34.41
232.00 32.31
233.00 30.60
234.00 29.19
235.00 28.02
236.00 27.04
237.00 26.21
238.00 25.52
239.00 24.94
240.00 24.47
241.00 24.07
242.00 23.76
243.00 23.50
244.00 23.31
245.00 23.16
246.00 23.04
247.00 22.95
248.00 22.88
249.00 22.80
250.00 22.73
251.00 22.63
252.00 22.51
253.00 22.35
254.00 22.16
255.00 21.94
256.00 21.68
257.00 21.40
258.00 21.10
259.00 20.79
260.00 20.47
261.00 20.16
262.00 19.85
263.00 19.54
264.00 19.25
265.00 18.97
266.00 18.69
267.00 18.43
268.00 18.18
269.00 17.93
270.00 17.69
271.00 17.45
272.00 17.21
273.00 16.96
274.00 16.71
275.00 16.45
276.00 16.18
277.00 15.90
278.00 15.62
279.00 15.32
280.00 15.01
281.00 14.70
282.00 14.38
283.00 14.06
284.00 13.73
285.00 13.40
286.00 13.08
287.00 12.75
288.00 12.44
289.00 12.12
290.00 11.81
291.00 11.51
292.00 11.22
293.00 10.93
294.00 10.65
295.00 10.38
296.00 10.11
297.00 9.85
298.00 9.60
299.00 9.35
300.00 9.10
301.00 8.86
302.00 8.63
303.00 8.40
304.00 8.17
305.00 7.95
306.00 7.73
307.00 7.51
308.00 7.29
309.00 7.08
310.00 6.87
311.00 6.67
312.00 6.47
313.00 6.26
314.00 6.07
315.00 5.88
316.00 5.69
317.00 5.50
318.00 5.31
319.00 5.13
320.00 4.95
321.00 4.77
322.00 4.59
323.00 4.41
324.00 4.23
325.00 4.05
326.00 3.87
327.00 3.70
328.00 3.52
329.00 3.34
330.00 3.17
331.00 2.99
332.00 2.82
333.00 2.66
334.00 2.49
335.00 2.33
336.00 2.18
337.00 2.03
338.00 1.88
339.00 1.74
340.00 1.61
341.00 1.48
342.00 1.36
343.00 1.25
344.00 1.14
345.00 1.03
346.00 0.94
347.00 0.84
348.00 0.75
349.00 0.67
350.00 0.59
351.00 0.52
352.00 0.45
353.00 0.38
354.00 0.32
355.00 0.26
356.00 0.21
357.00 0.16
358.00 0.12
359.00 0.08
VERTICAL 360
0.00 2.05
1.00 0.70
2.00 0.06
3.00 0.12
4.00 0.91
5.00 2.55
6.00 5.27
7.00 9.76
8.00 18.75
9.00 24.84
10.00 15.27
11.00 13.19
12.00 14.03
13.00 17.92
14.00 27.62
15.00 19.82
16.00 14.35
17.00 12.07
18.00 11.55
19.00 12.48
20.00 14.92
21.00 18.93
22.00 21.72
23.00 19.53
24.00 17.60
25.00 17.22
26.00 18.28
27.00 20.87
28.00 24.96
29.00 25.09
30.00 20.98
31.00 18.29
32.00 17.03
33.00 16.73
34.00 17.10
35.00 17.95
36.00 19.30
37.00 21.27
38.00 23.77
39.00 25.69
40.00 25.62
41.00 24.50
42.00 23.26
43.00 21.92
44.00 20.59
45.00 19.55
46.00 18.98
47.00 18.90
48.00 19.30
49.00 20.19
50.00 21.58
51.00 23.53
52.00 26.16
53.00 29.72
54.00 34.89
55.00 40.84
56.00 36.80
57.00 32.64
58.00 30.30
59.00 28.89
60.00 27.91
61.00 27.14
62.00 26.56
63.00 26.28
64.00 26.36
65.00 26.75
66.00 27.29
67.00 27.78
68.00 28.16
69.00 28.53
70.00 29.16
71.00 30.27
72.00 31.91
73.00 34.00
74.00 36.16
75.00 37.27
76.00 36.75
77.00 36.11
78.00 36.40
79.00 37.58
80.00 38.87
81.00 38.83
82.00 36.99
83.00 34.90
84.00 33.83
85.00 34.16
86.00 35.80
87.00 38.03
88.00 39.99
89.00 42.62
90.00 45.18
91.00 41.09
92.00 37.29
93.00 35.54
94.00 35.18
95.00 35.70
96.00 36.72
97.00 37.96
98.00 39.14
99.00 40.12
100.00 41.01
101.00 41.83
102.00 42.51
103.00 43.20
104.00 44.16
105.00 45.56
106.00 47.85
107.00 52.30
108.00 60.28
109.00 55.24
110.00 51.57
111.00 51.06
112.00 52.45
113.00 55.37
114.00 60.49
115.00 58.85
116.00 50.38
117.00 44.90
118.00 41.43
119.00 39.54
120.00 39.09
121.00 40.10
122.00 42.81
123.00 47.75
124.00 53.51
125.00 52.53
126.00 51.33
127.00 48.44
128.00 43.96
129.00 40.88
130.00 39.44
131.00 39.28
132.00 40.02
133.00 41.18
134.00 42.21
135.00 42.81
136.00 43.09
137.00 43.39
138.00 43.79
139.00 43.80
140.00 42.97
141.00 41.60
142.00 40.24
143.00 39.24
144.00 38.73
145.00 38.57
146.00 38.41
147.00 38.29
148.00 38.90
149.00 40.94
150.00 43.08
151.00 41.03
152.00 38.74
153.00 38.68
154.00 40.84
155.00 43.18
156.00 42.42
157.00 42.50
158.00 44.31
159.00 41.25
160.00 37.27
161.00 35.67
162.00 36.00
163.00 37.16
164.00 37.36
165.00 36.94
166.00 37.39
167.00 38.37
168.00 37.93
169.00 36.14
170.00 34.66
171.00 33.90
172.00 33.80
173.00 34.28
174.00 35.13
175.00 35.69
176.00 35.24
177.00 33.92
178.00 32.58
179.00 31.91
180.00 32.37
181.00 34.39
182.00 38.68
183.00 46.50
184.00 49.08
185.00 47.71
186.00 53.16
187.00 54.38
188.00 44.89
189.00 39.51
190.00 35.74
191.00 33.62
192.00 33.31
193.00 34.98
194.00 39.06
195.00 46.33
196.00 51.35
197.00 50.63
198.00 49.76
199.00 46.48
200.00 42.92
201.00 39.43
202.00 36.95
203.00 36.01
204.00 36.42
205.00 37.38
206.00 37.89
207.00 38.33
208.00 39.26
209.00 39.16
210.00 37.00
211.00 34.62
212.00 32.74
213.00 31.25
214.00 30.12
215.00 29.40
216.00 29.12
217.00 29.25
218.00 29.75
219.00 30.61
220.00 31.98
221.00 34.02
222.00 36.83
223.00 40.36
224.00 44.02
225.00 46.05
226.00 44.49
227.00 41.15
228.00 38.12
229.00 36.01
230.00 34.92
231.00 34.82
232.00 35.56
233.00 36.64
234.00 37.06
235.00 36.23
236.00 34.87
237.00 33.81
238.00 33.46
239.00 34.02
240.00 35.53
241.00 37.75
242.00 39.45
243.00 39.03
244.00 37.50
245.00 36.25
246.00 35.63
247.00 35.59
248.00 35.95
249.00 36.50
250.00 37.09
251.00 37.82
252.00 39.08
253.00 41.31
254.00 43.88
255.00 43.31
256.00 40.78
257.00 39.07
258.00 38.17
259.00 37.46
260.00 36.43
261.00 35.08
262.00 33.86
263.00 33.08
264.00 32.86
265.00 33.14
266.00 33.71
267.00 34.27
268.00 34.50
269.00 34.17
270.00 33.27
271.00 32.05
272.00 30.79
273.00 29.68
274.00 28.79
275.00 28.13
276.00 27.63
277.00 27.26
278.00 27.03
279.00 26.98
280.00 27.13
281.00 27.47
282.00 27.87
283.00 28.17
284.00 28.35
285.00 28.62
286.00 29.22
287.00 30.26
288.00 31.76
289.00 33.62
290.00 35.42
291.00 35.34
292.00 32.42
293.00 29.11
294.00 26.62
295.00 25.01
296.00 24.08
297.00 23.52
298.00 23.05
299.00 22.58
300.00 22.27
301.00 22.35
302.00 22.95
303.00 23.93
304.00 24.77
305.00 24.96
306.00 24.54
307.00 23.68
308.00 22.37
309.00 20.85
310.00 19.54
311.00 18.67
312.00 18.26
313.00 18.24
314.00 18.55
315.00 19.19
316.00 20.27
317.00 21.87
318.00 23.85
319.00 25.69
320.00 26.62
321.00 26.55
322.00 25.72
323.00 24.33
324.00 22.74
325.00 21.35
326.00 20.43
327.00 20.16
328.00 20.69
329.00 22.20
330.00 24.86
331.00 27.67
332.00 26.54
333.00 23.52
334.00 21.59
335.00 21.02
336.00 21.87
337.00 24.69
338.00 31.85
339.00 33.19
340.00 24.56
341.00 21.16
342.00 20.33
343.00 21.92
344.00 27.85
345.00 36.50
346.00 22.71
347.00 18.30
348.00 16.45
349.00 16.19
350.00 17.28
351.00 19.89
352.00 24.58
353.00 31.49
354.00 29.30
355.00 22.47
356.00 16.18
357.00 11.04
358.00 7.09
359.00 4.14
