NAME ATR4518R7_0947_X_CO_P45_06T
FREQUENCY 0947
GAIN 14.92 dBd
TILT	ELECTRICAL
COMMENT DATE 05.08.2013 +45 degrees polarized system Lever position 06T deg
HORIZONTAL 360
0.00 0.02
1.00 0.01
2.00 0.00
3.00 0.00
4.00 0.01
5.00 0.02
6.00 0.05
7.00 0.07
8.00 0.11
9.00 0.15
10.00 0.20
11.00 0.25
12.00 0.31
13.00 0.38
14.00 0.45
15.00 0.53
16.00 0.62
17.00 0.71
18.00 0.81
19.00 0.92
20.00 1.03
21.00 1.14
22.00 1.27
23.00 1.40
24.00 1.54
25.00 1.68
26.00 1.83
27.00 1.98
28.00 2.14
29.00 2.31
30.00 2.48
31.00 2.66
32.00 2.85
33.00 3.04
34.00 3.23
35.00 3.44
36.00 3.64
37.00 3.85
38.00 4.07
39.00 4.30
40.00 4.53
41.00 4.76
42.00 5.00
43.00 5.24
44.00 5.50
45.00 5.75
46.00 6.01
47.00 6.27
48.00 6.54
49.00 6.82
50.00 7.10
51.00 7.38
52.00 7.67
53.00 7.97
54.00 8.27
55.00 8.57
56.00 8.88
57.00 9.20
58.00 9.52
59.00 9.84
60.00 10.17
61.00 10.51
62.00 10.85
63.00 11.20
64.00 11.55
65.00 11.91
66.00 12.27
67.00 12.64
68.00 13.02
69.00 13.40
70.00 13.79
71.00 14.19
72.00 14.59
73.00 15.01
74.00 15.43
75.00 15.85
76.00 16.29
77.00 16.73
78.00 17.18
79.00 17.64
80.00 18.11
81.00 18.58
82.00 19.07
83.00 19.56
84.00 20.06
85.00 20.57
86.00 21.09
87.00 21.61
88.00 22.14
89.00 22.68
90.00 23.23
91.00 23.79
92.00 24.34
93.00 24.91
94.00 25.47
95.00 26.04
96.00 26.60
97.00 27.17
98.00 27.73
99.00 28.28
100.00 28.82
101.00 29.35
102.00 29.85
103.00 30.34
104.00 30.81
105.00 31.24
106.00 31.63
107.00 32.00
108.00 32.32
109.00 32.59
110.00 32.83
111.00 33.02
112.00 33.17
113.00 33.27
114.00 33.34
115.00 33.37
116.00 33.38
117.00 33.35
118.00 33.30
119.00 33.24
120.00 33.16
121.00 33.07
122.00 32.97
123.00 32.87
124.00 32.76
125.00 32.65
126.00 32.55
127.00 32.46
128.00 32.36
129.00 32.29
130.00 32.21
131.00 32.16
132.00 32.11
133.00 32.08
134.00 32.07
135.00 32.07
136.00 32.09
137.00 32.13
138.00 32.18
139.00 32.26
140.00 32.36
141.00 32.48
142.00 32.63
143.00 32.80
144.00 33.00
145.00 33.22
146.00 33.48
147.00 33.77
148.00 34.09
149.00 34.45
150.00 34.84
151.00 35.28
152.00 35.77
153.00 36.30
154.00 36.88
155.00 37.52
156.00 38.22
157.00 38.99
158.00 39.81
159.00 40.70
160.00 41.62
161.00 42.56
162.00 43.46
163.00 44.21
164.00 44.70
165.00 44.83
166.00 44.58
167.00 44.02
168.00 43.29
169.00 42.48
170.00 41.68
171.00 40.91
172.00 40.20
173.00 39.56
174.00 38.98
175.00 38.47
176.00 38.03
177.00 37.64
178.00 37.30
179.00 37.03
180.00 36.80
181.00 36.61
182.00 36.48
183.00 36.38
184.00 36.33
185.00 36.32
186.00 36.34
187.00 36.39
188.00 36.47
189.00 36.58
190.00 36.71
191.00 36.85
192.00 37.00
193.00 37.15
194.00 37.27
195.00 37.38
196.00 37.44
197.00 37.44
198.00 37.38
199.00 37.25
200.00 37.06
201.00 36.79
202.00 36.47
203.00 36.10
204.00 35.70
205.00 35.28
206.00 34.84
207.00 34.40
208.00 33.97
209.00 33.55
210.00 33.15
211.00 32.77
212.00 32.40
213.00 32.06
214.00 31.75
215.00 31.47
216.00 31.20
217.00 30.97
218.00 30.75
219.00 30.57
220.00 30.41
221.00 30.27
222.00 30.16
223.00 30.07
224.00 30.00
225.00 29.96
226.00 29.94
227.00 29.94
228.00 29.96
229.00 30.00
230.00 30.06
231.00 30.15
232.00 30.24
233.00 30.36
234.00 30.49
235.00 30.64
236.00 30.79
237.00 30.96
238.00 31.14
239.00 31.33
240.00 31.52
241.00 31.71
242.00 31.90
243.00 32.10
244.00 32.29
245.00 32.46
246.00 32.63
247.00 32.80
248.00 32.94
249.00 33.08
250.00 33.19
251.00 33.28
252.00 33.36
253.00 33.41
254.00 33.44
255.00 33.45
256.00 33.43
257.00 33.37
258.00 33.28
259.00 33.15
260.00 32.97
261.00 32.75
262.00 32.48
263.00 32.15
264.00 31.77
265.00 31.34
266.00 30.86
267.00 30.35
268.00 29.79
269.00 29.21
270.00 28.61
271.00 27.99
272.00 27.36
273.00 26.72
274.00 26.08
275.00 25.44
276.00 24.82
277.00 24.19
278.00 23.57
279.00 22.97
280.00 22.37
281.00 21.79
282.00 21.21
283.00 20.65
284.00 20.10
285.00 19.56
286.00 19.03
287.00 18.51
288.00 18.00
289.00 17.51
290.00 17.02
291.00 16.55
292.00 16.07
293.00 15.62
294.00 15.17
295.00 14.73
296.00 14.29
297.00 13.87
298.00 13.45
299.00 13.04
300.00 12.63
301.00 12.24
302.00 11.85
303.00 11.47
304.00 11.09
305.00 10.72
306.00 10.36
307.00 10.00
308.00 9.65
309.00 9.30
310.00 8.96
311.00 8.63
312.00 8.30
313.00 7.98
314.00 7.67
315.00 7.36
316.00 7.06
317.00 6.76
318.00 6.47
319.00 6.18
320.00 5.90
321.00 5.63
322.00 5.37
323.00 5.10
324.00 4.85
325.00 4.60
326.00 4.36
327.00 4.13
328.00 3.90
329.00 3.68
330.00 3.46
331.00 3.25
332.00 3.05
333.00 2.85
334.00 2.66
335.00 2.47
336.00 2.30
337.00 2.13
338.00 1.96
339.00 1.80
340.00 1.65
341.00 1.51
342.00 1.37
343.00 1.24
344.00 1.11
345.00 1.00
346.00 0.88
347.00 0.78
348.00 0.68
349.00 0.59
350.00 0.50
351.00 0.43
352.00 0.35
353.00 0.29
354.00 0.23
355.00 0.18
356.00 0.13
357.00 0.10
358.00 0.06
359.00 0.04
VERTICAL 360
0.00 8.03
1.00 5.44
2.00 3.46
3.00 1.97
4.00 0.92
5.00 0.27
6.00 0.00
7.00 0.12
8.00 0.64
9.00 1.58
10.00 2.97
11.00 4.89
12.00 7.42
13.00 10.72
14.00 14.97
15.00 19.87
16.00 22.06
17.00 20.85
18.00 20.32
19.00 21.42
20.00 24.67
21.00 32.57
22.00 37.16
23.00 27.01
24.00 23.55
25.00 22.29
26.00 22.48
27.00 24.02
28.00 27.21
29.00 33.19
30.00 44.18
31.00 35.22
32.00 30.61
33.00 28.45
34.00 27.69
35.00 27.75
36.00 27.30
37.00 25.25
38.00 22.72
39.00 20.76
40.00 19.54
41.00 18.95
42.00 18.78
43.00 18.87
44.00 19.17
45.00 19.72
46.00 20.63
47.00 22.05
48.00 24.14
49.00 26.99
50.00 30.25
51.00 32.51
52.00 33.03
53.00 33.28
54.00 33.32
55.00 32.16
56.00 30.67
57.00 30.08
58.00 30.82
59.00 33.17
60.00 37.06
61.00 37.73
62.00 34.96
63.00 33.94
64.00 35.05
65.00 37.33
66.00 36.02
67.00 32.70
68.00 31.13
69.00 31.76
70.00 35.40
71.00 48.73
72.00 37.71
73.00 31.86
74.00 30.12
75.00 30.93
76.00 34.33
77.00 37.09
78.00 32.93
79.00 30.37
80.00 30.26
81.00 31.97
82.00 32.33
83.00 29.19
84.00 26.30
85.00 25.22
86.00 26.32
87.00 29.70
88.00 33.16
89.00 30.42
90.00 27.28
91.00 25.54
92.00 25.80
93.00 28.16
94.00 32.72
95.00 39.54
96.00 31.70
97.00 27.26
98.00 26.43
99.00 28.67
100.00 35.35
101.00 45.55
102.00 35.54
103.00 32.98
104.00 33.70
105.00 38.16
106.00 38.85
107.00 34.01
108.00 33.24
109.00 36.34
110.00 48.32
111.00 40.75
112.00 34.11
113.00 32.10
114.00 32.89
115.00 36.28
116.00 38.22
117.00 34.51
118.00 32.35
119.00 32.48
120.00 34.78
121.00 38.03
122.00 36.18
123.00 33.22
124.00 32.60
125.00 34.47
126.00 38.84
127.00 40.96
128.00 37.85
129.00 36.26
130.00 37.24
131.00 42.48
132.00 48.95
133.00 39.40
134.00 36.66
135.00 36.81
136.00 38.35
137.00 38.69
138.00 36.63
139.00 34.88
140.00 34.26
141.00 34.53
142.00 35.67
143.00 37.93
144.00 41.07
145.00 43.79
146.00 45.73
147.00 46.55
148.00 48.06
149.00 58.97
150.00 49.31
151.00 41.97
152.00 38.61
153.00 36.49
154.00 35.10
155.00 34.33
156.00 33.82
157.00 33.41
158.00 33.08
159.00 32.73
160.00 32.58
161.00 33.13
162.00 34.58
163.00 36.74
164.00 39.51
165.00 43.40
166.00 50.19
167.00 47.84
168.00 40.55
169.00 37.02
170.00 35.46
171.00 34.88
172.00 34.76
173.00 35.18
174.00 36.43
175.00 38.07
176.00 39.35
177.00 37.98
178.00 35.97
179.00 35.35
180.00 36.28
181.00 38.26
182.00 40.41
183.00 42.49
184.00 44.35
185.00 42.58
186.00 39.11
187.00 37.46
188.00 37.83
189.00 39.55
190.00 40.42
191.00 38.93
192.00 36.69
193.00 34.57
194.00 32.96
195.00 32.26
196.00 32.80
197.00 34.66
198.00 37.08
199.00 37.97
200.00 37.29
201.00 36.64
202.00 36.34
203.00 36.48
204.00 37.45
205.00 39.02
206.00 38.34
207.00 35.47
208.00 33.16
209.00 31.60
210.00 30.37
211.00 29.34
212.00 28.76
213.00 28.93
214.00 29.95
215.00 31.43
216.00 32.62
217.00 33.26
218.00 33.69
219.00 34.26
220.00 35.14
221.00 36.26
222.00 37.68
223.00 39.92
224.00 42.48
225.00 42.24
226.00 40.30
227.00 38.79
228.00 37.64
229.00 36.95
230.00 36.94
231.00 37.22
232.00 36.83
233.00 35.45
234.00 33.83
235.00 32.79
236.00 32.78
237.00 33.91
238.00 35.99
239.00 38.72
240.00 41.12
241.00 41.16
242.00 40.13
243.00 39.94
244.00 40.71
245.00 39.63
246.00 35.81
247.00 33.10
248.00 32.13
249.00 32.22
250.00 32.20
251.00 31.38
252.00 30.44
253.00 30.40
254.00 31.75
255.00 34.17
256.00 35.93
257.00 35.07
258.00 33.23
259.00 32.83
260.00 34.83
261.00 39.45
262.00 44.14
263.00 42.61
264.00 40.02
265.00 41.78
266.00 44.59
267.00 35.61
268.00 32.42
269.00 32.94
270.00 36.17
271.00 42.33
272.00 42.83
273.00 33.85
274.00 30.51
275.00 30.64
276.00 33.82
277.00 40.69
278.00 39.54
279.00 32.75
280.00 29.97
281.00 30.14
282.00 32.97
283.00 38.66
284.00 45.63
285.00 38.98
286.00 35.89
287.00 37.32
288.00 43.83
289.00 41.79
290.00 38.18
291.00 38.55
292.00 43.85
293.00 47.38
294.00 35.37
295.00 31.46
296.00 30.77
297.00 32.39
298.00 35.33
299.00 34.33
300.00 30.66
301.00 28.76
302.00 28.87
303.00 30.85
304.00 34.64
305.00 37.99
306.00 37.28
307.00 38.10
308.00 42.58
309.00 37.84
310.00 32.72
311.00 30.59
312.00 30.59
313.00 32.72
314.00 37.06
315.00 40.62
316.00 41.83
317.00 38.09
318.00 30.89
319.00 26.14
320.00 23.24
321.00 21.73
322.00 21.34
323.00 21.57
324.00 21.67
325.00 21.39
326.00 21.27
327.00 22.00
328.00 24.07
329.00 28.01
330.00 34.77
331.00 46.36
332.00 50.28
333.00 42.13
334.00 36.30
335.00 33.53
336.00 33.33
337.00 35.54
338.00 37.57
339.00 34.88
340.00 32.24
341.00 30.35
342.00 28.30
343.00 26.06
344.00 23.96
345.00 22.13
346.00 20.63
347.00 19.62
348.00 19.31
349.00 19.90
350.00 21.55
351.00 24.27
352.00 26.66
353.00 25.64
354.00 23.55
355.00 22.61
356.00 22.39
357.00 20.12
358.00 15.59
359.00 11.37
