NAME ATR4518R7_0894_X_CO_P45_02T
FREQUENCY 0894
GAIN 14.60 dBd
TILT	ELECTRICAL
COMMENT DATE 05.08.2013 +45 degrees polarized system Lever position 02T deg
HORIZONTAL 360
0.00 0.00
1.00 0.00
2.00 0.00
3.00 0.01
4.00 0.02
5.00 0.04
6.00 0.07
7.00 0.10
8.00 0.14
9.00 0.18
10.00 0.23
11.00 0.29
12.00 0.35
13.00 0.42
14.00 0.50
15.00 0.58
16.00 0.67
17.00 0.76
18.00 0.86
19.00 0.97
20.00 1.08
21.00 1.20
22.00 1.32
23.00 1.46
24.00 1.59
25.00 1.74
26.00 1.89
27.00 2.04
28.00 2.20
29.00 2.37
30.00 2.54
31.00 2.73
32.00 2.91
33.00 3.10
34.00 3.30
35.00 3.51
36.00 3.72
37.00 3.93
38.00 4.16
39.00 4.39
40.00 4.62
41.00 4.86
42.00 5.11
43.00 5.36
44.00 5.62
45.00 5.89
46.00 6.16
47.00 6.43
48.00 6.72
49.00 7.01
50.00 7.30
51.00 7.60
52.00 7.91
53.00 8.22
54.00 8.54
55.00 8.87
56.00 9.20
57.00 9.53
58.00 9.88
59.00 10.23
60.00 10.58
61.00 10.94
62.00 11.31
63.00 11.68
64.00 12.06
65.00 12.45
66.00 12.84
67.00 13.24
68.00 13.64
69.00 14.06
70.00 14.47
71.00 14.90
72.00 15.33
73.00 15.77
74.00 16.22
75.00 16.67
76.00 17.13
77.00 17.60
78.00 18.08
79.00 18.57
80.00 19.06
81.00 19.56
82.00 20.07
83.00 20.59
84.00 21.12
85.00 21.66
86.00 22.21
87.00 22.76
88.00 23.33
89.00 23.91
90.00 24.49
91.00 25.09
92.00 25.69
93.00 26.30
94.00 26.91
95.00 27.54
96.00 28.16
97.00 28.78
98.00 29.39
99.00 29.99
100.00 30.58
101.00 31.13
102.00 31.66
103.00 32.14
104.00 32.56
105.00 32.93
106.00 33.23
107.00 33.45
108.00 33.62
109.00 33.71
110.00 33.75
111.00 33.74
112.00 33.69
113.00 33.60
114.00 33.50
115.00 33.38
116.00 33.25
117.00 33.12
118.00 33.00
119.00 32.88
120.00 32.77
121.00 32.67
122.00 32.58
123.00 32.51
124.00 32.44
125.00 32.40
126.00 32.37
127.00 32.36
128.00 32.36
129.00 32.38
130.00 32.42
131.00 32.48
132.00 32.55
133.00 32.65
134.00 32.77
135.00 32.91
136.00 33.07
137.00 33.26
138.00 33.46
139.00 33.70
140.00 33.96
141.00 34.25
142.00 34.58
143.00 34.93
144.00 35.33
145.00 35.76
146.00 36.24
147.00 36.77
148.00 37.35
149.00 38.00
150.00 38.72
151.00 39.51
152.00 40.39
153.00 41.35
154.00 42.42
155.00 43.58
156.00 44.81
157.00 45.97
158.00 46.87
159.00 47.20
160.00 46.82
161.00 45.90
162.00 44.70
163.00 43.44
164.00 42.24
165.00 41.12
166.00 40.11
167.00 39.20
168.00 38.37
169.00 37.62
170.00 36.94
171.00 36.33
172.00 35.77
173.00 35.27
174.00 34.81
175.00 34.39
176.00 34.02
177.00 33.68
178.00 33.38
179.00 33.10
180.00 32.86
181.00 32.65
182.00 32.47
183.00 32.31
184.00 32.18
185.00 32.07
186.00 31.98
187.00 31.92
188.00 31.89
189.00 31.86
190.00 31.87
191.00 31.89
192.00 31.94
193.00 32.00
194.00 32.09
195.00 32.19
196.00 32.31
197.00 32.45
198.00 32.61
199.00 32.79
200.00 32.99
201.00 33.20
202.00 33.43
203.00 33.67
204.00 33.93
205.00 34.21
206.00 34.50
207.00 34.80
208.00 35.13
209.00 35.46
210.00 35.80
211.00 36.16
212.00 36.53
213.00 36.90
214.00 37.29
215.00 37.68
216.00 38.08
217.00 38.48
218.00 38.89
219.00 39.29
220.00 39.69
221.00 40.10
222.00 40.48
223.00 40.87
224.00 41.23
225.00 41.56
226.00 41.86
227.00 42.11
228.00 42.29
229.00 42.42
230.00 42.45
231.00 42.40
232.00 42.25
233.00 42.00
234.00 41.68
235.00 41.27
236.00 40.81
237.00 40.29
238.00 39.74
239.00 39.16
240.00 38.56
241.00 37.96
242.00 37.35
243.00 36.74
244.00 36.14
245.00 35.55
246.00 34.96
247.00 34.37
248.00 33.80
249.00 33.23
250.00 32.67
251.00 32.11
252.00 31.56
253.00 31.02
254.00 30.49
255.00 29.95
256.00 29.42
257.00 28.90
258.00 28.38
259.00 27.86
260.00 27.35
261.00 26.84
262.00 26.33
263.00 25.83
264.00 25.33
265.00 24.83
266.00 24.34
267.00 23.85
268.00 23.37
269.00 22.89
270.00 22.42
271.00 21.95
272.00 21.48
273.00 21.02
274.00 20.57
275.00 20.12
276.00 19.68
277.00 19.24
278.00 18.81
279.00 18.38
280.00 17.96
281.00 17.54
282.00 17.13
283.00 16.73
284.00 16.33
285.00 15.93
286.00 15.54
287.00 15.16
288.00 14.78
289.00 14.41
290.00 14.04
291.00 13.68
292.00 13.32
293.00 12.96
294.00 12.61
295.00 12.27
296.00 11.93
297.00 11.59
298.00 11.26
299.00 10.93
300.00 10.61
301.00 10.29
302.00 9.97
303.00 9.66
304.00 9.35
305.00 9.05
306.00 8.75
307.00 8.46
308.00 8.17
309.00 7.88
310.00 7.60
311.00 7.32
312.00 7.05
313.00 6.78
314.00 6.51
315.00 6.25
316.00 6.00
317.00 5.75
318.00 5.50
319.00 5.26
320.00 5.02
321.00 4.79
322.00 4.56
323.00 4.34
324.00 4.12
325.00 3.91
326.00 3.70
327.00 3.50
328.00 3.30
329.00 3.11
330.00 2.93
331.00 2.74
332.00 2.57
333.00 2.40
334.00 2.23
335.00 2.08
336.00 1.92
337.00 1.77
338.00 1.63
339.00 1.50
340.00 1.37
341.00 1.24
342.00 1.12
343.00 1.01
344.00 0.90
345.00 0.80
346.00 0.71
347.00 0.62
348.00 0.53
349.00 0.46
350.00 0.38
351.00 0.32
352.00 0.26
353.00 0.21
354.00 0.16
355.00 0.12
356.00 0.08
357.00 0.05
358.00 0.03
359.00 0.01
VERTICAL 360
0.00 0.87
1.00 0.25
2.00 0.00
3.00 0.11
4.00 0.60
5.00 1.51
6.00 2.87
7.00 4.79
8.00 7.38
9.00 10.88
10.00 15.82
11.00 24.03
12.00 39.79
13.00 25.92
14.00 23.57
15.00 24.45
16.00 28.55
17.00 37.04
18.00 28.15
19.00 22.96
20.00 20.46
21.00 19.43
22.00 19.45
23.00 20.44
24.00 22.51
25.00 26.04
26.00 31.00
27.00 31.05
28.00 27.72
29.00 26.37
30.00 27.04
31.00 30.00
32.00 36.67
33.00 33.40
34.00 26.11
35.00 21.57
36.00 18.38
37.00 16.07
38.00 14.51
39.00 13.62
40.00 13.32
41.00 13.52
42.00 14.08
43.00 14.89
44.00 15.87
45.00 17.11
46.00 18.74
47.00 20.93
48.00 23.76
49.00 27.20
50.00 31.17
51.00 36.51
52.00 49.32
53.00 40.84
54.00 34.43
55.00 31.83
56.00 31.01
57.00 31.35
58.00 32.31
59.00 33.12
60.00 33.36
61.00 33.79
62.00 35.48
63.00 39.62
64.00 50.20
65.00 45.27
66.00 38.16
67.00 34.66
68.00 33.05
69.00 33.10
70.00 34.41
71.00 35.30
72.00 34.47
73.00 33.61
74.00 33.65
75.00 34.48
76.00 35.33
77.00 33.71
78.00 30.35
79.00 27.76
80.00 26.42
81.00 26.30
82.00 27.42
83.00 29.73
84.00 30.61
85.00 29.00
86.00 26.99
87.00 25.74
88.00 25.57
89.00 26.44
90.00 28.21
91.00 30.93
92.00 34.72
93.00 37.85
94.00 34.58
95.00 31.45
96.00 30.11
97.00 30.13
98.00 31.18
99.00 33.03
100.00 35.71
101.00 39.50
102.00 41.40
103.00 38.20
104.00 35.80
105.00 34.93
106.00 35.16
107.00 36.09
108.00 37.02
109.00 36.83
110.00 35.97
111.00 35.69
112.00 36.43
113.00 38.18
114.00 40.43
115.00 40.70
116.00 38.56
117.00 37.05
118.00 37.04
119.00 38.35
120.00 40.60
121.00 43.15
122.00 44.22
123.00 42.21
124.00 39.83
125.00 38.44
126.00 37.88
127.00 37.80
128.00 37.97
129.00 38.14
130.00 37.89
131.00 37.07
132.00 36.21
133.00 35.90
134.00 36.51
135.00 38.34
136.00 42.02
137.00 48.59
138.00 47.06
139.00 41.98
140.00 39.63
141.00 38.60
142.00 38.11
143.00 37.94
144.00 38.15
145.00 38.65
146.00 39.07
147.00 39.31
148.00 39.62
149.00 40.18
150.00 40.82
151.00 41.35
152.00 41.70
153.00 41.26
154.00 39.55
155.00 37.83
156.00 37.21
157.00 37.83
158.00 39.02
159.00 39.91
160.00 41.04
161.00 43.84
162.00 49.44
163.00 57.51
164.00 59.75
165.00 49.28
166.00 43.50
167.00 41.07
168.00 41.06
169.00 43.00
170.00 45.18
171.00 43.25
172.00 39.50
173.00 36.51
174.00 34.37
175.00 33.00
176.00 32.30
177.00 32.19
178.00 32.56
179.00 32.96
180.00 33.55
181.00 34.31
182.00 35.42
183.00 37.20
184.00 40.03
185.00 44.03
186.00 46.06
187.00 43.76
188.00 41.56
189.00 40.26
190.00 39.53
191.00 39.03
192.00 38.45
193.00 37.87
194.00 37.71
195.00 38.22
196.00 39.23
197.00 40.08
198.00 40.08
199.00 39.64
200.00 39.70
201.00 40.82
202.00 43.43
203.00 47.89
204.00 50.98
205.00 47.55
206.00 44.97
207.00 44.37
208.00 45.70
209.00 47.01
210.00 42.33
211.00 37.21
212.00 33.78
213.00 31.71
214.00 30.71
215.00 30.62
216.00 31.30
217.00 32.62
218.00 34.52
219.00 36.79
220.00 38.11
221.00 36.58
222.00 34.11
223.00 32.36
224.00 31.52
225.00 31.40
226.00 31.72
227.00 32.06
228.00 31.98
229.00 31.39
230.00 30.65
231.00 30.24
232.00 30.48
233.00 31.56
234.00 33.61
235.00 36.42
236.00 38.47
237.00 37.79
238.00 36.03
239.00 34.82
240.00 34.67
241.00 35.97
242.00 39.52
243.00 48.44
244.00 51.78
245.00 43.39
246.00 41.53
247.00 41.38
248.00 40.38
249.00 38.41
250.00 37.26
251.00 37.87
252.00 40.79
253.00 45.30
254.00 43.09
255.00 39.76
256.00 38.42
257.00 38.57
258.00 40.13
259.00 41.60
260.00 38.72
261.00 35.14
262.00 33.01
263.00 32.04
264.00 31.90
265.00 32.34
266.00 32.72
267.00 31.86
268.00 29.97
269.00 28.28
270.00 27.24
271.00 26.87
272.00 27.07
273.00 27.55
274.00 27.82
275.00 27.52
276.00 26.89
277.00 26.36
278.00 26.11
279.00 26.09
280.00 26.02
281.00 25.79
282.00 25.56
283.00 25.63
284.00 26.17
285.00 27.18
286.00 28.47
287.00 29.43
288.00 29.58
289.00 29.47
290.00 29.98
291.00 31.71
292.00 35.28
293.00 40.76
294.00 38.88
295.00 35.00
296.00 33.68
297.00 34.23
298.00 35.58
299.00 35.63
300.00 34.03
301.00 32.68
302.00 32.44
303.00 33.57
304.00 36.34
305.00 41.13
306.00 47.68
307.00 42.49
308.00 34.74
309.00 29.17
310.00 25.14
311.00 22.31
312.00 20.41
313.00 19.23
314.00 18.48
315.00 17.87
316.00 17.17
317.00 16.45
318.00 15.92
319.00 15.81
320.00 16.22
321.00 17.14
322.00 18.42
323.00 19.75
324.00 20.83
325.00 21.70
326.00 22.78
327.00 24.43
328.00 26.78
329.00 29.61
330.00 32.33
331.00 34.26
332.00 35.20
333.00 36.01
334.00 38.44
335.00 44.08
336.00 36.71
337.00 29.84
338.00 25.73
339.00 23.15
340.00 21.59
341.00 20.76
342.00 20.53
343.00 20.95
344.00 22.27
345.00 25.09
346.00 30.92
347.00 34.48
348.00 27.00
349.00 23.62
350.00 22.86
351.00 24.63
352.00 28.23
353.00 22.21
354.00 15.62
355.00 11.09
356.00 7.76
357.00 5.24
358.00 3.31
359.00 1.87
