NAME ATR4518R7_0806_X_CO_P45_01T
FREQUENCY 0806
GAIN 14.25 dBd
TILT	ELECTRICAL
COMMENT DATE 05.08.2013 +45 degrees polarized system Lever position 01T deg
HORIZONTAL 360
0.00 0.00
1.00 0.01
2.00 0.02
3.00 0.04
4.00 0.06
5.00 0.09
6.00 0.13
7.00 0.17
8.00 0.21
9.00 0.27
10.00 0.32
11.00 0.39
12.00 0.46
13.00 0.53
14.00 0.61
15.00 0.70
16.00 0.79
17.00 0.88
18.00 0.99
19.00 1.10
20.00 1.21
21.00 1.33
22.00 1.45
23.00 1.58
24.00 1.72
25.00 1.86
26.00 2.01
27.00 2.16
28.00 2.32
29.00 2.48
30.00 2.65
31.00 2.82
32.00 3.00
33.00 3.19
34.00 3.38
35.00 3.57
36.00 3.77
37.00 3.98
38.00 4.19
39.00 4.40
40.00 4.62
41.00 4.85
42.00 5.08
43.00 5.32
44.00 5.56
45.00 5.80
46.00 6.06
47.00 6.31
48.00 6.57
49.00 6.84
50.00 7.11
51.00 7.38
52.00 7.66
53.00 7.94
54.00 8.23
55.00 8.52
56.00 8.82
57.00 9.12
58.00 9.42
59.00 9.73
60.00 10.04
61.00 10.36
62.00 10.67
63.00 11.00
64.00 11.33
65.00 11.66
66.00 12.00
67.00 12.34
68.00 12.68
69.00 13.03
70.00 13.38
71.00 13.73
72.00 14.09
73.00 14.46
74.00 14.83
75.00 15.20
76.00 15.58
77.00 15.96
78.00 16.35
79.00 16.74
80.00 17.14
81.00 17.55
82.00 17.96
83.00 18.38
84.00 18.80
85.00 19.23
86.00 19.67
87.00 20.12
88.00 20.58
89.00 21.04
90.00 21.52
91.00 22.00
92.00 22.50
93.00 23.00
94.00 23.52
95.00 24.04
96.00 24.58
97.00 25.12
98.00 25.67
99.00 26.23
100.00 26.80
101.00 27.37
102.00 27.93
103.00 28.49
104.00 29.04
105.00 29.57
106.00 30.07
107.00 30.53
108.00 30.94
109.00 31.29
110.00 31.57
111.00 31.79
112.00 31.92
113.00 31.98
114.00 31.98
115.00 31.92
116.00 31.81
117.00 31.66
118.00 31.49
119.00 31.30
120.00 31.11
121.00 30.90
122.00 30.70
123.00 30.50
124.00 30.31
125.00 30.13
126.00 29.97
127.00 29.81
128.00 29.66
129.00 29.53
130.00 29.41
131.00 29.31
132.00 29.21
133.00 29.13
134.00 29.07
135.00 29.01
136.00 28.97
137.00 28.93
138.00 28.91
139.00 28.90
140.00 28.90
141.00 28.92
142.00 28.94
143.00 28.97
144.00 29.01
145.00 29.06
146.00 29.11
147.00 29.18
148.00 29.26
149.00 29.34
150.00 29.43
151.00 29.54
152.00 29.64
153.00 29.76
154.00 29.89
155.00 30.02
156.00 30.16
157.00 30.31
158.00 30.46
159.00 30.62
160.00 30.80
161.00 30.98
162.00 31.16
163.00 31.36
164.00 31.56
165.00 31.77
166.00 31.99
167.00 32.22
168.00 32.46
169.00 32.71
170.00 32.97
171.00 33.24
172.00 33.51
173.00 33.81
174.00 34.11
175.00 34.43
176.00 34.77
177.00 35.11
178.00 35.48
179.00 35.86
180.00 36.26
181.00 36.69
182.00 37.13
183.00 37.60
184.00 38.10
185.00 38.63
186.00 39.19
187.00 39.79
188.00 40.43
189.00 41.11
190.00 41.85
191.00 42.64
192.00 43.49
193.00 44.41
194.00 45.39
195.00 46.43
196.00 47.51
197.00 48.58
198.00 49.53
199.00 50.23
200.00 50.50
201.00 50.29
202.00 49.68
203.00 48.82
204.00 47.87
205.00 46.92
206.00 46.00
207.00 45.16
208.00 44.39
209.00 43.69
210.00 43.04
211.00 42.47
212.00 41.96
213.00 41.49
214.00 41.08
215.00 40.72
216.00 40.40
217.00 40.12
218.00 39.88
219.00 39.69
220.00 39.53
221.00 39.41
222.00 39.32
223.00 39.28
224.00 39.27
225.00 39.29
226.00 39.35
227.00 39.43
228.00 39.55
229.00 39.68
230.00 39.83
231.00 39.97
232.00 40.10
233.00 40.18
234.00 40.21
235.00 40.13
236.00 39.93
237.00 39.59
238.00 39.13
239.00 38.53
240.00 37.83
241.00 37.05
242.00 36.23
243.00 35.38
244.00 34.52
245.00 33.66
246.00 32.82
247.00 32.00
248.00 31.20
249.00 30.43
250.00 29.68
251.00 28.95
252.00 28.26
253.00 27.58
254.00 26.93
255.00 26.30
256.00 25.69
257.00 25.11
258.00 24.54
259.00 23.99
260.00 23.45
261.00 22.94
262.00 22.44
263.00 21.95
264.00 21.48
265.00 21.02
266.00 20.57
267.00 20.13
268.00 19.71
269.00 19.30
270.00 18.89
271.00 18.50
272.00 18.11
273.00 17.74
274.00 17.37
275.00 17.00
276.00 16.65
277.00 16.30
278.00 15.96
279.00 15.62
280.00 15.28
281.00 14.96
282.00 14.63
283.00 14.31
284.00 13.99
285.00 13.68
286.00 13.37
287.00 13.06
288.00 12.76
289.00 12.45
290.00 12.15
291.00 11.86
292.00 11.56
293.00 11.27
294.00 10.97
295.00 10.69
296.00 10.40
297.00 10.11
298.00 9.83
299.00 9.54
300.00 9.27
301.00 8.98
302.00 8.71
303.00 8.44
304.00 8.16
305.00 7.90
306.00 7.63
307.00 7.37
308.00 7.11
309.00 6.85
310.00 6.59
311.00 6.35
312.00 6.10
313.00 5.86
314.00 5.62
315.00 5.38
316.00 5.15
317.00 4.92
318.00 4.70
319.00 4.48
320.00 4.27
321.00 4.06
322.00 3.85
323.00 3.65
324.00 3.46
325.00 3.27
326.00 3.08
327.00 2.90
328.00 2.73
329.00 2.56
330.00 2.39
331.00 2.23
332.00 2.08
333.00 1.93
334.00 1.79
335.00 1.65
336.00 1.51
337.00 1.39
338.00 1.27
339.00 1.15
340.00 1.04
341.00 0.93
342.00 0.83
343.00 0.74
344.00 0.65
345.00 0.57
346.00 0.49
347.00 0.42
348.00 0.35
349.00 0.29
350.00 0.24
351.00 0.19
352.00 0.14
353.00 0.11
354.00 0.07
355.00 0.05
356.00 0.03
357.00 0.01
358.00 0.00
359.00 0.00
VERTICAL 360
0.00 0.11
1.00 0.00
2.00 0.18
3.00 0.67
4.00 1.49
5.00 2.66
6.00 4.24
7.00 6.32
8.00 9.03
9.00 12.62
10.00 17.64
11.00 25.74
12.00 33.63
13.00 26.61
14.00 24.80
15.00 25.81
16.00 29.78
17.00 38.41
18.00 30.21
19.00 24.55
20.00 21.63
21.00 20.15
22.00 19.69
23.00 20.14
24.00 21.52
25.00 24.08
26.00 28.44
27.00 35.12
28.00 32.59
29.00 27.90
30.00 25.60
31.00 24.79
32.00 25.20
33.00 26.98
34.00 30.82
35.00 35.02
36.00 28.93
37.00 23.74
38.00 20.39
39.00 18.11
40.00 16.52
41.00 15.45
42.00 14.76
43.00 14.41
44.00 14.32
45.00 14.49
46.00 14.88
47.00 15.50
48.00 16.33
49.00 17.38
50.00 18.66
51.00 20.17
52.00 21.90
53.00 23.81
54.00 25.83
55.00 27.83
56.00 29.62
57.00 30.94
58.00 31.81
59.00 32.57
60.00 33.52
61.00 34.56
62.00 35.27
63.00 35.51
64.00 35.43
65.00 34.95
66.00 34.01
67.00 33.10
68.00 32.83
69.00 33.48
70.00 35.14
71.00 37.61
72.00 39.94
73.00 40.15
74.00 37.66
75.00 34.32
76.00 31.48
77.00 29.49
78.00 28.36
79.00 27.97
80.00 28.15
81.00 28.69
82.00 29.29
83.00 29.68
84.00 29.75
85.00 29.62
86.00 29.53
87.00 29.71
88.00 30.36
89.00 31.54
90.00 33.04
91.00 34.10
92.00 33.90
93.00 32.93
94.00 32.02
95.00 31.44
96.00 31.14
97.00 30.97
98.00 30.84
99.00 30.73
100.00 30.68
101.00 30.83
102.00 31.36
103.00 32.45
104.00 34.24
105.00 36.81
106.00 40.12
107.00 43.78
108.00 46.52
109.00 46.54
110.00 44.47
111.00 42.08
112.00 40.04
113.00 38.48
114.00 37.46
115.00 37.09
116.00 37.45
117.00 38.53
118.00 40.12
119.00 41.59
120.00 42.03
121.00 41.53
122.00 40.87
123.00 40.54
124.00 40.77
125.00 41.74
126.00 43.64
127.00 46.94
128.00 53.71
129.00 62.06
130.00 47.71
131.00 42.05
132.00 38.52
133.00 36.12
134.00 34.48
135.00 33.43
136.00 32.89
137.00 32.86
138.00 33.45
139.00 34.88
140.00 37.58
141.00 42.77
142.00 52.63
143.00 43.18
144.00 37.98
145.00 35.34
146.00 34.00
147.00 33.57
148.00 33.94
149.00 35.17
150.00 37.51
151.00 41.64
152.00 50.54
153.00 51.30
154.00 42.59
155.00 38.63
156.00 36.23
157.00 34.72
158.00 33.92
159.00 33.77
160.00 34.23
161.00 35.23
162.00 36.53
163.00 37.65
164.00 38.22
165.00 38.51
166.00 39.22
167.00 40.94
168.00 44.29
169.00 49.28
170.00 47.84
171.00 43.33
172.00 40.61
173.00 39.06
174.00 38.18
175.00 37.69
176.00 37.41
177.00 37.16
178.00 36.74
179.00 36.06
180.00 35.45
181.00 34.82
182.00 34.32
183.00 34.00
184.00 33.99
185.00 34.27
186.00 34.85
187.00 35.56
188.00 36.39
189.00 37.40
190.00 38.80
191.00 40.42
192.00 41.14
193.00 40.00
194.00 38.38
195.00 37.28
196.00 36.81
197.00 36.79
198.00 36.99
199.00 37.13
200.00 37.06
201.00 36.73
202.00 36.35
203.00 36.17
204.00 36.40
205.00 37.11
206.00 38.20
207.00 39.46
208.00 40.72
209.00 42.08
210.00 43.99
211.00 47.20
212.00 52.74
213.00 53.25
214.00 47.44
215.00 44.26
216.00 42.93
217.00 42.95
218.00 43.97
219.00 45.32
220.00 45.82
221.00 45.14
222.00 43.93
223.00 42.48
224.00 40.92
225.00 39.56
226.00 38.65
227.00 38.31
228.00 38.56
229.00 39.36
230.00 40.43
231.00 40.99
232.00 40.23
233.00 38.65
234.00 37.16
235.00 36.11
236.00 35.52
237.00 35.35
238.00 35.58
239.00 36.15
240.00 36.98
241.00 37.91
242.00 38.77
243.00 39.52
244.00 40.33
245.00 41.44
246.00 42.92
247.00 44.61
248.00 45.95
249.00 46.23
250.00 45.34
251.00 43.94
252.00 42.74
253.00 42.05
254.00 41.72
255.00 41.29
256.00 40.55
257.00 39.97
258.00 40.22
259.00 41.81
260.00 45.09
261.00 47.02
262.00 43.04
263.00 39.48
264.00 37.35
265.00 36.33
266.00 36.29
267.00 37.27
268.00 39.39
269.00 42.73
270.00 47.14
271.00 53.21
272.00 56.65
273.00 45.75
274.00 40.27
275.00 37.41
276.00 36.33
277.00 36.69
278.00 38.26
279.00 40.47
280.00 42.15
281.00 42.87
282.00 43.19
283.00 42.71
284.00 41.38
285.00 40.34
286.00 40.07
287.00 40.25
288.00 40.36
289.00 40.47
290.00 41.22
291.00 42.92
292.00 44.00
293.00 41.56
294.00 37.72
295.00 34.15
296.00 30.99
297.00 28.25
298.00 25.89
299.00 23.89
300.00 22.18
301.00 20.71
302.00 19.45
303.00 18.37
304.00 17.43
305.00 16.63
306.00 15.94
307.00 15.40
308.00 15.02
309.00 14.83
310.00 14.84
311.00 15.07
312.00 15.51
313.00 16.13
314.00 16.89
315.00 17.78
316.00 18.80
317.00 20.00
318.00 21.51
319.00 23.45
320.00 26.04
321.00 29.56
322.00 34.42
323.00 40.94
324.00 45.76
325.00 46.57
326.00 50.52
327.00 56.57
328.00 49.20
329.00 46.11
330.00 43.06
331.00 37.97
332.00 33.38
333.00 30.01
334.00 27.69
335.00 26.25
336.00 25.55
337.00 25.55
338.00 26.23
339.00 27.73
340.00 30.53
341.00 36.60
342.00 47.02
343.00 31.80
344.00 26.30
345.00 23.20
346.00 21.48
347.00 20.96
348.00 21.84
349.00 25.02
350.00 30.87
351.00 22.36
352.00 15.66
353.00 11.25
354.00 8.04
355.00 5.60
356.00 3.72
357.00 2.28
358.00 1.23
359.00 0.51
