NAME ATR4518R7_1850_X_CO_M45_05T_yyR
FREQUENCY 1850
GAIN 15.36 dBd
TILT	ELECTRICAL
COMMENT DATE 05.08.2013 -45 degrees polarized system Lever position 05T deg
HORIZONTAL 360
0.00 0.15
1.00 0.11
2.00 0.08
3.00 0.06
4.00 0.03
5.00 0.02
6.00 0.01
7.00 0.00
8.00 0.01
9.00 0.01
10.00 0.03
11.00 0.05
12.00 0.08
13.00 0.12
14.00 0.16
15.00 0.21
16.00 0.27
17.00 0.34
18.00 0.41
19.00 0.50
20.00 0.59
21.00 0.70
22.00 0.81
23.00 0.93
24.00 1.06
25.00 1.20
26.00 1.35
27.00 1.51
28.00 1.68
29.00 1.86
30.00 2.04
31.00 2.24
32.00 2.45
33.00 2.67
34.00 2.90
35.00 3.14
36.00 3.38
37.00 3.64
38.00 3.91
39.00 4.18
40.00 4.47
41.00 4.77
42.00 5.07
43.00 5.38
44.00 5.70
45.00 6.03
46.00 6.37
47.00 6.72
48.00 7.08
49.00 7.44
50.00 7.81
51.00 8.19
52.00 8.58
53.00 8.97
54.00 9.38
55.00 9.79
56.00 10.20
57.00 10.62
58.00 11.05
59.00 11.49
60.00 11.92
61.00 12.37
62.00 12.81
63.00 13.26
64.00 13.72
65.00 14.17
66.00 14.63
67.00 15.09
68.00 15.54
69.00 16.00
70.00 16.45
71.00 16.91
72.00 17.36
73.00 17.81
74.00 18.25
75.00 18.70
76.00 19.14
77.00 19.58
78.00 20.03
79.00 20.47
80.00 20.92
81.00 21.37
82.00 21.83
83.00 22.30
84.00 22.77
85.00 23.27
86.00 23.77
87.00 24.29
88.00 24.83
89.00 25.39
90.00 25.96
91.00 26.56
92.00 27.17
93.00 27.80
94.00 28.44
95.00 29.08
96.00 29.72
97.00 30.33
98.00 30.91
99.00 31.43
100.00 31.87
101.00 32.22
102.00 32.46
103.00 32.60
104.00 32.64
105.00 32.59
106.00 32.49
107.00 32.34
108.00 32.18
109.00 32.00
110.00 31.83
111.00 31.67
112.00 31.53
113.00 31.41
114.00 31.31
115.00 31.23
116.00 31.18
117.00 31.14
118.00 31.12
119.00 31.12
120.00 31.13
121.00 31.16
122.00 31.20
123.00 31.26
124.00 31.32
125.00 31.40
126.00 31.49
127.00 31.59
128.00 31.72
129.00 31.86
130.00 32.02
131.00 32.21
132.00 32.44
133.00 32.69
134.00 32.99
135.00 33.33
136.00 33.72
137.00 34.18
138.00 34.69
139.00 35.29
140.00 35.97
141.00 36.76
142.00 37.67
143.00 38.73
144.00 39.97
145.00 41.45
146.00 43.26
147.00 45.54
148.00 48.49
149.00 52.32
150.00 55.27
151.00 52.80
152.00 49.10
153.00 46.26
154.00 44.13
155.00 42.47
156.00 41.14
157.00 40.06
158.00 39.18
159.00 38.44
160.00 37.83
161.00 37.33
162.00 36.92
163.00 36.60
164.00 36.36
165.00 36.18
166.00 36.08
167.00 36.04
168.00 36.06
169.00 36.16
170.00 36.32
171.00 36.56
172.00 36.88
173.00 37.28
174.00 37.78
175.00 38.39
176.00 39.14
177.00 40.04
178.00 41.13
179.00 42.48
180.00 44.17
181.00 46.29
182.00 48.95
183.00 51.64
184.00 51.98
185.00 49.33
186.00 46.37
187.00 43.92
188.00 41.95
189.00 40.34
190.00 39.00
191.00 37.87
192.00 36.91
193.00 36.11
194.00 35.42
195.00 34.84
196.00 34.36
197.00 33.97
198.00 33.66
199.00 33.42
200.00 33.26
201.00 33.16
202.00 33.13
203.00 33.17
204.00 33.26
205.00 33.40
206.00 33.59
207.00 33.83
208.00 34.11
209.00 34.40
210.00 34.71
211.00 35.00
212.00 35.25
213.00 35.45
214.00 35.56
215.00 35.57
216.00 35.46
217.00 35.25
218.00 34.96
219.00 34.60
220.00 34.21
221.00 33.80
222.00 33.39
223.00 33.00
224.00 32.63
225.00 32.29
226.00 31.99
227.00 31.73
228.00 31.50
229.00 31.31
230.00 31.15
231.00 31.03
232.00 30.94
233.00 30.88
234.00 30.85
235.00 30.84
236.00 30.84
237.00 30.87
238.00 30.90
239.00 30.93
240.00 30.96
241.00 30.99
242.00 31.00
243.00 30.99
244.00 30.96
245.00 30.89
246.00 30.80
247.00 30.67
248.00 30.51
249.00 30.31
250.00 30.09
251.00 29.83
252.00 29.56
253.00 29.27
254.00 28.96
255.00 28.65
256.00 28.33
257.00 28.00
258.00 27.67
259.00 27.34
260.00 27.01
261.00 26.68
262.00 26.34
263.00 26.01
264.00 25.68
265.00 25.35
266.00 25.02
267.00 24.68
268.00 24.34
269.00 24.00
270.00 23.65
271.00 23.29
272.00 22.93
273.00 22.56
274.00 22.18
275.00 21.80
276.00 21.41
277.00 21.02
278.00 20.63
279.00 20.23
280.00 19.83
281.00 19.43
282.00 19.03
283.00 18.63
284.00 18.23
285.00 17.84
286.00 17.45
287.00 17.06
288.00 16.67
289.00 16.29
290.00 15.92
291.00 15.54
292.00 15.17
293.00 14.81
294.00 14.45
295.00 14.09
296.00 13.73
297.00 13.38
298.00 13.04
299.00 12.69
300.00 12.35
301.00 12.01
302.00 11.68
303.00 11.34
304.00 11.01
305.00 10.68
306.00 10.36
307.00 10.03
308.00 9.71
309.00 9.39
310.00 9.08
311.00 8.76
312.00 8.45
313.00 8.15
314.00 7.84
315.00 7.54
316.00 7.25
317.00 6.96
318.00 6.67
319.00 6.39
320.00 6.12
321.00 5.85
322.00 5.58
323.00 5.32
324.00 5.07
325.00 4.82
326.00 4.58
327.00 4.35
328.00 4.12
329.00 3.90
330.00 3.69
331.00 3.48
332.00 3.28
333.00 3.09
334.00 2.90
335.00 2.72
336.00 2.55
337.00 2.38
338.00 2.22
339.00 2.07
340.00 1.92
341.00 1.78
342.00 1.65
343.00 1.52
344.00 1.40
345.00 1.28
346.00 1.17
347.00 1.07
348.00 0.97
349.00 0.87
350.00 0.78
351.00 0.70
352.00 0.62
353.00 0.54
354.00 0.47
355.00 0.41
356.00 0.35
357.00 0.29
358.00 0.24
359.00 0.19
VERTICAL 360
0.00 10.12
1.00 5.92
2.00 3.11
3.00 1.30
4.00 0.30
5.00 0.00
6.00 0.40
7.00 1.54
8.00 3.58
9.00 6.92
10.00 12.76
11.00 27.06
12.00 18.57
13.00 13.08
14.00 11.66
15.00 12.31
16.00 14.84
17.00 19.69
18.00 22.93
19.00 18.71
20.00 15.76
21.00 14.87
22.00 15.66
23.00 18.38
24.00 24.76
25.00 35.11
26.00 23.76
27.00 19.75
28.00 18.75
29.00 19.71
30.00 22.51
31.00 26.20
32.00 25.22
33.00 21.55
34.00 19.21
35.00 18.12
36.00 18.02
37.00 18.84
38.00 20.69
39.00 23.96
40.00 29.92
41.00 42.31
42.00 35.42
43.00 31.00
44.00 30.76
45.00 33.31
46.00 38.51
47.00 37.05
48.00 31.10
49.00 27.32
50.00 24.73
51.00 22.87
52.00 21.64
53.00 21.12
54.00 21.47
55.00 22.87
56.00 25.61
57.00 30.27
58.00 38.34
59.00 40.58
60.00 34.50
61.00 31.44
62.00 29.73
63.00 28.86
64.00 28.85
65.00 29.72
66.00 31.29
67.00 32.77
68.00 33.35
69.00 33.23
70.00 33.00
71.00 32.67
72.00 32.07
73.00 31.31
74.00 30.78
75.00 30.73
76.00 31.07
77.00 31.36
78.00 31.20
79.00 30.51
80.00 29.60
81.00 28.91
82.00 28.63
83.00 28.58
84.00 28.51
85.00 28.38
86.00 28.19
87.00 27.89
88.00 27.67
89.00 27.96
90.00 28.90
91.00 29.98
92.00 30.17
93.00 29.28
94.00 28.29
95.00 27.91
96.00 28.44
97.00 29.88
98.00 31.96
99.00 33.94
100.00 35.05
101.00 35.38
102.00 35.75
103.00 36.96
104.00 39.48
105.00 43.13
106.00 46.44
107.00 47.68
108.00 46.80
109.00 45.85
110.00 46.23
111.00 46.55
112.00 45.32
113.00 44.64
114.00 45.60
115.00 46.91
116.00 46.93
117.00 46.62
118.00 46.58
119.00 46.40
120.00 46.14
121.00 45.80
122.00 45.17
123.00 43.74
124.00 41.25
125.00 38.99
126.00 37.91
127.00 37.90
128.00 38.10
129.00 37.96
130.00 38.07
131.00 38.80
132.00 39.53
133.00 39.71
134.00 40.34
135.00 42.85
136.00 48.69
137.00 48.05
138.00 41.37
139.00 38.03
140.00 36.62
141.00 36.35
142.00 36.37
143.00 35.81
144.00 34.81
145.00 34.33
146.00 35.10
147.00 37.60
148.00 42.04
149.00 46.94
150.00 52.36
151.00 56.33
152.00 42.82
153.00 37.80
154.00 35.75
155.00 35.45
156.00 36.30
157.00 37.71
158.00 38.63
159.00 38.22
160.00 37.38
161.00 37.05
162.00 36.93
163.00 36.30
164.00 35.44
165.00 35.14
166.00 35.59
167.00 36.26
168.00 36.54
169.00 36.83
170.00 37.91
171.00 39.41
172.00 39.61
173.00 39.27
174.00 40.55
175.00 42.89
176.00 41.96
177.00 40.09
178.00 40.69
179.00 43.39
180.00 44.11
181.00 42.10
182.00 41.40
183.00 42.21
184.00 43.98
185.00 45.49
186.00 43.44
187.00 40.14
188.00 38.67
189.00 39.66
190.00 44.61
191.00 49.05
192.00 40.03
193.00 35.73
194.00 34.05
195.00 33.98
196.00 34.93
197.00 36.22
198.00 37.23
199.00 37.87
200.00 38.19
201.00 37.88
202.00 36.73
203.00 35.20
204.00 34.08
205.00 33.99
206.00 35.56
207.00 40.04
208.00 47.29
209.00 40.47
210.00 35.63
211.00 33.66
212.00 33.06
213.00 33.16
214.00 33.73
215.00 34.90
216.00 36.94
217.00 40.07
218.00 44.24
219.00 48.67
220.00 51.18
221.00 50.58
222.00 49.23
223.00 48.18
224.00 46.47
225.00 43.86
226.00 41.06
227.00 38.47
228.00 36.42
229.00 35.25
230.00 35.14
231.00 36.05
232.00 37.65
233.00 39.06
234.00 39.32
235.00 38.83
236.00 38.84
237.00 40.28
238.00 43.89
239.00 50.58
240.00 57.23
241.00 59.76
242.00 69.69
243.00 59.94
244.00 54.03
245.00 48.26
246.00 44.13
247.00 42.21
248.00 41.62
249.00 41.03
250.00 40.17
251.00 40.05
252.00 41.15
253.00 43.37
254.00 46.28
255.00 48.00
256.00 46.23
257.00 44.36
258.00 43.76
259.00 43.07
260.00 41.82
261.00 41.07
262.00 40.59
263.00 39.59
264.00 39.04
265.00 40.35
266.00 43.67
267.00 44.24
268.00 41.87
269.00 42.00
270.00 45.46
271.00 50.51
272.00 49.93
273.00 50.05
274.00 52.58
275.00 52.12
276.00 51.45
277.00 49.53
278.00 44.31
279.00 40.61
280.00 38.78
281.00 38.07
282.00 37.66
283.00 36.81
284.00 35.14
285.00 32.85
286.00 30.53
287.00 28.62
288.00 27.28
289.00 26.48
290.00 26.10
291.00 25.97
292.00 26.00
293.00 26.22
294.00 26.70
295.00 27.49
296.00 28.61
297.00 30.09
298.00 31.65
299.00 31.95
300.00 29.84
301.00 26.79
302.00 24.12
303.00 22.11
304.00 20.81
305.00 20.17
306.00 20.14
307.00 20.60
308.00 21.41
309.00 22.40
310.00 23.38
311.00 24.18
312.00 24.63
313.00 24.47
314.00 23.64
315.00 22.46
316.00 21.37
317.00 20.71
318.00 20.68
319.00 21.35
320.00 22.70
321.00 24.48
322.00 26.00
323.00 26.41
324.00 25.71
325.00 24.42
326.00 22.94
327.00 21.53
328.00 20.39
329.00 19.71
330.00 19.68
331.00 20.57
332.00 22.88
333.00 27.60
334.00 31.10
335.00 25.15
336.00 20.93
337.00 18.80
338.00 18.04
339.00 18.46
340.00 20.10
341.00 23.08
342.00 26.41
343.00 26.64
344.00 25.35
345.00 25.88
346.00 29.57
347.00 31.58
348.00 24.48
349.00 19.87
350.00 17.49
351.00 16.72
352.00 17.51
353.00 20.36
354.00 27.67
355.00 37.82
356.00 26.52
357.00 26.88
358.00 27.62
359.00 16.76
