NAME ATR4518R7_2140_X_CO_P45_07T_yyR
FREQUENCY 2140
GAIN 15.47 dBd
TILT	ELECTRICAL
COMMENT DATE 05.08.2013 +45 degrees polarized system Lever position 07T deg
HORIZONTAL 360
0.00 0.12
1.00 0.08
2.00 0.06
3.00 0.03
4.00 0.02
5.00 0.01
6.00 0.00
7.00 0.01
8.00 0.02
9.00 0.04
10.00 0.07
11.00 0.10
12.00 0.15
13.00 0.20
14.00 0.26
15.00 0.34
16.00 0.42
17.00 0.51
18.00 0.62
19.00 0.73
20.00 0.85
21.00 0.99
22.00 1.14
23.00 1.29
24.00 1.46
25.00 1.63
26.00 1.82
27.00 2.02
28.00 2.22
29.00 2.44
30.00 2.66
31.00 2.90
32.00 3.14
33.00 3.40
34.00 3.66
35.00 3.93
36.00 4.20
37.00 4.49
38.00 4.78
39.00 5.08
40.00 5.38
41.00 5.70
42.00 6.02
43.00 6.35
44.00 6.68
45.00 7.02
46.00 7.37
47.00 7.73
48.00 8.09
49.00 8.45
50.00 8.83
51.00 9.21
52.00 9.60
53.00 9.99
54.00 10.39
55.00 10.79
56.00 11.20
57.00 11.61
58.00 12.02
59.00 12.44
60.00 12.85
61.00 13.26
62.00 13.67
63.00 14.08
64.00 14.48
65.00 14.87
66.00 15.26
67.00 15.63
68.00 16.00
69.00 16.36
70.00 16.72
71.00 17.06
72.00 17.39
73.00 17.72
74.00 18.05
75.00 18.37
76.00 18.69
77.00 19.00
78.00 19.32
79.00 19.64
80.00 19.96
81.00 20.29
82.00 20.61
83.00 20.95
84.00 21.29
85.00 21.63
86.00 21.98
87.00 22.34
88.00 22.70
89.00 23.06
90.00 23.44
91.00 23.81
92.00 24.20
93.00 24.59
94.00 24.99
95.00 25.41
96.00 25.83
97.00 26.27
98.00 26.73
99.00 27.22
100.00 27.73
101.00 28.27
102.00 28.86
103.00 29.49
104.00 30.17
105.00 30.91
106.00 31.73
107.00 32.62
108.00 33.60
109.00 34.69
110.00 35.90
111.00 37.22
112.00 38.65
113.00 40.15
114.00 41.57
115.00 42.65
116.00 43.09
117.00 42.81
118.00 42.03
119.00 41.09
120.00 40.15
121.00 39.32
122.00 38.61
123.00 38.03
124.00 37.56
125.00 37.20
126.00 36.93
127.00 36.74
128.00 36.62
129.00 36.58
130.00 36.58
131.00 36.63
132.00 36.72
133.00 36.84
134.00 36.99
135.00 37.16
136.00 37.34
137.00 37.54
138.00 37.76
139.00 37.98
140.00 38.21
141.00 38.46
142.00 38.71
143.00 38.97
144.00 39.23
145.00 39.49
146.00 39.72
147.00 39.92
148.00 40.07
149.00 40.14
150.00 40.14
151.00 40.05
152.00 39.87
153.00 39.62
154.00 39.32
155.00 38.98
156.00 38.63
157.00 38.28
158.00 37.96
159.00 37.66
160.00 37.41
161.00 37.21
162.00 37.05
163.00 36.95
164.00 36.92
165.00 36.94
166.00 37.02
167.00 37.17
168.00 37.39
169.00 37.67
170.00 38.03
171.00 38.46
172.00 38.98
173.00 39.58
174.00 40.26
175.00 41.02
176.00 41.85
177.00 42.73
178.00 43.61
179.00 44.40
180.00 44.98
181.00 45.22
182.00 45.08
183.00 44.60
184.00 43.91
185.00 43.15
186.00 42.38
187.00 41.67
188.00 41.03
189.00 40.48
190.00 40.02
191.00 39.64
192.00 39.34
193.00 39.11
194.00 38.94
195.00 38.83
196.00 38.76
197.00 38.71
198.00 38.68
199.00 38.65
200.00 38.61
201.00 38.53
202.00 38.40
203.00 38.24
204.00 38.03
205.00 37.78
206.00 37.50
207.00 37.22
208.00 36.93
209.00 36.66
210.00 36.42
211.00 36.21
212.00 36.04
213.00 35.92
214.00 35.85
215.00 35.83
216.00 35.86
217.00 35.95
218.00 36.07
219.00 36.25
220.00 36.46
221.00 36.71
222.00 36.97
223.00 37.25
224.00 37.52
225.00 37.78
226.00 38.02
227.00 38.22
228.00 38.37
229.00 38.48
230.00 38.56
231.00 38.59
232.00 38.60
233.00 38.60
234.00 38.59
235.00 38.59
236.00 38.59
237.00 38.60
238.00 38.63
239.00 38.65
240.00 38.68
241.00 38.71
242.00 38.73
243.00 38.74
244.00 38.72
245.00 38.70
246.00 38.66
247.00 38.61
248.00 38.55
249.00 38.50
250.00 38.45
251.00 38.39
252.00 38.34
253.00 38.27
254.00 38.19
255.00 38.07
256.00 37.89
257.00 37.61
258.00 37.25
259.00 36.77
260.00 36.17
261.00 35.49
262.00 34.73
263.00 33.92
264.00 33.09
265.00 32.25
266.00 31.41
267.00 30.59
268.00 29.79
269.00 29.02
270.00 28.28
271.00 27.57
272.00 26.88
273.00 26.22
274.00 25.58
275.00 24.97
276.00 24.37
277.00 23.80
278.00 23.24
279.00 22.70
280.00 22.16
281.00 21.64
282.00 21.13
283.00 20.62
284.00 20.13
285.00 19.64
286.00 19.15
287.00 18.67
288.00 18.20
289.00 17.73
290.00 17.27
291.00 16.82
292.00 16.37
293.00 15.92
294.00 15.49
295.00 15.06
296.00 14.64
297.00 14.23
298.00 13.82
299.00 13.43
300.00 13.04
301.00 12.65
302.00 12.28
303.00 11.92
304.00 11.56
305.00 11.21
306.00 10.87
307.00 10.53
308.00 10.21
309.00 9.88
310.00 9.57
311.00 9.26
312.00 8.96
313.00 8.66
314.00 8.37
315.00 8.08
316.00 7.79
317.00 7.51
318.00 7.24
319.00 6.96
320.00 6.70
321.00 6.43
322.00 6.17
323.00 5.91
324.00 5.65
325.00 5.40
326.00 5.15
327.00 4.91
328.00 4.67
329.00 4.43
330.00 4.20
331.00 3.97
332.00 3.75
333.00 3.53
334.00 3.32
335.00 3.12
336.00 2.92
337.00 2.72
338.00 2.54
339.00 2.35
340.00 2.18
341.00 2.01
342.00 1.85
343.00 1.70
344.00 1.55
345.00 1.41
346.00 1.28
347.00 1.15
348.00 1.04
349.00 0.92
350.00 0.82
351.00 0.72
352.00 0.63
353.00 0.54
354.00 0.47
355.00 0.39
356.00 0.33
357.00 0.27
358.00 0.21
359.00 0.16
VERTICAL 360
0.00 19.91
1.00 15.46
2.00 10.89
3.00 6.97
4.00 3.91
5.00 1.75
6.00 0.46
7.00 0.00
8.00 0.36
9.00 1.58
10.00 3.84
11.00 7.63
12.00 14.73
13.00 34.64
14.00 17.50
15.00 14.78
16.00 15.88
17.00 19.45
18.00 21.48
19.00 18.66
20.00 16.52
21.00 15.96
22.00 16.95
23.00 20.11
24.00 26.55
25.00 24.98
26.00 19.37
27.00 17.23
28.00 17.22
29.00 18.91
30.00 21.92
31.00 24.35
32.00 23.45
33.00 21.69
34.00 20.87
35.00 21.12
36.00 22.44
37.00 24.86
38.00 27.73
39.00 28.73
40.00 28.02
41.00 28.25
42.00 30.60
43.00 36.78
44.00 45.04
45.00 35.39
46.00 32.16
47.00 31.22
48.00 29.93
49.00 27.54
50.00 25.70
51.00 25.27
52.00 26.37
53.00 28.49
54.00 29.41
55.00 28.12
56.00 26.94
57.00 26.69
58.00 27.13
59.00 27.97
60.00 29.11
61.00 30.57
62.00 32.43
63.00 34.83
64.00 37.61
65.00 39.58
66.00 39.96
67.00 39.04
68.00 37.66
69.00 36.98
70.00 36.73
71.00 35.88
72.00 34.65
73.00 33.72
74.00 33.28
75.00 33.31
76.00 33.33
77.00 32.68
78.00 31.60
79.00 30.59
80.00 29.93
81.00 29.72
82.00 29.66
83.00 29.29
84.00 28.50
85.00 27.56
86.00 27.07
87.00 27.67
88.00 29.50
89.00 31.24
90.00 31.55
91.00 31.97
92.00 32.32
93.00 31.35
94.00 30.38
95.00 29.85
96.00 29.03
97.00 28.38
98.00 28.69
99.00 29.96
100.00 31.82
101.00 34.21
102.00 36.74
103.00 37.26
104.00 36.23
105.00 36.10
106.00 37.37
107.00 39.94
108.00 43.58
109.00 46.95
110.00 47.18
111.00 45.36
112.00 43.18
113.00 40.94
114.00 39.07
115.00 37.82
116.00 37.14
117.00 36.68
118.00 35.91
119.00 34.86
120.00 34.23
121.00 34.40
122.00 35.17
123.00 35.90
124.00 36.46
125.00 37.68
126.00 40.44
127.00 44.93
128.00 48.72
129.00 46.92
130.00 42.83
131.00 40.78
132.00 41.72
133.00 46.79
134.00 55.95
135.00 46.50
136.00 40.62
137.00 36.94
138.00 34.98
139.00 34.54
140.00 35.27
141.00 36.77
142.00 38.55
143.00 40.32
144.00 42.11
145.00 43.39
146.00 42.55
147.00 40.27
148.00 38.77
149.00 38.95
150.00 40.80
151.00 43.38
152.00 45.46
153.00 47.89
154.00 47.99
155.00 42.88
156.00 38.77
157.00 36.92
158.00 37.18
159.00 38.37
160.00 38.02
161.00 37.33
162.00 37.68
163.00 37.15
164.00 35.44
165.00 34.57
166.00 35.27
167.00 38.42
168.00 45.03
169.00 41.57
170.00 38.41
171.00 41.45
172.00 52.22
173.00 42.38
174.00 39.05
175.00 38.84
176.00 38.97
177.00 40.36
178.00 45.48
179.00 49.94
180.00 44.11
181.00 38.90
182.00 35.14
183.00 33.76
184.00 34.53
185.00 36.32
186.00 37.62
187.00 39.15
188.00 41.84
189.00 45.54
190.00 55.11
191.00 54.30
192.00 47.86
193.00 49.23
194.00 45.60
195.00 41.47
196.00 41.33
197.00 42.11
198.00 40.30
199.00 40.03
200.00 43.55
201.00 43.60
202.00 37.75
203.00 34.85
204.00 34.18
205.00 35.60
206.00 39.31
207.00 41.68
208.00 39.63
209.00 39.66
210.00 41.81
211.00 41.03
212.00 38.30
213.00 37.03
214.00 36.83
215.00 36.86
216.00 36.67
217.00 36.55
218.00 37.05
219.00 38.16
220.00 38.50
221.00 36.92
222.00 35.13
223.00 34.40
224.00 34.92
225.00 36.66
226.00 39.99
227.00 47.51
228.00 48.00
229.00 39.26
230.00 36.30
231.00 36.83
232.00 41.88
233.00 43.68
234.00 36.04
235.00 33.43
236.00 33.95
237.00 37.53
238.00 44.20
239.00 41.16
240.00 36.26
241.00 34.00
242.00 33.37
243.00 34.26
244.00 36.71
245.00 38.69
246.00 37.00
247.00 35.43
248.00 35.83
249.00 37.89
250.00 40.19
251.00 40.31
252.00 38.66
253.00 36.16
254.00 33.05
255.00 30.26
256.00 28.35
257.00 27.24
258.00 26.54
259.00 25.79
260.00 24.81
261.00 23.76
262.00 22.94
263.00 22.47
264.00 22.28
265.00 22.13
266.00 21.83
267.00 21.32
268.00 20.71
269.00 20.21
270.00 19.97
271.00 20.01
272.00 20.25
273.00 20.51
274.00 20.62
275.00 20.50
276.00 20.18
277.00 19.74
278.00 19.24
279.00 18.74
280.00 18.30
281.00 17.96
282.00 17.72
283.00 17.59
284.00 17.62
285.00 17.84
286.00 18.27
287.00 18.86
288.00 19.55
289.00 20.30
290.00 21.08
291.00 21.89
292.00 22.79
293.00 23.83
294.00 24.99
295.00 26.20
296.00 27.52
297.00 29.19
298.00 31.70
299.00 35.50
300.00 39.57
301.00 40.14
302.00 38.88
303.00 37.31
304.00 35.20
305.00 33.15
306.00 30.96
307.00 28.11
308.00 25.20
309.00 23.16
310.00 22.49
311.00 23.45
312.00 26.47
313.00 32.89
314.00 41.77
315.00 31.46
316.00 25.71
317.00 22.34
318.00 20.85
319.00 21.47
320.00 25.32
321.00 32.41
322.00 23.92
323.00 18.64
324.00 16.13
325.00 15.14
326.00 15.31
327.00 16.69
328.00 19.66
329.00 24.33
330.00 23.69
331.00 19.27
332.00 16.33
333.00 14.77
334.00 14.35
335.00 14.96
336.00 16.53
337.00 19.12
338.00 22.74
339.00 27.14
340.00 30.65
341.00 29.49
342.00 25.44
343.00 22.59
344.00 21.68
345.00 22.97
346.00 27.30
347.00 32.13
348.00 26.28
349.00 22.73
350.00 21.87
351.00 23.41
352.00 28.92
353.00 32.02
354.00 23.27
355.00 19.84
356.00 19.17
357.00 20.33
358.00 22.23
359.00 22.59
