NAME ATR4518R7_2140_X_CO_M45_08T_yL
FREQUENCY 2140
GAIN 15.63 dBd
TILT	ELECTRICAL
COMMENT DATE 05.08.2013 -45 degrees polarized system Lever position 08T deg
HORIZONTAL 360
0.00 0.00
1.00 0.01
2.00 0.02
3.00 0.03
4.00 0.05
5.00 0.08
6.00 0.11
7.00 0.15
8.00 0.19
9.00 0.24
10.00 0.30
11.00 0.37
12.00 0.44
13.00 0.52
14.00 0.61
15.00 0.71
16.00 0.81
17.00 0.93
18.00 1.05
19.00 1.18
20.00 1.31
21.00 1.46
22.00 1.61
23.00 1.77
24.00 1.94
25.00 2.12
26.00 2.30
27.00 2.50
28.00 2.70
29.00 2.91
30.00 3.13
31.00 3.36
32.00 3.59
33.00 3.84
34.00 4.09
35.00 4.36
36.00 4.63
37.00 4.91
38.00 5.20
39.00 5.50
40.00 5.80
41.00 6.11
42.00 6.42
43.00 6.74
44.00 7.05
45.00 7.37
46.00 7.69
47.00 8.01
48.00 8.32
49.00 8.63
50.00 8.94
51.00 9.24
52.00 9.54
53.00 9.83
54.00 10.13
55.00 10.41
56.00 10.69
57.00 10.97
58.00 11.24
59.00 11.52
60.00 11.79
61.00 12.07
62.00 12.34
63.00 12.63
64.00 12.91
65.00 13.21
66.00 13.51
67.00 13.81
68.00 14.13
69.00 14.46
70.00 14.79
71.00 15.13
72.00 15.49
73.00 15.85
74.00 16.22
75.00 16.59
76.00 16.98
77.00 17.36
78.00 17.75
79.00 18.14
80.00 18.52
81.00 18.90
82.00 19.28
83.00 19.65
84.00 20.02
85.00 20.37
86.00 20.72
87.00 21.06
88.00 21.40
89.00 21.75
90.00 22.09
91.00 22.45
92.00 22.82
93.00 23.21
94.00 23.62
95.00 24.07
96.00 24.57
97.00 25.11
98.00 25.71
99.00 26.38
100.00 27.12
101.00 27.95
102.00 28.89
103.00 29.95
104.00 31.14
105.00 32.51
106.00 34.08
107.00 35.90
108.00 38.04
109.00 40.58
110.00 43.55
111.00 46.62
112.00 48.27
113.00 47.42
114.00 45.74
115.00 44.39
116.00 43.56
117.00 43.18
118.00 43.25
119.00 43.71
120.00 44.58
121.00 45.80
122.00 47.16
123.00 47.97
124.00 47.31
125.00 45.43
126.00 43.29
127.00 41.34
128.00 39.70
129.00 38.33
130.00 37.21
131.00 36.29
132.00 35.56
133.00 34.97
134.00 34.53
135.00 34.20
136.00 33.96
137.00 33.82
138.00 33.74
139.00 33.72
140.00 33.75
141.00 33.79
142.00 33.86
143.00 33.93
144.00 34.01
145.00 34.09
146.00 34.18
147.00 34.28
148.00 34.42
149.00 34.60
150.00 34.83
151.00 35.13
152.00 35.50
153.00 35.95
154.00 36.45
155.00 36.98
156.00 37.47
157.00 37.86
158.00 38.03
159.00 37.92
160.00 37.54
161.00 36.96
162.00 36.28
163.00 35.59
164.00 34.95
165.00 34.40
166.00 33.97
167.00 33.68
168.00 33.52
169.00 33.52
170.00 33.67
171.00 34.01
172.00 34.54
173.00 35.29
174.00 36.32
175.00 37.70
176.00 39.53
177.00 42.01
178.00 45.35
179.00 48.71
180.00 47.57
181.00 43.84
182.00 40.82
183.00 38.58
184.00 36.91
185.00 35.65
186.00 34.71
187.00 34.04
188.00 33.60
189.00 33.37
190.00 33.34
191.00 33.50
192.00 33.88
193.00 34.49
194.00 35.36
195.00 36.56
196.00 38.19
197.00 40.44
198.00 43.78
199.00 49.64
200.00 69.61
201.00 49.77
202.00 43.86
203.00 40.50
204.00 38.23
205.00 36.60
206.00 35.39
207.00 34.51
208.00 33.88
209.00 33.47
210.00 33.27
211.00 33.25
212.00 33.43
213.00 33.79
214.00 34.36
215.00 35.16
216.00 36.23
217.00 37.63
218.00 39.45
219.00 41.76
220.00 44.39
221.00 45.82
222.00 44.19
223.00 41.36
224.00 38.84
225.00 36.81
226.00 35.16
227.00 33.82
228.00 32.71
229.00 31.80
230.00 31.03
231.00 30.40
232.00 29.88
233.00 29.45
234.00 29.12
235.00 28.86
236.00 28.68
237.00 28.56
238.00 28.50
239.00 28.50
240.00 28.56
241.00 28.66
242.00 28.80
243.00 28.97
244.00 29.15
245.00 29.34
246.00 29.52
247.00 29.65
248.00 29.72
249.00 29.70
250.00 29.59
251.00 29.37
252.00 29.06
253.00 28.67
254.00 28.23
255.00 27.75
256.00 27.25
257.00 26.75
258.00 26.27
259.00 25.79
260.00 25.34
261.00 24.90
262.00 24.48
263.00 24.08
264.00 23.68
265.00 23.29
266.00 22.90
267.00 22.51
268.00 22.11
269.00 21.70
270.00 21.28
271.00 20.85
272.00 20.42
273.00 19.97
274.00 19.52
275.00 19.06
276.00 18.60
277.00 18.14
278.00 17.69
279.00 17.24
280.00 16.80
281.00 16.37
282.00 15.94
283.00 15.53
284.00 15.13
285.00 14.74
286.00 14.36
287.00 13.99
288.00 13.64
289.00 13.29
290.00 12.96
291.00 12.63
292.00 12.31
293.00 12.00
294.00 11.69
295.00 11.40
296.00 11.10
297.00 10.81
298.00 10.53
299.00 10.24
300.00 9.96
301.00 9.68
302.00 9.40
303.00 9.13
304.00 8.85
305.00 8.57
306.00 8.30
307.00 8.02
308.00 7.74
309.00 7.46
310.00 7.19
311.00 6.91
312.00 6.63
313.00 6.36
314.00 6.09
315.00 5.82
316.00 5.55
317.00 5.29
318.00 5.03
319.00 4.77
320.00 4.52
321.00 4.27
322.00 4.03
323.00 3.80
324.00 3.57
325.00 3.35
326.00 3.13
327.00 2.92
328.00 2.72
329.00 2.52
330.00 2.33
331.00 2.15
332.00 1.98
333.00 1.81
334.00 1.65
335.00 1.50
336.00 1.36
337.00 1.23
338.00 1.10
339.00 0.98
340.00 0.87
341.00 0.77
342.00 0.67
343.00 0.59
344.00 0.51
345.00 0.43
346.00 0.37
347.00 0.31
348.00 0.26
349.00 0.21
350.00 0.17
351.00 0.14
352.00 0.10
353.00 0.08
354.00 0.06
355.00 0.04
356.00 0.02
357.00 0.01
358.00 0.01
359.00 0.00
VERTICAL 360
0.00 22.82
1.00 22.18
2.00 17.62
3.00 12.12
4.00 7.72
5.00 4.48
6.00 2.20
7.00 0.74
8.00 0.05
9.00 0.17
10.00 1.24
11.00 3.49
12.00 7.52
13.00 15.37
14.00 27.65
15.00 14.76
16.00 12.04
17.00 12.06
18.00 14.10
19.00 18.31
20.00 21.00
21.00 17.29
22.00 15.09
23.00 15.16
24.00 17.44
25.00 22.51
26.00 28.50
27.00 23.60
28.00 20.11
29.00 18.72
30.00 19.19
31.00 22.42
32.00 33.60
33.00 26.26
34.00 20.09
35.00 18.30
36.00 18.99
37.00 22.07
38.00 28.81
39.00 31.26
40.00 24.26
41.00 20.74
42.00 18.80
43.00 17.79
44.00 17.54
45.00 18.01
46.00 19.27
47.00 21.54
48.00 25.32
49.00 31.76
50.00 38.63
51.00 33.88
52.00 32.53
53.00 33.34
54.00 32.08
55.00 29.23
56.00 27.65
57.00 27.43
58.00 27.91
59.00 28.53
60.00 29.23
61.00 30.24
62.00 31.64
63.00 33.07
64.00 33.97
65.00 34.57
66.00 35.53
67.00 36.62
68.00 37.27
69.00 37.95
70.00 39.12
71.00 40.60
72.00 41.69
73.00 41.67
74.00 41.21
75.00 40.82
76.00 39.88
77.00 38.94
78.00 38.65
79.00 38.37
80.00 37.94
81.00 38.28
82.00 39.46
83.00 40.74
84.00 43.09
85.00 50.23
86.00 51.79
87.00 46.34
88.00 49.04
89.00 53.45
90.00 43.95
91.00 40.95
92.00 41.04
93.00 42.95
94.00 45.75
95.00 48.81
96.00 51.13
97.00 50.63
98.00 47.97
99.00 45.49
100.00 44.25
101.00 44.38
102.00 45.60
103.00 47.20
104.00 47.96
105.00 47.16
106.00 45.81
107.00 45.20
108.00 45.83
109.00 47.38
110.00 49.39
111.00 54.02
112.00 61.99
113.00 49.22
114.00 45.12
115.00 44.10
116.00 44.54
117.00 44.79
118.00 43.77
119.00 42.27
120.00 41.39
121.00 41.54
122.00 42.94
123.00 46.31
124.00 53.13
125.00 51.14
126.00 47.73
127.00 49.20
128.00 50.88
129.00 46.30
130.00 44.46
131.00 46.12
132.00 50.80
133.00 51.39
134.00 48.21
135.00 47.13
136.00 48.87
137.00 53.91
138.00 45.87
139.00 39.80
140.00 36.57
141.00 34.97
142.00 34.48
143.00 34.90
144.00 36.11
145.00 37.88
146.00 39.83
147.00 41.89
148.00 44.20
149.00 46.57
150.00 49.09
151.00 48.60
152.00 43.27
153.00 39.63
154.00 38.05
155.00 37.80
156.00 38.21
157.00 39.16
158.00 40.99
159.00 42.57
160.00 41.87
161.00 40.95
162.00 40.67
163.00 39.98
164.00 39.40
165.00 40.37
166.00 43.40
167.00 44.67
168.00 41.82
169.00 40.95
170.00 43.96
171.00 54.72
172.00 43.52
173.00 39.00
174.00 38.90
175.00 42.35
176.00 42.53
177.00 38.36
178.00 37.35
179.00 39.04
180.00 40.05
181.00 37.31
182.00 35.12
183.00 34.64
184.00 36.05
185.00 39.20
186.00 40.27
187.00 38.61
188.00 39.46
189.00 44.30
190.00 45.89
191.00 42.55
192.00 44.41
193.00 58.07
194.00 48.57
195.00 45.51
196.00 52.39
197.00 47.98
198.00 40.28
199.00 38.63
200.00 40.77
201.00 42.91
202.00 38.95
203.00 37.04
204.00 37.80
205.00 39.28
206.00 39.44
207.00 40.92
208.00 46.97
209.00 44.18
210.00 38.41
211.00 36.31
212.00 35.89
213.00 35.92
214.00 35.91
215.00 36.25
216.00 37.56
217.00 40.28
218.00 44.52
219.00 48.57
220.00 49.18
221.00 48.88
222.00 47.94
223.00 46.00
224.00 44.08
225.00 41.49
226.00 38.71
227.00 37.33
228.00 37.93
229.00 39.56
230.00 38.31
231.00 35.70
232.00 34.36
233.00 34.24
234.00 35.33
235.00 38.53
236.00 47.64
237.00 43.91
238.00 37.46
239.00 35.31
240.00 34.91
241.00 35.35
242.00 36.83
243.00 40.93
244.00 54.26
245.00 41.02
246.00 35.46
247.00 33.00
248.00 31.80
249.00 31.15
250.00 30.91
251.00 31.44
252.00 33.23
253.00 36.91
254.00 43.48
255.00 43.37
256.00 36.59
257.00 32.04
258.00 28.82
259.00 26.55
260.00 25.04
261.00 24.06
262.00 23.33
263.00 22.56
264.00 21.70
265.00 20.92
266.00 20.38
267.00 20.10
268.00 19.96
269.00 19.81
270.00 19.55
271.00 19.27
272.00 19.10
273.00 19.11
274.00 19.28
275.00 19.51
276.00 19.78
277.00 20.11
278.00 20.50
279.00 20.79
280.00 20.71
281.00 20.17
282.00 19.36
283.00 18.61
284.00 18.05
285.00 17.68
286.00 17.42
287.00 17.30
288.00 17.42
289.00 17.89
290.00 18.81
291.00 20.21
292.00 22.08
293.00 24.35
294.00 26.78
295.00 28.88
296.00 30.61
297.00 33.42
298.00 41.06
299.00 38.45
300.00 30.53
301.00 27.28
302.00 26.29
303.00 26.67
304.00 27.55
305.00 28.55
306.00 30.95
307.00 37.83
308.00 33.49
309.00 26.90
310.00 24.27
311.00 23.91
312.00 24.93
313.00 25.82
314.00 25.81
315.00 26.84
316.00 31.72
317.00 34.62
318.00 25.84
319.00 22.43
320.00 21.92
321.00 23.90
322.00 28.85
323.00 30.13
324.00 24.33
325.00 20.93
326.00 19.22
327.00 18.75
328.00 19.56
329.00 22.15
330.00 26.64
331.00 23.68
332.00 18.53
333.00 15.82
334.00 14.91
335.00 15.46
336.00 17.42
337.00 21.08
338.00 26.62
339.00 27.09
340.00 24.24
341.00 24.52
342.00 28.67
343.00 29.77
344.00 23.95
345.00 21.47
346.00 21.31
347.00 22.91
348.00 26.51
349.00 35.09
350.00 36.94
351.00 29.21
352.00 28.46
353.00 32.42
354.00 31.89
355.00 25.22
356.00 22.02
357.00 20.91
358.00 21.10
359.00 21.97
