NAME ATR4518R7_0894_X_CO_M45_09T
FREQUENCY 0894
GAIN 14.96 dBd
TILT	ELECTRICAL
COMMENT DATE 05.08.2013 -45 degrees polarized system Lever position 09T deg
HORIZONTAL 360
0.00 0.01
1.00 0.00
2.00 0.00
3.00 0.01
4.00 0.02
5.00 0.04
6.00 0.06
7.00 0.09
8.00 0.13
9.00 0.18
10.00 0.23
11.00 0.29
12.00 0.36
13.00 0.43
14.00 0.51
15.00 0.60
16.00 0.69
17.00 0.79
18.00 0.90
19.00 1.02
20.00 1.14
21.00 1.27
22.00 1.41
23.00 1.55
24.00 1.70
25.00 1.86
26.00 2.03
27.00 2.20
28.00 2.38
29.00 2.57
30.00 2.76
31.00 2.96
32.00 3.17
33.00 3.39
34.00 3.61
35.00 3.84
36.00 4.08
37.00 4.33
38.00 4.58
39.00 4.84
40.00 5.11
41.00 5.39
42.00 5.67
43.00 5.96
44.00 6.25
45.00 6.56
46.00 6.87
47.00 7.19
48.00 7.52
49.00 7.86
50.00 8.20
51.00 8.55
52.00 8.91
53.00 9.27
54.00 9.64
55.00 10.03
56.00 10.41
57.00 10.81
58.00 11.21
59.00 11.62
60.00 12.04
61.00 12.46
62.00 12.90
63.00 13.34
64.00 13.78
65.00 14.24
66.00 14.70
67.00 15.16
68.00 15.64
69.00 16.12
70.00 16.60
71.00 17.09
72.00 17.59
73.00 18.09
74.00 18.59
75.00 19.10
76.00 19.61
77.00 20.12
78.00 20.63
79.00 21.14
80.00 21.65
81.00 22.15
82.00 22.65
83.00 23.14
84.00 23.62
85.00 24.10
86.00 24.56
87.00 25.00
88.00 25.44
89.00 25.86
90.00 26.27
91.00 26.66
92.00 27.03
93.00 27.39
94.00 27.73
95.00 28.06
96.00 28.38
97.00 28.69
98.00 28.98
99.00 29.27
100.00 29.55
101.00 29.82
102.00 30.09
103.00 30.35
104.00 30.62
105.00 30.88
106.00 31.14
107.00 31.40
108.00 31.66
109.00 31.92
110.00 32.18
111.00 32.44
112.00 32.69
113.00 32.94
114.00 33.19
115.00 33.43
116.00 33.65
117.00 33.87
118.00 34.07
119.00 34.26
120.00 34.42
121.00 34.57
122.00 34.69
123.00 34.78
124.00 34.84
125.00 34.87
126.00 34.87
127.00 34.85
128.00 34.79
129.00 34.71
130.00 34.60
131.00 34.47
132.00 34.32
133.00 34.16
134.00 33.98
135.00 33.79
136.00 33.59
137.00 33.39
138.00 33.18
139.00 32.97
140.00 32.77
141.00 32.56
142.00 32.36
143.00 32.16
144.00 31.96
145.00 31.78
146.00 31.60
147.00 31.43
148.00 31.26
149.00 31.11
150.00 30.96
151.00 30.82
152.00 30.69
153.00 30.58
154.00 30.46
155.00 30.37
156.00 30.28
157.00 30.20
158.00 30.13
159.00 30.08
160.00 30.03
161.00 29.99
162.00 29.96
163.00 29.95
164.00 29.95
165.00 29.95
166.00 29.97
167.00 30.00
168.00 30.04
169.00 30.09
170.00 30.16
171.00 30.23
172.00 30.32
173.00 30.42
174.00 30.53
175.00 30.66
176.00 30.80
177.00 30.95
178.00 31.11
179.00 31.29
180.00 31.49
181.00 31.69
182.00 31.92
183.00 32.15
184.00 32.41
185.00 32.68
186.00 32.96
187.00 33.27
188.00 33.59
189.00 33.93
190.00 34.29
191.00 34.66
192.00 35.06
193.00 35.48
194.00 35.91
195.00 36.37
196.00 36.85
197.00 37.36
198.00 37.89
199.00 38.44
200.00 39.02
201.00 39.62
202.00 40.26
203.00 40.92
204.00 41.61
205.00 42.35
206.00 43.12
207.00 43.93
208.00 44.79
209.00 45.70
210.00 46.67
211.00 47.70
212.00 48.80
213.00 49.94
214.00 51.09
215.00 52.09
216.00 52.82
217.00 52.94
218.00 52.45
219.00 51.48
220.00 50.21
221.00 48.84
222.00 47.50
223.00 46.26
224.00 45.06
225.00 43.95
226.00 42.90
227.00 41.92
228.00 41.00
229.00 40.13
230.00 39.31
231.00 38.54
232.00 37.80
233.00 37.10
234.00 36.43
235.00 35.79
236.00 35.18
237.00 34.60
238.00 34.03
239.00 33.49
240.00 32.97
241.00 32.46
242.00 31.97
243.00 31.50
244.00 31.03
245.00 30.58
246.00 30.14
247.00 29.70
248.00 29.28
249.00 28.86
250.00 28.44
251.00 28.03
252.00 27.62
253.00 27.22
254.00 26.81
255.00 26.41
256.00 26.01
257.00 25.61
258.00 25.21
259.00 24.81
260.00 24.41
261.00 24.01
262.00 23.62
263.00 23.22
264.00 22.82
265.00 22.42
266.00 22.03
267.00 21.64
268.00 21.24
269.00 20.85
270.00 20.47
271.00 20.08
272.00 19.70
273.00 19.32
274.00 18.95
275.00 18.57
276.00 18.21
277.00 17.84
278.00 17.48
279.00 17.12
280.00 16.77
281.00 16.42
282.00 16.07
283.00 15.73
284.00 15.39
285.00 15.05
286.00 14.72
287.00 14.40
288.00 14.07
289.00 13.75
290.00 13.43
291.00 13.12
292.00 12.81
293.00 12.49
294.00 12.19
295.00 11.89
296.00 11.59
297.00 11.29
298.00 11.00
299.00 10.71
300.00 10.42
301.00 10.13
302.00 9.85
303.00 9.57
304.00 9.29
305.00 9.01
306.00 8.74
307.00 8.47
308.00 8.20
309.00 7.94
310.00 7.68
311.00 7.42
312.00 7.16
313.00 6.91
314.00 6.66
315.00 6.41
316.00 6.16
317.00 5.92
318.00 5.69
319.00 5.45
320.00 5.22
321.00 4.99
322.00 4.77
323.00 4.55
324.00 4.33
325.00 4.12
326.00 3.92
327.00 3.71
328.00 3.51
329.00 3.32
330.00 3.13
331.00 2.95
332.00 2.77
333.00 2.59
334.00 2.42
335.00 2.26
336.00 2.10
337.00 1.94
338.00 1.79
339.00 1.65
340.00 1.51
341.00 1.38
342.00 1.25
343.00 1.13
344.00 1.02
345.00 0.91
346.00 0.81
347.00 0.71
348.00 0.62
349.00 0.53
350.00 0.45
351.00 0.38
352.00 0.31
353.00 0.25
354.00 0.20
355.00 0.15
356.00 0.11
357.00 0.08
358.00 0.05
359.00 0.03
VERTICAL 360
0.00 21.81
1.00 15.34
2.00 10.90
3.00 7.62
4.00 5.11
5.00 3.21
6.00 1.80
7.00 0.82
8.00 0.23
9.00 0.00
10.00 0.13
11.00 0.62
12.00 1.48
13.00 2.74
14.00 4.45
15.00 6.71
16.00 9.68
17.00 13.69
18.00 19.63
19.00 31.77
20.00 29.57
21.00 23.78
22.00 22.37
23.00 23.00
24.00 25.43
25.00 30.59
26.00 44.36
27.00 33.21
28.00 28.00
29.00 25.97
30.00 25.61
31.00 26.52
32.00 28.74
33.00 32.41
34.00 36.27
35.00 34.80
36.00 31.90
37.00 30.44
38.00 30.38
39.00 31.82
40.00 35.58
41.00 44.66
42.00 37.20
43.00 30.66
44.00 27.18
45.00 25.15
46.00 24.03
47.00 23.56
48.00 23.56
49.00 23.94
50.00 24.66
51.00 25.80
52.00 27.52
53.00 30.16
54.00 34.64
55.00 43.85
56.00 39.61
57.00 33.12
58.00 29.91
59.00 28.18
60.00 27.30
61.00 26.97
62.00 26.98
63.00 27.15
64.00 27.33
65.00 27.40
66.00 27.33
67.00 27.17
68.00 27.06
69.00 27.15
70.00 27.58
71.00 28.43
72.00 29.74
73.00 31.37
74.00 32.79
75.00 33.07
76.00 32.16
77.00 30.98
78.00 30.12
79.00 29.72
80.00 29.73
81.00 29.87
82.00 29.71
83.00 29.01
84.00 28.04
85.00 27.22
86.00 26.78
87.00 26.75
88.00 27.04
89.00 27.49
90.00 27.84
91.00 27.88
92.00 27.65
93.00 27.38
94.00 27.31
95.00 27.53
96.00 28.02
97.00 28.64
98.00 29.27
99.00 29.83
100.00 30.37
101.00 31.05
102.00 32.02
103.00 33.36
104.00 35.02
105.00 36.80
106.00 38.55
107.00 40.18
108.00 41.31
109.00 41.28
110.00 40.13
111.00 38.52
112.00 36.96
113.00 35.76
114.00 35.13
115.00 35.16
116.00 35.75
117.00 36.70
118.00 37.57
119.00 37.98
120.00 37.89
121.00 37.75
122.00 38.13
123.00 39.50
124.00 42.36
125.00 47.48
126.00 51.03
127.00 46.21
128.00 42.93
129.00 41.12
130.00 39.98
131.00 38.97
132.00 37.95
133.00 37.08
134.00 36.64
135.00 36.82
136.00 37.69
137.00 39.15
138.00 40.88
139.00 42.36
140.00 43.44
141.00 44.69
142.00 47.05
143.00 51.59
144.00 54.63
145.00 49.47
146.00 46.26
147.00 44.98
148.00 44.81
149.00 45.24
150.00 46.10
151.00 47.19
152.00 46.90
153.00 44.36
154.00 41.81
155.00 40.31
156.00 39.92
157.00 40.45
158.00 41.38
159.00 41.27
160.00 39.30
161.00 36.77
162.00 34.68
163.00 33.29
164.00 32.64
165.00 32.13
166.00 32.03
167.00 33.00
168.00 35.33
169.00 38.65
170.00 36.90
171.00 31.92
172.00 29.69
173.00 28.50
174.00 27.95
175.00 27.76
176.00 27.78
177.00 27.95
178.00 28.34
179.00 29.10
180.00 29.26
181.00 29.83
182.00 30.84
183.00 32.33
184.00 34.22
185.00 36.11
186.00 36.87
187.00 35.88
188.00 34.18
189.00 32.69
190.00 31.63
191.00 30.99
192.00 30.65
193.00 30.54
194.00 30.60
195.00 30.85
196.00 31.33
197.00 32.09
198.00 33.21
199.00 34.76
200.00 36.79
201.00 39.29
202.00 42.19
203.00 45.25
204.00 48.49
205.00 52.88
206.00 53.48
207.00 46.95
208.00 42.63
209.00 40.13
210.00 38.82
211.00 38.31
212.00 38.25
213.00 38.38
214.00 38.59
215.00 38.95
216.00 39.64
217.00 40.88
218.00 42.93
219.00 46.05
220.00 50.33
221.00 52.98
222.00 49.29
223.00 45.05
224.00 41.99
225.00 39.99
226.00 38.86
227.00 38.33
228.00 38.12
229.00 37.89
230.00 37.50
231.00 37.03
232.00 36.76
233.00 37.02
234.00 38.15
235.00 40.49
236.00 44.31
237.00 47.78
238.00 46.21
239.00 44.04
240.00 43.20
241.00 43.28
242.00 43.74
243.00 44.01
244.00 43.73
245.00 42.86
246.00 41.71
247.00 40.57
248.00 39.65
249.00 39.01
250.00 38.65
251.00 38.51
252.00 38.49
253.00 38.47
254.00 38.33
255.00 38.09
256.00 37.85
257.00 37.71
258.00 37.71
259.00 37.74
260.00 37.61
261.00 37.16
262.00 36.39
263.00 35.50
264.00 34.76
265.00 34.37
266.00 34.37
267.00 34.71
268.00 35.15
269.00 35.43
270.00 35.39
271.00 35.08
272.00 34.75
273.00 34.69
274.00 35.09
275.00 35.92
276.00 36.86
277.00 37.14
278.00 36.35
279.00 35.03
280.00 33.81
281.00 33.01
282.00 32.77
283.00 33.13
284.00 34.11
285.00 35.60
286.00 37.19
287.00 38.07
288.00 37.90
289.00 37.53
290.00 37.81
291.00 39.24
292.00 42.47
293.00 49.91
294.00 53.83
295.00 43.45
296.00 39.05
297.00 36.49
298.00 34.82
299.00 33.58
300.00 32.52
301.00 31.59
302.00 30.89
303.00 30.54
304.00 30.62
305.00 31.24
306.00 32.47
307.00 34.46
308.00 37.31
309.00 40.46
310.00 40.91
311.00 38.56
312.00 36.48
313.00 35.40
314.00 35.37
315.00 36.63
316.00 40.08
317.00 51.44
318.00 43.66
319.00 35.35
320.00 31.08
321.00 28.42
322.00 26.78
323.00 25.91
324.00 25.75
325.00 26.32
326.00 27.78
327.00 30.57
328.00 36.30
329.00 44.99
330.00 33.22
331.00 27.95
332.00 24.94
333.00 23.14
334.00 22.22
335.00 22.08
336.00 22.75
337.00 24.39
338.00 27.43
339.00 33.20
340.00 47.84
341.00 35.35
342.00 31.08
343.00 30.33
344.00 32.38
345.00 38.28
346.00 34.30
347.00 27.63
348.00 24.04
349.00 22.19
350.00 21.65
351.00 22.34
352.00 24.55
353.00 29.32
354.00 42.93
355.00 32.96
356.00 27.71
357.00 26.68
358.00 29.32
359.00 31.86
