NAME ATR4518R7_1880_X_CO_M45_10T_yyR
FREQUENCY 1880
GAIN 14.37 dBd
TILT	ELECTRICAL
COMMENT DATE 05.08.2013 -45 degrees polarized system Lever position 10T deg
HORIZONTAL 360
0.00 0.16
1.00 0.12
2.00 0.09
3.00 0.07
4.00 0.04
5.00 0.03
6.00 0.01
7.00 0.01
8.00 0.00
9.00 0.00
10.00 0.01
11.00 0.03
12.00 0.04
13.00 0.07
14.00 0.10
15.00 0.14
16.00 0.19
17.00 0.25
18.00 0.31
19.00 0.38
20.00 0.46
21.00 0.55
22.00 0.65
23.00 0.76
24.00 0.88
25.00 1.01
26.00 1.15
27.00 1.31
28.00 1.47
29.00 1.64
30.00 1.83
31.00 2.03
32.00 2.24
33.00 2.45
34.00 2.69
35.00 2.93
36.00 3.18
37.00 3.44
38.00 3.72
39.00 4.00
40.00 4.30
41.00 4.60
42.00 4.92
43.00 5.24
44.00 5.57
45.00 5.91
46.00 6.25
47.00 6.60
48.00 6.96
49.00 7.33
50.00 7.70
51.00 8.08
52.00 8.45
53.00 8.84
54.00 9.22
55.00 9.61
56.00 10.01
57.00 10.40
58.00 10.80
59.00 11.20
60.00 11.59
61.00 11.99
62.00 12.39
63.00 12.79
64.00 13.19
65.00 13.59
66.00 13.98
67.00 14.38
68.00 14.77
69.00 15.17
70.00 15.55
71.00 15.94
72.00 16.32
73.00 16.70
74.00 17.07
75.00 17.44
76.00 17.80
77.00 18.15
78.00 18.50
79.00 18.84
80.00 19.18
81.00 19.51
82.00 19.83
83.00 20.15
84.00 20.46
85.00 20.77
86.00 21.08
87.00 21.39
88.00 21.70
89.00 22.02
90.00 22.33
91.00 22.66
92.00 22.99
93.00 23.33
94.00 23.69
95.00 24.06
96.00 24.45
97.00 24.86
98.00 25.28
99.00 25.73
100.00 26.21
101.00 26.71
102.00 27.24
103.00 27.80
104.00 28.39
105.00 29.00
106.00 29.64
107.00 30.30
108.00 30.97
109.00 31.63
110.00 32.26
111.00 32.83
112.00 33.30
113.00 33.64
114.00 33.82
115.00 33.85
116.00 33.72
117.00 33.49
118.00 33.17
119.00 32.82
120.00 32.45
121.00 32.09
122.00 31.76
123.00 31.47
124.00 31.22
125.00 31.02
126.00 30.88
127.00 30.80
128.00 30.77
129.00 30.80
130.00 30.90
131.00 31.06
132.00 31.29
133.00 31.60
134.00 32.00
135.00 32.48
136.00 33.06
137.00 33.75
138.00 34.57
139.00 35.55
140.00 36.71
141.00 38.13
142.00 39.87
143.00 42.06
144.00 44.96
145.00 48.92
146.00 53.15
147.00 51.17
148.00 46.93
149.00 43.83
150.00 41.59
151.00 39.90
152.00 38.59
153.00 37.57
154.00 36.77
155.00 36.15
156.00 35.69
157.00 35.37
158.00 35.18
159.00 35.11
160.00 35.15
161.00 35.31
162.00 35.59
163.00 36.00
164.00 36.53
165.00 37.21
166.00 38.05
167.00 39.07
168.00 40.26
169.00 41.63
170.00 43.08
171.00 44.32
172.00 44.83
173.00 44.27
174.00 42.96
175.00 41.43
176.00 39.96
177.00 38.65
178.00 37.52
179.00 36.56
180.00 35.75
181.00 35.07
182.00 34.51
183.00 34.05
184.00 33.69
185.00 33.41
186.00 33.21
187.00 33.09
188.00 33.04
189.00 33.05
190.00 33.11
191.00 33.22
192.00 33.37
193.00 33.56
194.00 33.76
195.00 33.96
196.00 34.14
197.00 34.28
198.00 34.36
199.00 34.36
200.00 34.28
201.00 34.10
202.00 33.84
203.00 33.51
204.00 33.14
205.00 32.72
206.00 32.30
207.00 31.87
208.00 31.46
209.00 31.05
210.00 30.66
211.00 30.30
212.00 29.96
213.00 29.65
214.00 29.35
215.00 29.08
216.00 28.83
217.00 28.60
218.00 28.39
219.00 28.20
220.00 28.01
221.00 27.85
222.00 27.69
223.00 27.55
224.00 27.42
225.00 27.30
226.00 27.19
227.00 27.10
228.00 27.02
229.00 26.95
230.00 26.89
231.00 26.85
232.00 26.82
233.00 26.80
234.00 26.79
235.00 26.80
236.00 26.81
237.00 26.83
238.00 26.86
239.00 26.89
240.00 26.91
241.00 26.93
242.00 26.94
243.00 26.94
244.00 26.91
245.00 26.86
246.00 26.79
247.00 26.68
248.00 26.55
249.00 26.38
250.00 26.18
251.00 25.95
252.00 25.70
253.00 25.42
254.00 25.13
255.00 24.82
256.00 24.50
257.00 24.16
258.00 23.83
259.00 23.49
260.00 23.15
261.00 22.81
262.00 22.47
263.00 22.13
264.00 21.79
265.00 21.46
266.00 21.13
267.00 20.80
268.00 20.48
269.00 20.15
270.00 19.83
271.00 19.51
272.00 19.19
273.00 18.87
274.00 18.56
275.00 18.24
276.00 17.92
277.00 17.61
278.00 17.29
279.00 16.98
280.00 16.67
281.00 16.36
282.00 16.05
283.00 15.74
284.00 15.43
285.00 15.12
286.00 14.82
287.00 14.52
288.00 14.22
289.00 13.92
290.00 13.63
291.00 13.34
292.00 13.05
293.00 12.77
294.00 12.49
295.00 12.21
296.00 11.93
297.00 11.66
298.00 11.39
299.00 11.13
300.00 10.87
301.00 10.61
302.00 10.35
303.00 10.09
304.00 9.84
305.00 9.59
306.00 9.34
307.00 9.09
308.00 8.84
309.00 8.60
310.00 8.35
311.00 8.11
312.00 7.87
313.00 7.63
314.00 7.38
315.00 7.14
316.00 6.90
317.00 6.66
318.00 6.42
319.00 6.19
320.00 5.95
321.00 5.71
322.00 5.48
323.00 5.25
324.00 5.02
325.00 4.80
326.00 4.57
327.00 4.36
328.00 4.14
329.00 3.93
330.00 3.72
331.00 3.52
332.00 3.32
333.00 3.13
334.00 2.94
335.00 2.76
336.00 2.59
337.00 2.41
338.00 2.25
339.00 2.09
340.00 1.94
341.00 1.80
342.00 1.66
343.00 1.52
344.00 1.40
345.00 1.28
346.00 1.16
347.00 1.06
348.00 0.96
349.00 0.86
350.00 0.77
351.00 0.69
352.00 0.61
353.00 0.53
354.00 0.47
355.00 0.40
356.00 0.34
357.00 0.29
358.00 0.24
359.00 0.20
VERTICAL 360
0.00 30.32
1.00 40.36
2.00 31.96
3.00 20.95
4.00 13.79
5.00 8.85
6.00 5.32
7.00 2.82
8.00 1.16
9.00 0.24
10.00 0.00
11.00 0.46
12.00 1.66
13.00 3.76
14.00 7.18
15.00 13.17
16.00 25.29
17.00 17.56
18.00 12.99
19.00 12.10
20.00 13.48
21.00 17.56
22.00 26.47
23.00 23.16
24.00 17.36
25.00 15.47
26.00 15.67
27.00 17.74
28.00 22.52
29.00 32.71
30.00 25.69
31.00 19.89
32.00 17.53
33.00 17.02
34.00 18.12
35.00 21.30
36.00 28.92
37.00 35.75
38.00 24.88
39.00 21.47
40.00 20.33
41.00 20.44
42.00 21.54
43.00 23.93
44.00 28.99
45.00 41.10
46.00 31.10
47.00 25.31
48.00 22.71
49.00 21.43
50.00 20.90
51.00 20.95
52.00 21.61
53.00 22.99
54.00 25.12
55.00 27.10
56.00 27.15
57.00 26.01
58.00 25.32
59.00 25.39
60.00 26.02
61.00 27.05
62.00 28.55
63.00 30.83
64.00 34.35
65.00 39.79
66.00 47.45
67.00 46.73
68.00 41.28
69.00 37.71
70.00 35.44
71.00 34.15
72.00 33.60
73.00 33.37
74.00 33.03
75.00 32.45
76.00 31.79
77.00 31.22
78.00 30.93
79.00 31.00
80.00 31.19
81.00 31.10
82.00 30.65
83.00 30.15
84.00 30.08
85.00 30.90
86.00 32.88
87.00 35.68
88.00 37.49
89.00 36.02
90.00 32.64
91.00 29.79
92.00 28.24
93.00 27.97
94.00 28.69
95.00 29.86
96.00 30.85
97.00 31.40
98.00 31.77
99.00 32.45
100.00 33.82
101.00 35.93
102.00 38.27
103.00 39.93
104.00 40.48
105.00 40.46
106.00 41.20
107.00 43.99
108.00 47.96
109.00 46.17
110.00 43.93
111.00 43.84
112.00 44.26
113.00 44.11
114.00 43.03
115.00 40.63
116.00 38.25
117.00 36.76
118.00 35.89
119.00 35.08
120.00 34.13
121.00 33.41
122.00 33.54
123.00 35.08
124.00 38.47
125.00 42.95
126.00 44.97
127.00 47.45
128.00 56.35
129.00 48.32
130.00 43.22
131.00 41.89
132.00 41.74
133.00 41.21
134.00 40.29
135.00 39.77
136.00 39.15
137.00 37.19
138.00 34.96
139.00 34.07
140.00 35.25
141.00 39.56
142.00 50.85
143.00 45.02
144.00 39.68
145.00 38.03
146.00 37.49
147.00 37.50
148.00 38.21
149.00 39.57
150.00 40.52
151.00 39.86
152.00 38.25
153.00 36.62
154.00 35.32
155.00 34.62
156.00 34.74
157.00 35.73
158.00 37.42
159.00 39.27
160.00 40.29
161.00 39.70
162.00 38.89
163.00 39.99
164.00 43.86
165.00 41.20
166.00 35.38
167.00 32.58
168.00 31.70
169.00 32.02
170.00 33.03
171.00 34.53
172.00 36.22
173.00 37.77
174.00 39.81
175.00 43.86
176.00 44.52
177.00 39.21
178.00 36.59
179.00 36.30
180.00 37.69
181.00 39.97
182.00 41.59
183.00 41.90
184.00 42.20
185.00 43.57
186.00 46.35
187.00 47.56
188.00 43.80
189.00 40.45
190.00 38.79
191.00 38.99
192.00 42.09
193.00 52.12
194.00 44.41
195.00 38.11
196.00 36.07
197.00 35.96
198.00 36.59
199.00 37.25
200.00 38.06
201.00 39.30
202.00 41.86
203.00 51.60
204.00 47.81
205.00 38.86
206.00 36.33
207.00 37.18
208.00 41.43
209.00 45.42
210.00 41.61
211.00 39.55
212.00 38.45
213.00 36.62
214.00 34.83
215.00 34.00
216.00 34.37
217.00 36.07
218.00 39.23
219.00 43.21
220.00 45.16
221.00 44.70
222.00 43.50
223.00 41.92
224.00 41.53
225.00 44.06
226.00 48.51
227.00 41.24
228.00 36.07
229.00 33.86
230.00 33.68
231.00 35.32
232.00 39.03
233.00 45.94
234.00 55.75
235.00 50.26
236.00 47.56
237.00 47.10
238.00 48.05
239.00 50.88
240.00 57.33
241.00 73.28
242.00 62.09
243.00 55.08
244.00 47.58
245.00 42.28
246.00 38.97
247.00 37.10
248.00 36.20
249.00 35.89
250.00 35.92
251.00 36.23
252.00 36.79
253.00 37.49
254.00 38.07
255.00 38.39
256.00 38.58
257.00 38.91
258.00 39.35
259.00 39.43
260.00 38.78
261.00 37.75
262.00 37.03
263.00 36.97
264.00 37.56
265.00 38.74
266.00 41.08
267.00 44.56
268.00 43.00
269.00 39.43
270.00 38.77
271.00 41.46
272.00 48.23
273.00 47.55
274.00 42.78
275.00 40.23
276.00 38.39
277.00 37.99
278.00 40.41
279.00 49.57
280.00 43.25
281.00 35.06
282.00 30.72
283.00 27.74
284.00 25.51
285.00 23.91
286.00 22.89
287.00 22.43
288.00 22.40
289.00 22.65
290.00 23.01
291.00 23.41
292.00 23.87
293.00 24.47
294.00 25.29
295.00 26.33
296.00 27.46
297.00 28.37
298.00 28.52
299.00 27.68
300.00 26.39
301.00 25.31
302.00 24.67
303.00 24.41
304.00 24.25
305.00 23.97
306.00 23.68
307.00 23.67
308.00 24.11
309.00 24.87
310.00 25.61
311.00 26.19
312.00 26.85
313.00 27.75
314.00 28.56
315.00 28.52
316.00 27.31
317.00 25.44
318.00 23.66
319.00 22.35
320.00 21.55
321.00 21.11
322.00 20.86
323.00 20.74
324.00 20.90
325.00 21.57
326.00 22.79
327.00 23.72
328.00 22.74
329.00 20.50
330.00 18.53
331.00 17.27
332.00 16.70
333.00 16.71
334.00 17.09
335.00 17.51
336.00 17.87
337.00 18.53
338.00 20.24
339.00 24.28
340.00 30.94
341.00 24.36
342.00 18.97
343.00 16.47
344.00 15.78
345.00 16.74
346.00 19.76
347.00 26.22
348.00 28.93
349.00 22.65
350.00 20.37
351.00 20.76
352.00 24.06
353.00 33.72
354.00 27.91
355.00 20.77
356.00 17.99
357.00 17.48
358.00 18.96
359.00 22.81
