NAME ATR4518R7_1750_X_CO_M45_03T_yyR
FREQUENCY 1750
GAIN 14.75 dBd
TILT	ELECTRICAL
COMMENT DATE 05.08.2013 -45 degrees polarized system Lever position 03T deg
HORIZONTAL 360
0.00 0.02
1.00 0.01
2.00 0.00
3.00 0.01
4.00 0.01
5.00 0.02
6.00 0.04
7.00 0.06
8.00 0.09
9.00 0.13
10.00 0.17
11.00 0.22
12.00 0.27
13.00 0.34
14.00 0.41
15.00 0.49
16.00 0.58
17.00 0.68
18.00 0.79
19.00 0.91
20.00 1.04
21.00 1.17
22.00 1.32
23.00 1.48
24.00 1.65
25.00 1.83
26.00 2.02
27.00 2.22
28.00 2.43
29.00 2.66
30.00 2.89
31.00 3.13
32.00 3.38
33.00 3.65
34.00 3.92
35.00 4.19
36.00 4.48
37.00 4.78
38.00 5.08
39.00 5.38
40.00 5.70
41.00 6.02
42.00 6.34
43.00 6.66
44.00 6.99
45.00 7.32
46.00 7.65
47.00 7.98
48.00 8.31
49.00 8.64
50.00 8.98
51.00 9.31
52.00 9.64
53.00 9.97
54.00 10.29
55.00 10.62
56.00 10.94
57.00 11.27
58.00 11.59
59.00 11.91
60.00 12.23
61.00 12.55
62.00 12.86
63.00 13.17
64.00 13.48
65.00 13.78
66.00 14.08
67.00 14.37
68.00 14.66
69.00 14.93
70.00 15.21
71.00 15.47
72.00 15.73
73.00 15.98
74.00 16.22
75.00 16.46
76.00 16.69
77.00 16.93
78.00 17.16
79.00 17.39
80.00 17.62
81.00 17.86
82.00 18.10
83.00 18.36
84.00 18.62
85.00 18.89
86.00 19.18
87.00 19.48
88.00 19.80
89.00 20.12
90.00 20.47
91.00 20.83
92.00 21.20
93.00 21.59
94.00 21.99
95.00 22.39
96.00 22.80
97.00 23.20
98.00 23.59
99.00 23.97
100.00 24.32
101.00 24.65
102.00 24.94
103.00 25.18
104.00 25.39
105.00 25.55
106.00 25.67
107.00 25.76
108.00 25.82
109.00 25.86
110.00 25.89
111.00 25.93
112.00 25.97
113.00 26.02
114.00 26.08
115.00 26.18
116.00 26.29
117.00 26.44
118.00 26.62
119.00 26.82
120.00 27.06
121.00 27.32
122.00 27.60
123.00 27.90
124.00 28.22
125.00 28.53
126.00 28.84
127.00 29.13
128.00 29.40
129.00 29.63
130.00 29.82
131.00 29.96
132.00 30.05
133.00 30.12
134.00 30.15
135.00 30.16
136.00 30.18
137.00 30.21
138.00 30.26
139.00 30.35
140.00 30.49
141.00 30.68
142.00 30.95
143.00 31.30
144.00 31.74
145.00 32.29
146.00 32.96
147.00 33.79
148.00 34.80
149.00 36.03
150.00 37.56
151.00 39.47
152.00 41.87
153.00 44.73
154.00 46.81
155.00 45.62
156.00 42.73
157.00 40.09
158.00 37.98
159.00 36.30
160.00 34.93
161.00 33.82
162.00 32.90
163.00 32.16
164.00 31.55
165.00 31.07
166.00 30.70
167.00 30.44
168.00 30.28
169.00 30.21
170.00 30.23
171.00 30.34
172.00 30.54
173.00 30.85
174.00 31.25
175.00 31.76
176.00 32.39
177.00 33.15
178.00 34.06
179.00 35.14
180.00 36.42
181.00 37.90
182.00 39.56
183.00 41.25
184.00 42.49
185.00 42.58
186.00 41.50
187.00 39.92
188.00 38.34
189.00 36.95
190.00 35.75
191.00 34.76
192.00 33.93
193.00 33.25
194.00 32.70
195.00 32.28
196.00 31.96
197.00 31.74
198.00 31.61
199.00 31.58
200.00 31.63
201.00 31.77
202.00 31.99
203.00 32.31
204.00 32.71
205.00 33.21
206.00 33.79
207.00 34.46
208.00 35.20
209.00 36.01
210.00 36.82
211.00 37.57
212.00 38.14
213.00 38.41
214.00 38.32
215.00 37.89
216.00 37.23
217.00 36.47
218.00 35.69
219.00 34.95
220.00 34.28
221.00 33.70
222.00 33.21
223.00 32.80
224.00 32.49
225.00 32.25
226.00 32.11
227.00 32.05
228.00 32.07
229.00 32.18
230.00 32.39
231.00 32.67
232.00 33.05
233.00 33.54
234.00 34.13
235.00 34.82
236.00 35.63
237.00 36.55
238.00 37.56
239.00 38.60
240.00 39.54
241.00 40.17
242.00 40.28
243.00 39.81
244.00 38.93
245.00 37.87
246.00 36.77
247.00 35.74
248.00 34.80
249.00 33.97
250.00 33.23
251.00 32.58
252.00 32.01
253.00 31.51
254.00 31.08
255.00 30.70
256.00 30.35
257.00 30.04
258.00 29.75
259.00 29.46
260.00 29.18
261.00 28.89
262.00 28.58
263.00 28.24
264.00 27.88
265.00 27.48
266.00 27.04
267.00 26.58
268.00 26.09
269.00 25.58
270.00 25.05
271.00 24.51
272.00 23.97
273.00 23.43
274.00 22.88
275.00 22.35
276.00 21.82
277.00 21.30
278.00 20.79
279.00 20.30
280.00 19.81
281.00 19.33
282.00 18.86
283.00 18.40
284.00 17.95
285.00 17.51
286.00 17.08
287.00 16.66
288.00 16.23
289.00 15.82
290.00 15.40
291.00 14.99
292.00 14.59
293.00 14.19
294.00 13.79
295.00 13.40
296.00 13.01
297.00 12.62
298.00 12.23
299.00 11.85
300.00 11.47
301.00 11.09
302.00 10.72
303.00 10.35
304.00 9.98
305.00 9.61
306.00 9.25
307.00 8.90
308.00 8.55
309.00 8.20
310.00 7.86
311.00 7.53
312.00 7.20
313.00 6.88
314.00 6.57
315.00 6.26
316.00 5.96
317.00 5.66
318.00 5.38
319.00 5.10
320.00 4.82
321.00 4.56
322.00 4.31
323.00 4.06
324.00 3.82
325.00 3.59
326.00 3.36
327.00 3.15
328.00 2.94
329.00 2.75
330.00 2.56
331.00 2.38
332.00 2.20
333.00 2.04
334.00 1.88
335.00 1.73
336.00 1.59
337.00 1.46
338.00 1.33
339.00 1.21
340.00 1.10
341.00 1.00
342.00 0.90
343.00 0.81
344.00 0.72
345.00 0.64
346.00 0.57
347.00 0.50
348.00 0.43
349.00 0.37
350.00 0.32
351.00 0.27
352.00 0.23
353.00 0.19
354.00 0.15
355.00 0.12
356.00 0.09
357.00 0.06
358.00 0.04
359.00 0.03
VERTICAL 360
0.00 3.53
1.00 1.58
2.00 0.44
3.00 0.00
4.00 0.25
5.00 1.22
6.00 2.97
7.00 5.70
8.00 9.89
9.00 17.11
10.00 26.24
11.00 18.53
12.00 15.42
13.00 15.41
14.00 18.01
15.00 25.81
16.00 32.26
17.00 20.26
18.00 16.94
19.00 16.23
20.00 17.31
21.00 20.29
22.00 26.67
23.00 34.60
24.00 25.13
25.00 20.78
26.00 19.01
27.00 18.80
28.00 20.04
29.00 23.13
30.00 29.90
31.00 33.67
32.00 25.31
33.00 21.47
34.00 19.76
35.00 19.32
36.00 19.87
37.00 21.37
38.00 23.93
39.00 28.03
40.00 35.57
41.00 49.98
42.00 36.29
43.00 32.74
44.00 32.50
45.00 34.95
46.00 39.86
47.00 36.40
48.00 30.44
49.00 27.02
50.00 25.07
51.00 24.09
52.00 23.87
53.00 24.37
54.00 25.62
55.00 27.68
56.00 30.60
57.00 34.17
58.00 36.99
59.00 36.58
60.00 34.22
61.00 32.06
62.00 30.55
63.00 29.72
64.00 29.51
65.00 29.73
66.00 30.00
67.00 29.86
68.00 29.15
69.00 28.13
70.00 27.20
71.00 26.57
72.00 26.21
73.00 25.93
74.00 25.55
75.00 25.06
76.00 24.57
77.00 24.26
78.00 25.04
79.00 27.32
80.00 28.05
81.00 28.18
82.00 28.05
83.00 27.52
84.00 26.08
85.00 25.21
86.00 25.51
87.00 25.98
88.00 26.47
89.00 26.87
90.00 27.06
91.00 26.82
92.00 26.14
93.00 25.80
94.00 26.12
95.00 27.06
96.00 28.45
97.00 30.04
98.00 31.59
99.00 32.99
100.00 34.40
101.00 36.17
102.00 38.59
103.00 41.81
104.00 45.20
105.00 45.67
106.00 43.20
107.00 41.09
108.00 40.20
109.00 40.52
110.00 41.53
111.00 41.62
112.00 39.96
113.00 37.92
114.00 36.44
115.00 35.69
116.00 35.65
117.00 36.23
118.00 37.36
119.00 39.01
120.00 41.29
121.00 44.36
122.00 47.91
123.00 48.86
124.00 44.79
125.00 40.16
126.00 36.85
127.00 34.91
128.00 34.04
129.00 33.78
130.00 33.65
131.00 33.70
132.00 34.35
133.00 35.85
134.00 37.76
135.00 39.01
136.00 39.16
137.00 38.77
138.00 38.09
139.00 37.15
140.00 36.31
141.00 36.08
142.00 36.71
143.00 37.76
144.00 37.93
145.00 37.06
146.00 36.40
147.00 36.29
148.00 36.00
149.00 34.87
150.00 33.50
151.00 32.83
152.00 33.39
153.00 35.25
154.00 36.80
155.00 35.55
156.00 33.76
157.00 33.30
158.00 34.14
159.00 35.58
160.00 36.40
161.00 36.10
162.00 35.37
163.00 34.78
164.00 34.60
165.00 34.90
166.00 35.39
167.00 35.30
168.00 34.40
169.00 33.53
170.00 33.49
171.00 34.71
172.00 37.40
173.00 40.95
174.00 42.17
175.00 42.00
176.00 41.63
177.00 40.42
178.00 37.25
179.00 34.94
180.00 34.44
181.00 35.97
182.00 37.93
183.00 37.33
184.00 34.86
185.00 33.09
186.00 32.36
187.00 32.31
188.00 32.47
189.00 32.52
190.00 32.56
191.00 32.86
192.00 33.48
193.00 34.16
194.00 34.54
195.00 34.53
196.00 34.33
197.00 34.14
198.00 34.12
199.00 34.52
200.00 35.83
201.00 39.07
202.00 48.18
203.00 52.44
204.00 42.05
205.00 40.54
206.00 41.78
207.00 40.44
208.00 36.18
209.00 33.20
210.00 31.61
211.00 30.87
212.00 30.53
213.00 30.32
214.00 30.17
215.00 30.29
216.00 30.94
217.00 32.28
218.00 34.31
219.00 36.74
220.00 39.09
221.00 40.98
222.00 42.00
223.00 41.57
224.00 39.78
225.00 37.47
226.00 35.39
227.00 34.02
228.00 33.58
229.00 34.15
230.00 35.72
231.00 37.95
232.00 39.59
233.00 39.51
234.00 38.77
235.00 38.56
236.00 39.15
237.00 40.50
238.00 42.46
239.00 44.75
240.00 46.56
241.00 46.39
242.00 44.36
243.00 42.16
244.00 40.57
245.00 39.82
246.00 40.20
247.00 42.11
248.00 46.17
249.00 49.48
250.00 46.17
251.00 43.64
252.00 43.14
253.00 43.41
254.00 42.92
255.00 41.61
256.00 40.61
257.00 40.45
258.00 40.92
259.00 41.13
260.00 40.10
261.00 38.31
262.00 36.66
263.00 35.42
264.00 34.57
265.00 34.03
266.00 33.76
267.00 33.80
268.00 34.26
269.00 35.14
270.00 36.21
271.00 36.99
272.00 36.99
273.00 36.14
274.00 34.86
275.00 33.88
276.00 33.75
277.00 34.78
278.00 37.25
279.00 41.31
280.00 44.79
281.00 43.11
282.00 40.21
283.00 38.03
284.00 36.16
285.00 34.09
286.00 31.65
287.00 29.15
288.00 26.96
289.00 25.20
290.00 23.80
291.00 22.68
292.00 21.72
293.00 20.88
294.00 20.14
295.00 19.56
296.00 19.21
297.00 19.21
298.00 19.67
299.00 20.72
300.00 22.50
301.00 25.27
302.00 29.50
303.00 35.81
304.00 36.35
305.00 30.49
306.00 26.51
307.00 23.75
308.00 21.80
309.00 20.52
310.00 19.86
311.00 19.77
312.00 20.21
313.00 21.12
314.00 22.49
315.00 24.30
316.00 26.56
317.00 29.13
318.00 31.48
319.00 32.41
320.00 31.17
321.00 28.57
322.00 25.85
323.00 23.64
324.00 22.19
325.00 21.57
326.00 21.81
327.00 23.01
328.00 25.21
329.00 27.40
330.00 26.17
331.00 22.71
332.00 19.96
333.00 18.35
334.00 17.81
335.00 18.34
336.00 20.03
337.00 22.72
338.00 24.36
339.00 22.62
340.00 20.42
341.00 19.58
342.00 20.51
343.00 24.22
344.00 33.92
345.00 26.79
346.00 20.21
347.00 17.55
348.00 16.90
349.00 17.94
350.00 21.02
351.00 27.10
352.00 27.76
353.00 22.42
354.00 20.75
355.00 23.08
356.00 28.44
357.00 17.98
358.00 10.83
359.00 6.46
