NAME ATR4518R7_1750_X_CO_P45_06T_yyR
FREQUENCY 1750
GAIN 14.78 dBd
TILT	ELECTRICAL
COMMENT DATE 05.08.2013 +45 degrees polarized system Lever position 06T deg
HORIZONTAL 360
0.00 0.00
1.00 0.01
2.00 0.01
3.00 0.02
4.00 0.04
5.00 0.06
6.00 0.09
7.00 0.12
8.00 0.16
9.00 0.21
10.00 0.26
11.00 0.33
12.00 0.40
13.00 0.47
14.00 0.55
15.00 0.65
16.00 0.75
17.00 0.86
18.00 0.98
19.00 1.11
20.00 1.24
21.00 1.39
22.00 1.54
23.00 1.70
24.00 1.88
25.00 2.06
26.00 2.25
27.00 2.44
28.00 2.64
29.00 2.85
30.00 3.07
31.00 3.29
32.00 3.52
33.00 3.75
34.00 3.98
35.00 4.22
36.00 4.45
37.00 4.68
38.00 4.92
39.00 5.15
40.00 5.38
41.00 5.61
42.00 5.83
43.00 6.05
44.00 6.27
45.00 6.48
46.00 6.68
47.00 6.88
48.00 7.08
49.00 7.27
50.00 7.46
51.00 7.65
52.00 7.83
53.00 8.02
54.00 8.20
55.00 8.39
56.00 8.58
57.00 8.76
58.00 8.95
59.00 9.14
60.00 9.34
61.00 9.54
62.00 9.75
63.00 9.96
64.00 10.17
65.00 10.39
66.00 10.61
67.00 10.84
68.00 11.07
69.00 11.31
70.00 11.55
71.00 11.80
72.00 12.05
73.00 12.31
74.00 12.57
75.00 12.84
76.00 13.11
77.00 13.39
78.00 13.67
79.00 13.95
80.00 14.25
81.00 14.54
82.00 14.84
83.00 15.15
84.00 15.46
85.00 15.77
86.00 16.08
87.00 16.40
88.00 16.71
89.00 17.03
90.00 17.34
91.00 17.66
92.00 17.97
93.00 18.28
94.00 18.58
95.00 18.87
96.00 19.16
97.00 19.44
98.00 19.71
99.00 19.97
100.00 20.22
101.00 20.46
102.00 20.69
103.00 20.91
104.00 21.12
105.00 21.31
106.00 21.50
107.00 21.68
108.00 21.85
109.00 22.02
110.00 22.17
111.00 22.32
112.00 22.47
113.00 22.61
114.00 22.74
115.00 22.87
116.00 23.00
117.00 23.13
118.00 23.25
119.00 23.38
120.00 23.51
121.00 23.64
122.00 23.78
123.00 23.92
124.00 24.08
125.00 24.25
126.00 24.43
127.00 24.63
128.00 24.86
129.00 25.10
130.00 25.37
131.00 25.67
132.00 26.00
133.00 26.37
134.00 26.78
135.00 27.22
136.00 27.72
137.00 28.26
138.00 28.85
139.00 29.50
140.00 30.21
141.00 30.98
142.00 31.82
143.00 32.72
144.00 33.70
145.00 34.74
146.00 35.84
147.00 36.98
148.00 38.14
149.00 39.25
150.00 40.27
151.00 41.11
152.00 41.76
153.00 42.19
154.00 42.46
155.00 42.66
156.00 42.87
157.00 43.13
158.00 43.48
159.00 43.98
160.00 44.59
161.00 45.29
162.00 45.96
163.00 46.41
164.00 46.36
165.00 45.71
166.00 44.59
167.00 43.26
168.00 41.92
169.00 40.66
170.00 39.53
171.00 38.54
172.00 37.69
173.00 36.96
174.00 36.35
175.00 35.87
176.00 35.48
177.00 35.21
178.00 35.03
179.00 34.96
180.00 34.99
181.00 35.12
182.00 35.36
183.00 35.71
184.00 36.18
185.00 36.76
186.00 37.48
187.00 38.31
188.00 39.25
189.00 40.23
190.00 41.14
191.00 41.75
192.00 41.84
193.00 41.34
194.00 40.42
195.00 39.30
196.00 38.17
197.00 37.11
198.00 36.16
199.00 35.33
200.00 34.61
201.00 34.01
202.00 33.51
203.00 33.10
204.00 32.79
205.00 32.55
206.00 32.40
207.00 32.33
208.00 32.32
209.00 32.39
210.00 32.52
211.00 32.72
212.00 32.97
213.00 33.28
214.00 33.62
215.00 34.00
216.00 34.39
217.00 34.77
218.00 35.11
219.00 35.39
220.00 35.57
221.00 35.64
222.00 35.60
223.00 35.44
224.00 35.20
225.00 34.90
226.00 34.57
227.00 34.22
228.00 33.90
229.00 33.59
230.00 33.33
231.00 33.11
232.00 32.93
233.00 32.80
234.00 32.72
235.00 32.69
236.00 32.71
237.00 32.78
238.00 32.90
239.00 33.06
240.00 33.27
241.00 33.52
242.00 33.82
243.00 34.15
244.00 34.53
245.00 34.93
246.00 35.38
247.00 35.86
248.00 36.36
249.00 36.90
250.00 37.48
251.00 38.09
252.00 38.74
253.00 39.43
254.00 40.19
255.00 41.01
256.00 41.94
257.00 42.93
258.00 43.98
259.00 44.97
260.00 45.68
261.00 45.75
262.00 44.97
263.00 43.56
264.00 41.88
265.00 40.16
266.00 38.52
267.00 36.98
268.00 35.56
269.00 34.24
270.00 33.02
271.00 31.87
272.00 30.80
273.00 29.78
274.00 28.83
275.00 27.91
276.00 27.05
277.00 26.22
278.00 25.43
279.00 24.66
280.00 23.92
281.00 23.21
282.00 22.52
283.00 21.84
284.00 21.19
285.00 20.55
286.00 19.93
287.00 19.32
288.00 18.73
289.00 18.15
290.00 17.58
291.00 17.02
292.00 16.47
293.00 15.93
294.00 15.40
295.00 14.88
296.00 14.38
297.00 13.88
298.00 13.39
299.00 12.91
300.00 12.44
301.00 11.98
302.00 11.53
303.00 11.08
304.00 10.65
305.00 10.23
306.00 9.81
307.00 9.40
308.00 9.01
309.00 8.62
310.00 8.24
311.00 7.87
312.00 7.51
313.00 7.16
314.00 6.81
315.00 6.48
316.00 6.16
317.00 5.84
318.00 5.53
319.00 5.24
320.00 4.95
321.00 4.67
322.00 4.40
323.00 4.14
324.00 3.88
325.00 3.64
326.00 3.41
327.00 3.18
328.00 2.96
329.00 2.76
330.00 2.56
331.00 2.37
332.00 2.19
333.00 2.01
334.00 1.85
335.00 1.69
336.00 1.55
337.00 1.41
338.00 1.28
339.00 1.15
340.00 1.04
341.00 0.93
342.00 0.83
343.00 0.73
344.00 0.65
345.00 0.57
346.00 0.49
347.00 0.42
348.00 0.36
349.00 0.30
350.00 0.25
351.00 0.21
352.00 0.16
353.00 0.13
354.00 0.10
355.00 0.07
356.00 0.05
357.00 0.03
358.00 0.02
359.00 0.01
VERTICAL 360
0.00 12.72
1.00 8.27
2.00 4.93
3.00 2.57
4.00 1.02
5.00 0.18
6.00 0.00
7.00 0.46
8.00 1.59
9.00 3.50
10.00 6.46
11.00 11.20
12.00 21.09
13.00 26.87
14.00 17.12
15.00 15.30
16.00 16.50
17.00 21.20
18.00 35.00
19.00 22.28
20.00 16.46
21.00 13.97
22.00 13.13
23.00 13.54
24.00 15.18
25.00 18.43
26.00 24.75
27.00 34.27
28.00 24.83
29.00 20.85
30.00 19.73
31.00 20.54
32.00 23.31
33.00 27.86
34.00 27.55
35.00 22.93
36.00 19.93
37.00 18.23
38.00 17.52
39.00 17.80
40.00 19.24
41.00 22.10
42.00 26.30
43.00 28.37
44.00 25.92
45.00 23.55
46.00 21.98
47.00 20.93
48.00 20.38
49.00 20.45
50.00 21.13
51.00 22.10
52.00 22.80
53.00 23.06
54.00 23.18
55.00 23.48
56.00 24.22
57.00 25.66
58.00 28.18
59.00 32.46
60.00 40.15
61.00 44.78
62.00 37.91
63.00 34.46
64.00 32.25
65.00 30.66
66.00 29.55
67.00 28.89
68.00 28.65
69.00 28.63
70.00 28.50
71.00 28.03
72.00 27.28
73.00 26.52
74.00 26.03
75.00 25.83
76.00 25.80
77.00 25.81
78.00 25.87
79.00 26.09
80.00 26.47
81.00 26.79
82.00 26.82
83.00 26.66
84.00 26.67
85.00 27.26
86.00 28.78
87.00 31.08
88.00 32.75
89.00 33.06
90.00 32.68
91.00 30.79
92.00 28.54
93.00 27.54
94.00 28.02
95.00 29.63
96.00 31.67
97.00 33.14
98.00 33.30
99.00 32.66
100.00 32.35
101.00 32.83
102.00 34.07
103.00 35.85
104.00 37.86
105.00 39.77
106.00 41.51
107.00 42.98
108.00 44.29
109.00 46.07
110.00 48.26
111.00 49.26
112.00 47.88
113.00 44.20
114.00 40.75
115.00 38.77
116.00 38.22
117.00 38.88
118.00 40.71
119.00 43.22
120.00 43.05
121.00 39.96
122.00 37.33
123.00 35.42
124.00 34.12
125.00 33.59
126.00 33.92
127.00 34.81
128.00 35.50
129.00 35.85
130.00 36.71
131.00 38.91
132.00 42.52
133.00 45.41
134.00 46.74
135.00 48.35
136.00 44.04
137.00 39.07
138.00 36.50
139.00 35.82
140.00 36.39
141.00 37.06
142.00 37.13
143.00 37.96
144.00 40.73
145.00 41.93
146.00 38.92
147.00 37.50
148.00 38.05
149.00 39.10
150.00 38.68
151.00 36.49
152.00 34.26
153.00 33.32
154.00 34.22
155.00 37.35
156.00 43.56
157.00 57.16
158.00 51.72
159.00 43.08
160.00 38.43
161.00 35.89
162.00 34.79
163.00 34.64
164.00 35.11
165.00 36.18
166.00 38.39
167.00 42.68
168.00 44.87
169.00 39.00
170.00 35.15
171.00 33.40
172.00 33.13
173.00 33.85
174.00 35.11
175.00 36.78
176.00 38.56
177.00 38.78
178.00 37.90
179.00 38.96
180.00 45.56
181.00 48.39
182.00 38.89
183.00 36.50
184.00 36.43
185.00 35.73
186.00 34.01
187.00 33.22
188.00 33.65
189.00 33.94
190.00 32.83
191.00 31.18
192.00 29.94
193.00 29.41
194.00 29.81
195.00 31.16
196.00 32.77
197.00 33.30
198.00 33.25
199.00 34.46
200.00 38.10
201.00 42.92
202.00 40.33
203.00 37.47
204.00 36.39
205.00 35.93
206.00 36.28
207.00 38.17
208.00 39.38
209.00 36.20
210.00 33.40
211.00 32.41
212.00 32.60
213.00 33.00
214.00 32.80
215.00 32.15
216.00 31.55
217.00 31.17
218.00 31.10
219.00 31.59
220.00 32.98
221.00 35.31
222.00 37.66
223.00 38.43
224.00 38.28
225.00 38.08
226.00 37.04
227.00 35.14
228.00 33.44
229.00 32.50
230.00 32.26
231.00 32.47
232.00 32.88
233.00 33.48
234.00 34.62
235.00 36.90
236.00 40.18
237.00 39.17
238.00 34.99
239.00 32.52
240.00 31.78
241.00 32.45
242.00 34.27
243.00 36.88
244.00 39.40
245.00 39.69
246.00 37.23
247.00 34.37
248.00 32.34
249.00 31.43
250.00 31.64
251.00 32.73
252.00 34.00
253.00 34.32
254.00 33.81
255.00 34.01
256.00 36.06
257.00 40.67
258.00 43.11
259.00 39.45
260.00 37.10
261.00 35.50
262.00 34.09
263.00 33.03
264.00 32.44
265.00 32.43
266.00 32.90
267.00 33.08
268.00 32.03
269.00 29.99
270.00 27.99
271.00 26.79
272.00 26.64
273.00 27.42
274.00 28.50
275.00 28.78
276.00 27.66
277.00 26.06
278.00 25.04
279.00 24.89
280.00 25.42
281.00 26.08
282.00 26.23
283.00 25.68
284.00 25.04
285.00 25.00
286.00 25.90
287.00 27.66
288.00 29.75
289.00 31.09
290.00 31.28
291.00 31.88
292.00 34.75
293.00 36.94
294.00 30.56
295.00 25.88
296.00 23.19
297.00 21.64
298.00 20.79
299.00 20.38
300.00 20.32
301.00 20.65
302.00 21.49
303.00 23.00
304.00 25.33
305.00 28.70
306.00 32.21
307.00 30.93
308.00 27.07
309.00 24.15
310.00 22.07
311.00 20.54
312.00 19.46
313.00 18.86
314.00 18.80
315.00 19.37
316.00 20.61
317.00 22.54
318.00 24.98
319.00 27.03
320.00 27.54
321.00 27.42
322.00 28.33
323.00 31.49
324.00 38.74
325.00 36.59
326.00 29.70
327.00 26.17
328.00 24.06
329.00 22.92
330.00 22.91
331.00 24.64
332.00 28.16
333.00 25.20
334.00 19.23
335.00 15.68
336.00 13.89
337.00 13.48
338.00 14.29
339.00 16.30
340.00 19.45
341.00 22.99
342.00 24.31
343.00 23.11
344.00 21.68
345.00 20.68
346.00 20.30
347.00 20.60
348.00 20.94
349.00 20.37
350.00 19.42
351.00 19.42
352.00 21.29
353.00 26.49
354.00 30.14
355.00 22.40
356.00 18.69
357.00 17.58
358.00 18.03
359.00 17.13
