NAME ATR4518R7_2535_X_CO_M45_04T_yyR
FREQUENCY 2535
GAIN 15.75 dBd
TILT	ELECTRICAL
COMMENT DATE 05.08.2013 -45 degrees polarized system Lever position 04T deg
HORIZONTAL 360
0.00 0.00
1.00 0.01
2.00 0.03
3.00 0.06
4.00 0.10
5.00 0.15
6.00 0.21
7.00 0.29
8.00 0.37
9.00 0.47
10.00 0.57
11.00 0.69
12.00 0.81
13.00 0.94
14.00 1.07
15.00 1.22
16.00 1.36
17.00 1.52
18.00 1.68
19.00 1.84
20.00 2.00
21.00 2.17
22.00 2.35
23.00 2.52
24.00 2.71
25.00 2.90
26.00 3.09
27.00 3.29
28.00 3.50
29.00 3.72
30.00 3.95
31.00 4.19
32.00 4.44
33.00 4.70
34.00 4.97
35.00 5.26
36.00 5.55
37.00 5.87
38.00 6.19
39.00 6.53
40.00 6.88
41.00 7.25
42.00 7.63
43.00 8.02
44.00 8.43
45.00 8.85
46.00 9.28
47.00 9.73
48.00 10.19
49.00 10.67
50.00 11.17
51.00 11.68
52.00 12.20
53.00 12.75
54.00 13.32
55.00 13.90
56.00 14.50
57.00 15.12
58.00 15.76
59.00 16.41
60.00 17.08
61.00 17.75
62.00 18.42
63.00 19.09
64.00 19.75
65.00 20.40
66.00 21.02
67.00 21.61
68.00 22.17
69.00 22.70
70.00 23.20
71.00 23.69
72.00 24.16
73.00 24.64
74.00 25.13
75.00 25.64
76.00 26.20
77.00 26.80
78.00 27.47
79.00 28.21
80.00 29.02
81.00 29.91
82.00 30.87
83.00 31.86
84.00 32.85
85.00 33.74
86.00 34.41
87.00 34.75
88.00 34.73
89.00 34.42
90.00 33.95
91.00 33.43
92.00 32.95
93.00 32.54
94.00 32.24
95.00 32.06
96.00 32.00
97.00 32.07
98.00 32.26
99.00 32.58
100.00 33.03
101.00 33.59
102.00 34.26
103.00 35.01
104.00 35.80
105.00 36.53
106.00 37.11
107.00 37.39
108.00 37.34
109.00 37.01
110.00 36.49
111.00 35.93
112.00 35.39
113.00 34.95
114.00 34.63
115.00 34.44
116.00 34.39
117.00 34.50
118.00 34.79
119.00 35.25
120.00 35.92
121.00 36.83
122.00 38.04
123.00 39.64
124.00 41.80
125.00 44.88
126.00 49.91
127.00 62.72
128.00 54.48
129.00 47.39
130.00 43.72
131.00 41.36
132.00 39.71
133.00 38.55
134.00 37.74
135.00 37.22
136.00 36.96
137.00 36.93
138.00 37.13
139.00 37.54
140.00 38.16
141.00 38.98
142.00 39.91
143.00 40.78
144.00 41.27
145.00 41.05
146.00 40.12
147.00 38.83
148.00 37.48
149.00 36.24
150.00 35.17
151.00 34.29
152.00 33.59
153.00 33.07
154.00 32.71
155.00 32.52
156.00 32.49
157.00 32.62
158.00 32.91
159.00 33.36
160.00 33.98
161.00 34.77
162.00 35.71
163.00 36.77
164.00 37.81
165.00 38.64
166.00 38.98
167.00 38.71
168.00 37.99
169.00 37.08
170.00 36.19
171.00 35.43
172.00 34.84
173.00 34.43
174.00 34.21
175.00 34.17
176.00 34.34
177.00 34.71
178.00 35.29
179.00 36.12
180.00 37.21
181.00 38.63
182.00 40.44
183.00 42.69
184.00 45.22
185.00 47.05
186.00 46.57
187.00 44.60
188.00 42.64
189.00 41.13
190.00 40.05
191.00 39.36
192.00 39.01
193.00 38.97
194.00 39.25
195.00 39.84
196.00 40.77
197.00 42.05
198.00 43.65
199.00 45.29
200.00 46.08
201.00 45.19
202.00 43.29
203.00 41.31
204.00 39.62
205.00 38.25
206.00 37.17
207.00 36.35
208.00 35.74
209.00 35.32
210.00 35.06
211.00 34.93
212.00 34.90
213.00 34.93
214.00 34.97
215.00 34.95
216.00 34.82
217.00 34.55
218.00 34.11
219.00 33.55
220.00 32.91
221.00 32.25
222.00 31.60
223.00 31.00
224.00 30.47
225.00 30.01
226.00 29.64
227.00 29.35
228.00 29.14
229.00 29.01
230.00 28.95
231.00 28.96
232.00 29.04
233.00 29.16
234.00 29.33
235.00 29.52
236.00 29.74
237.00 29.96
238.00 30.18
239.00 30.39
240.00 30.59
241.00 30.77
242.00 30.94
243.00 31.10
244.00 31.27
245.00 31.46
246.00 31.67
247.00 31.90
248.00 32.17
249.00 32.46
250.00 32.77
251.00 33.09
252.00 33.38
253.00 33.63
254.00 33.81
255.00 33.89
256.00 33.87
257.00 33.74
258.00 33.53
259.00 33.26
260.00 32.95
261.00 32.64
262.00 32.33
263.00 32.04
264.00 31.77
265.00 31.53
266.00 31.29
267.00 31.05
268.00 30.80
269.00 30.52
270.00 30.20
271.00 29.82
272.00 29.37
273.00 28.87
274.00 28.31
275.00 27.71
276.00 27.07
277.00 26.40
278.00 25.73
279.00 25.05
280.00 24.38
281.00 23.72
282.00 23.06
283.00 22.42
284.00 21.80
285.00 21.18
286.00 20.58
287.00 19.98
288.00 19.40
289.00 18.83
290.00 18.26
291.00 17.71
292.00 17.16
293.00 16.62
294.00 16.09
295.00 15.56
296.00 15.05
297.00 14.54
298.00 14.03
299.00 13.54
300.00 13.06
301.00 12.59
302.00 12.12
303.00 11.66
304.00 11.21
305.00 10.77
306.00 10.35
307.00 9.92
308.00 9.51
309.00 9.10
310.00 8.70
311.00 8.31
312.00 7.93
313.00 7.56
314.00 7.19
315.00 6.83
316.00 6.48
317.00 6.14
318.00 5.80
319.00 5.48
320.00 5.16
321.00 4.85
322.00 4.56
323.00 4.27
324.00 4.00
325.00 3.73
326.00 3.48
327.00 3.24
328.00 3.01
329.00 2.79
330.00 2.59
331.00 2.39
332.00 2.21
333.00 2.04
334.00 1.88
335.00 1.73
336.00 1.60
337.00 1.47
338.00 1.35
339.00 1.24
340.00 1.13
341.00 1.03
342.00 0.94
343.00 0.86
344.00 0.77
345.00 0.69
346.00 0.62
347.00 0.55
348.00 0.48
349.00 0.41
350.00 0.35
351.00 0.29
352.00 0.23
353.00 0.18
354.00 0.13
355.00 0.09
356.00 0.06
357.00 0.03
358.00 0.01
359.00 0.00
VERTICAL 360
0.00 9.84
1.00 5.67
2.00 2.63
3.00 0.75
4.00 0.00
5.00 0.42
6.00 2.20
7.00 5.84
8.00 12.89
9.00 18.72
10.00 12.79
11.00 11.25
12.00 13.06
13.00 16.45
14.00 15.37
15.00 12.58
16.00 12.09
17.00 14.20
18.00 20.57
19.00 28.21
20.00 18.88
21.00 16.55
22.00 18.30
23.00 25.45
24.00 25.60
25.00 18.18
26.00 15.46
27.00 14.87
28.00 15.72
29.00 17.92
30.00 21.46
31.00 25.40
32.00 27.18
33.00 25.69
34.00 22.24
35.00 19.42
36.00 18.13
37.00 18.44
38.00 20.55
39.00 25.68
40.00 37.68
41.00 28.67
42.00 23.18
43.00 21.41
44.00 21.85
45.00 24.97
46.00 35.02
47.00 34.73
48.00 26.72
49.00 24.95
50.00 25.63
51.00 28.21
52.00 33.43
53.00 35.10
54.00 28.98
55.00 26.29
56.00 26.53
57.00 28.96
58.00 31.89
59.00 32.61
60.00 32.02
61.00 31.81
62.00 32.65
63.00 35.08
64.00 39.72
65.00 44.09
66.00 41.35
67.00 37.73
68.00 34.39
69.00 31.58
70.00 29.89
71.00 29.40
72.00 29.78
73.00 30.15
74.00 29.74
75.00 29.07
76.00 29.22
77.00 30.87
78.00 34.29
79.00 39.75
80.00 44.43
81.00 42.76
82.00 39.54
83.00 34.22
84.00 30.37
85.00 28.07
86.00 26.79
87.00 27.42
88.00 32.06
89.00 41.84
90.00 34.55
91.00 31.76
92.00 29.81
93.00 28.03
94.00 28.69
95.00 32.37
96.00 37.13
97.00 36.81
98.00 34.64
99.00 34.17
100.00 36.09
101.00 39.46
102.00 40.68
103.00 38.45
104.00 36.41
105.00 36.94
106.00 40.68
107.00 47.04
108.00 49.23
109.00 45.55
110.00 44.06
111.00 44.93
112.00 43.53
113.00 41.43
114.00 41.52
115.00 43.95
116.00 49.36
117.00 46.52
118.00 40.67
119.00 38.58
120.00 38.49
121.00 39.46
122.00 42.01
123.00 49.74
124.00 51.65
125.00 42.96
126.00 41.13
127.00 42.31
128.00 43.87
129.00 43.42
130.00 43.63
131.00 44.09
132.00 42.04
133.00 40.97
134.00 42.99
135.00 47.10
136.00 47.47
137.00 45.83
138.00 45.16
139.00 46.01
140.00 47.76
141.00 46.81
142.00 45.40
143.00 43.73
144.00 41.92
145.00 42.51
146.00 42.30
147.00 37.58
148.00 34.70
149.00 34.59
150.00 37.00
151.00 40.66
152.00 40.81
153.00 39.37
154.00 40.06
155.00 42.88
156.00 44.65
157.00 44.34
158.00 47.35
159.00 47.01
160.00 41.52
161.00 40.50
162.00 43.04
163.00 45.20
164.00 42.50
165.00 40.07
166.00 39.21
167.00 39.67
168.00 41.81
169.00 46.16
170.00 46.17
171.00 44.91
172.00 48.47
173.00 44.81
174.00 40.14
175.00 38.26
176.00 36.63
177.00 34.77
178.00 33.91
179.00 34.48
180.00 37.14
181.00 42.69
182.00 47.41
183.00 44.37
184.00 40.86
185.00 40.36
186.00 41.39
187.00 39.95
188.00 39.14
189.00 38.16
190.00 35.28
191.00 34.46
192.00 37.20
193.00 44.25
194.00 47.13
195.00 43.92
196.00 40.24
197.00 37.15
198.00 36.90
199.00 40.50
200.00 44.26
201.00 39.63
202.00 37.22
203.00 36.33
204.00 35.04
205.00 33.68
206.00 33.46
207.00 35.04
208.00 38.01
209.00 39.12
210.00 36.69
211.00 33.87
212.00 31.84
213.00 30.80
214.00 31.14
215.00 33.36
216.00 36.15
217.00 35.85
218.00 35.27
219.00 35.90
220.00 36.29
221.00 36.18
222.00 36.07
223.00 36.90
224.00 39.22
225.00 40.13
226.00 39.19
227.00 39.84
228.00 40.85
229.00 39.95
230.00 39.21
231.00 40.37
232.00 44.01
233.00 49.78
234.00 50.13
235.00 43.83
236.00 39.05
237.00 35.97
238.00 34.30
239.00 34.10
240.00 35.33
241.00 37.25
242.00 38.13
243.00 37.30
244.00 36.44
245.00 36.44
246.00 36.54
247.00 36.11
248.00 35.84
249.00 35.97
250.00 36.01
251.00 35.72
252.00 35.14
253.00 34.45
254.00 33.94
255.00 34.01
256.00 34.76
257.00 35.65
258.00 35.99
259.00 35.62
260.00 34.81
261.00 33.94
262.00 33.71
263.00 35.23
264.00 40.64
265.00 53.29
266.00 39.50
267.00 34.53
268.00 32.37
269.00 31.60
270.00 31.65
271.00 32.62
272.00 35.89
273.00 42.05
274.00 37.57
275.00 32.79
276.00 30.71
277.00 29.92
278.00 30.29
279.00 31.60
280.00 32.36
281.00 31.37
282.00 29.58
283.00 28.07
284.00 27.45
285.00 27.85
286.00 29.09
287.00 30.84
288.00 33.18
289.00 36.53
290.00 38.27
291.00 33.92
292.00 29.28
293.00 25.87
294.00 23.19
295.00 20.90
296.00 18.95
297.00 17.44
298.00 16.46
299.00 16.03
300.00 16.03
301.00 16.32
302.00 16.91
303.00 17.98
304.00 19.91
305.00 23.27
306.00 28.36
307.00 29.20
308.00 24.41
309.00 21.05
310.00 19.22
311.00 18.73
312.00 19.67
313.00 22.16
314.00 24.82
315.00 23.54
316.00 21.16
317.00 20.61
318.00 22.37
319.00 27.86
320.00 37.58
321.00 26.72
322.00 21.82
323.00 19.86
324.00 19.91
325.00 22.50
326.00 30.55
327.00 28.76
328.00 21.37
329.00 18.98
330.00 19.07
331.00 21.22
332.00 25.77
333.00 27.96
334.00 23.02
335.00 20.25
336.00 20.39
337.00 24.21
338.00 36.72
339.00 27.05
340.00 21.87
341.00 21.38
342.00 24.23
343.00 27.83
344.00 23.05
345.00 19.31
346.00 18.60
347.00 20.53
348.00 25.45
349.00 29.68
350.00 26.60
351.00 25.53
352.00 28.33
353.00 31.97
354.00 24.82
355.00 19.82
356.00 17.49
357.00 16.82
358.00 16.64
359.00 14.35
