NAME ATR4518R7_1880_X_CO_M45_07T_yL
FREQUENCY 1880
GAIN 14.94 dBd
TILT	ELECTRICAL
COMMENT DATE 05.08.2013 -45 degrees polarized system Lever position 07T deg
HORIZONTAL 360
0.00 0.00
1.00 0.00
2.00 0.00
3.00 0.01
4.00 0.02
5.00 0.04
6.00 0.07
7.00 0.10
8.00 0.14
9.00 0.18
10.00 0.23
11.00 0.28
12.00 0.34
13.00 0.40
14.00 0.47
15.00 0.54
16.00 0.62
17.00 0.70
18.00 0.78
19.00 0.87
20.00 0.97
21.00 1.06
22.00 1.17
23.00 1.28
24.00 1.39
25.00 1.51
26.00 1.64
27.00 1.77
28.00 1.91
29.00 2.05
30.00 2.21
31.00 2.36
32.00 2.53
33.00 2.70
34.00 2.88
35.00 3.07
36.00 3.27
37.00 3.47
38.00 3.69
39.00 3.91
40.00 4.14
41.00 4.38
42.00 4.63
43.00 4.88
44.00 5.15
45.00 5.42
46.00 5.71
47.00 6.00
48.00 6.30
49.00 6.61
50.00 6.93
51.00 7.26
52.00 7.59
53.00 7.93
54.00 8.28
55.00 8.64
56.00 9.00
57.00 9.37
58.00 9.75
59.00 10.13
60.00 10.51
61.00 10.90
62.00 11.29
63.00 11.68
64.00 12.08
65.00 12.48
66.00 12.87
67.00 13.27
68.00 13.67
69.00 14.06
70.00 14.46
71.00 14.85
72.00 15.23
73.00 15.61
74.00 15.98
75.00 16.35
76.00 16.71
77.00 17.07
78.00 17.42
79.00 17.76
80.00 18.09
81.00 18.43
82.00 18.75
83.00 19.08
84.00 19.40
85.00 19.73
86.00 20.06
87.00 20.39
88.00 20.72
89.00 21.07
90.00 21.42
91.00 21.77
92.00 22.14
93.00 22.51
94.00 22.88
95.00 23.26
96.00 23.63
97.00 23.99
98.00 24.33
99.00 24.65
100.00 24.93
101.00 25.18
102.00 25.38
103.00 25.54
104.00 25.65
105.00 25.73
106.00 25.77
107.00 25.79
108.00 25.81
109.00 25.82
110.00 25.84
111.00 25.88
112.00 25.95
113.00 26.05
114.00 26.18
115.00 26.35
116.00 26.55
117.00 26.80
118.00 27.06
119.00 27.36
120.00 27.66
121.00 27.96
122.00 28.25
123.00 28.50
124.00 28.70
125.00 28.85
126.00 28.93
127.00 28.96
128.00 28.93
129.00 28.88
130.00 28.81
131.00 28.76
132.00 28.73
133.00 28.74
134.00 28.80
135.00 28.93
136.00 29.14
137.00 29.42
138.00 29.79
139.00 30.25
140.00 30.80
141.00 31.45
142.00 32.18
143.00 32.98
144.00 33.82
145.00 34.62
146.00 35.29
147.00 35.73
148.00 35.84
149.00 35.63
150.00 35.17
151.00 34.58
152.00 33.95
153.00 33.35
154.00 32.79
155.00 32.31
156.00 31.89
157.00 31.55
158.00 31.27
159.00 31.04
160.00 30.86
161.00 30.73
162.00 30.63
163.00 30.56
164.00 30.53
165.00 30.53
166.00 30.55
167.00 30.62
168.00 30.71
169.00 30.84
170.00 31.00
171.00 31.18
172.00 31.38
173.00 31.57
174.00 31.72
175.00 31.81
176.00 31.80
177.00 31.66
178.00 31.39
179.00 31.01
180.00 30.53
181.00 30.00
182.00 29.45
183.00 28.93
184.00 28.45
185.00 28.04
186.00 27.70
187.00 27.45
188.00 27.30
189.00 27.25
190.00 27.32
191.00 27.50
192.00 27.82
193.00 28.29
194.00 28.93
195.00 29.76
196.00 30.83
197.00 32.18
198.00 33.87
199.00 35.91
200.00 38.05
201.00 39.16
202.00 38.08
203.00 35.84
204.00 33.64
205.00 31.79
206.00 30.28
207.00 29.07
208.00 28.09
209.00 27.32
210.00 26.73
211.00 26.30
212.00 26.01
213.00 25.87
214.00 25.86
215.00 25.99
216.00 26.26
217.00 26.69
218.00 27.27
219.00 28.05
220.00 29.06
221.00 30.35
222.00 32.02
223.00 34.23
224.00 37.30
225.00 41.76
226.00 45.66
227.00 41.47
228.00 37.04
229.00 33.96
230.00 31.72
231.00 30.00
232.00 28.65
233.00 27.56
234.00 26.67
235.00 25.95
236.00 25.38
237.00 24.92
238.00 24.56
239.00 24.29
240.00 24.11
241.00 23.99
242.00 23.94
243.00 23.93
244.00 23.97
245.00 24.05
246.00 24.13
247.00 24.22
248.00 24.30
249.00 24.34
250.00 24.33
251.00 24.26
252.00 24.13
253.00 23.93
254.00 23.67
255.00 23.35
256.00 23.00
257.00 22.63
258.00 22.25
259.00 21.87
260.00 21.50
261.00 21.15
262.00 20.81
263.00 20.51
264.00 20.22
265.00 19.96
266.00 19.71
267.00 19.48
268.00 19.27
269.00 19.06
270.00 18.85
271.00 18.64
272.00 18.42
273.00 18.18
274.00 17.93
275.00 17.66
276.00 17.37
277.00 17.05
278.00 16.72
279.00 16.36
280.00 15.99
281.00 15.61
282.00 15.22
283.00 14.82
284.00 14.43
285.00 14.03
286.00 13.64
287.00 13.26
288.00 12.88
289.00 12.51
290.00 12.15
291.00 11.80
292.00 11.46
293.00 11.12
294.00 10.80
295.00 10.49
296.00 10.18
297.00 9.89
298.00 9.59
299.00 9.31
300.00 9.04
301.00 8.77
302.00 8.50
303.00 8.25
304.00 8.00
305.00 7.76
306.00 7.52
307.00 7.29
308.00 7.06
309.00 6.85
310.00 6.63
311.00 6.43
312.00 6.23
313.00 6.03
314.00 5.84
315.00 5.66
316.00 5.48
317.00 5.30
318.00 5.13
319.00 4.95
320.00 4.78
321.00 4.61
322.00 4.45
323.00 4.28
324.00 4.11
325.00 3.94
326.00 3.77
327.00 3.60
328.00 3.43
329.00 3.26
330.00 3.10
331.00 2.93
332.00 2.76
333.00 2.60
334.00 2.44
335.00 2.28
336.00 2.12
337.00 1.97
338.00 1.82
339.00 1.67
340.00 1.53
341.00 1.40
342.00 1.27
343.00 1.14
344.00 1.02
345.00 0.91
346.00 0.80
347.00 0.70
348.00 0.61
349.00 0.52
350.00 0.44
351.00 0.36
352.00 0.29
353.00 0.23
354.00 0.18
355.00 0.13
356.00 0.09
357.00 0.06
358.00 0.03
359.00 0.01
VERTICAL 360
0.00 21.22
1.00 13.17
2.00 8.22
3.00 4.80
4.00 2.43
5.00 0.90
6.00 0.12
7.00 0.06
8.00 0.76
9.00 2.34
10.00 5.05
11.00 9.59
12.00 18.16
13.00 19.12
14.00 13.04
15.00 11.12
16.00 11.36
17.00 13.45
18.00 17.81
19.00 24.21
20.00 20.73
21.00 16.87
22.00 15.47
23.00 15.83
24.00 17.98
25.00 22.94
26.00 35.22
27.00 25.18
28.00 20.25
29.00 18.47
30.00 18.39
31.00 19.74
32.00 22.91
33.00 30.16
34.00 38.06
35.00 26.11
36.00 22.47
37.00 21.24
38.00 21.33
39.00 22.24
40.00 23.39
41.00 23.73
42.00 22.41
43.00 20.36
44.00 18.66
45.00 17.64
46.00 17.16
47.00 17.01
48.00 17.03
49.00 17.24
50.00 17.81
51.00 18.88
52.00 20.50
53.00 22.53
54.00 24.70
55.00 27.05
56.00 30.13
57.00 33.83
58.00 34.29
59.00 32.34
60.00 31.76
61.00 32.79
62.00 34.62
63.00 34.99
64.00 33.23
65.00 31.39
66.00 30.05
67.00 29.07
68.00 28.27
69.00 27.67
70.00 27.34
71.00 27.32
72.00 27.61
73.00 28.12
74.00 28.68
75.00 29.16
76.00 29.58
77.00 30.06
78.00 30.72
79.00 31.70
80.00 33.09
81.00 34.92
82.00 36.98
83.00 38.99
84.00 41.34
85.00 45.19
86.00 51.52
87.00 50.93
88.00 45.59
89.00 42.38
90.00 41.27
91.00 42.83
92.00 49.94
93.00 52.39
94.00 42.41
95.00 39.24
96.00 38.60
97.00 39.62
98.00 41.35
99.00 41.47
100.00 40.00
101.00 39.30
102.00 39.97
103.00 41.64
104.00 43.01
105.00 42.97
106.00 42.13
107.00 41.31
108.00 40.90
109.00 40.93
110.00 41.08
111.00 41.15
112.00 41.23
113.00 41.23
114.00 40.89
115.00 40.33
116.00 39.85
117.00 39.42
118.00 38.94
119.00 38.57
120.00 38.82
121.00 40.46
122.00 44.92
123.00 61.68
124.00 49.09
125.00 44.41
126.00 43.25
127.00 42.37
128.00 41.42
129.00 42.04
130.00 45.98
131.00 63.86
132.00 48.92
133.00 44.20
134.00 43.48
135.00 44.27
136.00 44.84
137.00 45.61
138.00 47.88
139.00 45.78
140.00 40.70
141.00 37.88
142.00 36.96
143.00 37.28
144.00 38.19
145.00 39.03
146.00 38.86
147.00 37.32
148.00 35.74
149.00 35.20
150.00 36.07
151.00 38.42
152.00 41.19
153.00 40.27
154.00 37.44
155.00 35.55
156.00 34.57
157.00 34.01
158.00 33.59
159.00 33.56
160.00 34.35
161.00 35.59
162.00 35.42
163.00 33.96
164.00 33.32
165.00 34.25
166.00 36.75
167.00 40.49
168.00 44.45
169.00 41.88
170.00 36.16
171.00 32.46
172.00 30.47
173.00 29.73
174.00 29.90
175.00 30.65
176.00 31.76
177.00 33.34
178.00 35.79
179.00 39.29
180.00 41.14
181.00 39.63
182.00 38.99
183.00 40.51
184.00 44.75
185.00 53.14
186.00 51.45
187.00 45.58
188.00 41.56
189.00 38.44
190.00 36.55
191.00 36.19
192.00 37.69
193.00 40.71
194.00 41.05
195.00 38.86
196.00 38.64
197.00 41.36
198.00 49.41
199.00 50.18
200.00 40.41
201.00 35.42
202.00 32.55
203.00 31.44
204.00 32.15
205.00 34.96
206.00 39.31
207.00 37.33
208.00 33.28
209.00 31.05
210.00 30.11
211.00 30.05
212.00 30.68
213.00 31.93
214.00 33.80
215.00 36.43
216.00 40.15
217.00 45.81
218.00 53.80
219.00 50.50
220.00 46.94
221.00 45.21
222.00 43.83
223.00 42.35
224.00 40.95
225.00 39.72
226.00 38.70
227.00 37.97
228.00 37.71
229.00 38.07
230.00 39.23
231.00 41.24
232.00 43.99
233.00 46.84
234.00 48.38
235.00 47.95
236.00 47.10
237.00 47.31
238.00 48.82
239.00 49.40
240.00 47.72
241.00 47.18
242.00 49.73
243.00 54.65
244.00 47.85
245.00 43.16
246.00 41.33
247.00 41.51
248.00 43.39
249.00 46.24
250.00 48.55
251.00 51.45
252.00 59.07
253.00 49.64
254.00 43.31
255.00 39.95
256.00 38.00
257.00 36.79
258.00 35.90
259.00 34.97
260.00 33.78
261.00 32.46
262.00 31.26
263.00 30.33
264.00 29.70
265.00 29.29
266.00 28.98
267.00 28.60
268.00 28.11
269.00 27.59
270.00 27.15
271.00 26.87
272.00 26.77
273.00 26.78
274.00 26.83
275.00 26.86
276.00 26.84
277.00 26.85
278.00 27.02
279.00 27.51
280.00 28.49
281.00 30.10
282.00 32.43
283.00 35.39
284.00 38.25
285.00 39.33
286.00 38.15
287.00 35.86
288.00 33.22
289.00 30.61
290.00 28.27
291.00 26.33
292.00 24.80
293.00 23.65
294.00 22.82
295.00 22.27
296.00 21.97
297.00 22.00
298.00 22.49
299.00 23.66
300.00 25.91
301.00 30.12
302.00 39.54
303.00 36.34
304.00 29.19
305.00 25.60
306.00 23.28
307.00 21.63
308.00 20.55
309.00 20.12
310.00 20.49
311.00 21.85
312.00 24.46
313.00 28.91
314.00 34.62
315.00 29.87
316.00 24.70
317.00 21.61
318.00 19.89
319.00 19.28
320.00 19.67
321.00 21.11
322.00 23.74
323.00 27.69
324.00 30.13
325.00 27.05
326.00 24.25
327.00 23.14
328.00 23.68
329.00 25.93
330.00 29.87
331.00 32.08
332.00 29.37
333.00 27.20
334.00 26.22
335.00 25.65
336.00 24.76
337.00 23.62
338.00 22.84
339.00 22.89
340.00 23.98
341.00 25.88
342.00 26.15
343.00 23.12
344.00 20.05
345.00 18.12
346.00 17.38
347.00 17.84
348.00 19.71
349.00 23.82
350.00 35.12
351.00 30.42
352.00 23.30
353.00 21.03
354.00 21.23
355.00 23.44
356.00 26.15
357.00 26.16
358.00 27.50
359.00 48.72
