NAME ATR4518R7_2350_X_CO_M45_00T_yyR
FREQUENCY 2350
GAIN 15.70 dBd
TILT	ELECTRICAL
COMMENT DATE 05.08.2013 -45 degrees polarized system Lever position 00T deg
HORIZONTAL 360
0.00 0.04
1.00 0.02
2.00 0.01
3.00 0.00
4.00 0.01
5.00 0.02
6.00 0.05
7.00 0.08
8.00 0.12
9.00 0.17
10.00 0.23
11.00 0.29
12.00 0.37
13.00 0.45
14.00 0.54
15.00 0.63
16.00 0.73
17.00 0.84
18.00 0.95
19.00 1.07
20.00 1.19
21.00 1.32
22.00 1.46
23.00 1.60
24.00 1.75
25.00 1.90
26.00 2.07
27.00 2.24
28.00 2.42
29.00 2.62
30.00 2.82
31.00 3.04
32.00 3.27
33.00 3.51
34.00 3.76
35.00 4.03
36.00 4.31
37.00 4.61
38.00 4.93
39.00 5.26
40.00 5.60
41.00 5.97
42.00 6.35
43.00 6.74
44.00 7.16
45.00 7.58
46.00 8.03
47.00 8.49
48.00 8.96
49.00 9.44
50.00 9.93
51.00 10.44
52.00 10.96
53.00 11.48
54.00 12.01
55.00 12.55
56.00 13.09
57.00 13.64
58.00 14.19
59.00 14.74
60.00 15.30
61.00 15.86
62.00 16.42
63.00 16.98
64.00 17.55
65.00 18.13
66.00 18.71
67.00 19.30
68.00 19.89
69.00 20.49
70.00 21.10
71.00 21.71
72.00 22.33
73.00 22.94
74.00 23.56
75.00 24.17
76.00 24.77
77.00 25.35
78.00 25.90
79.00 26.43
80.00 26.92
81.00 27.36
82.00 27.75
83.00 28.10
84.00 28.39
85.00 28.64
86.00 28.85
87.00 29.03
88.00 29.19
89.00 29.33
90.00 29.47
91.00 29.62
92.00 29.77
93.00 29.93
94.00 30.12
95.00 30.31
96.00 30.53
97.00 30.75
98.00 30.98
99.00 31.21
100.00 31.42
101.00 31.59
102.00 31.71
103.00 31.78
104.00 31.79
105.00 31.72
106.00 31.60
107.00 31.43
108.00 31.24
109.00 31.02
110.00 30.81
111.00 30.62
112.00 30.46
113.00 30.33
114.00 30.25
115.00 30.23
116.00 30.26
117.00 30.35
118.00 30.50
119.00 30.72
120.00 31.00
121.00 31.35
122.00 31.77
123.00 32.24
124.00 32.78
125.00 33.38
126.00 34.01
127.00 34.68
128.00 35.36
129.00 36.04
130.00 36.71
131.00 37.34
132.00 37.92
133.00 38.48
134.00 39.02
135.00 39.58
136.00 40.21
137.00 40.95
138.00 41.87
139.00 43.06
140.00 44.63
141.00 46.79
142.00 49.88
143.00 54.20
144.00 55.51
145.00 50.78
146.00 46.75
147.00 43.84
148.00 41.65
149.00 39.94
150.00 38.57
151.00 37.48
152.00 36.61
153.00 35.93
154.00 35.42
155.00 35.07
156.00 34.86
157.00 34.81
158.00 34.90
159.00 35.13
160.00 35.53
161.00 36.11
162.00 36.87
163.00 37.84
164.00 39.05
165.00 40.47
166.00 41.98
167.00 43.18
168.00 43.37
169.00 42.34
170.00 40.67
171.00 38.95
172.00 37.41
173.00 36.09
174.00 34.98
175.00 34.06
176.00 33.31
177.00 32.70
178.00 32.22
179.00 31.86
180.00 31.62
181.00 31.47
182.00 31.43
183.00 31.47
184.00 31.61
185.00 31.83
186.00 32.13
187.00 32.50
188.00 32.94
189.00 33.43
190.00 33.96
191.00 34.49
192.00 35.01
193.00 35.48
194.00 35.88
195.00 36.16
196.00 36.33
197.00 36.41
198.00 36.41
199.00 36.39
200.00 36.36
201.00 36.37
202.00 36.45
203.00 36.61
204.00 36.87
205.00 37.26
206.00 37.78
207.00 38.47
208.00 39.33
209.00 40.42
210.00 41.76
211.00 43.40
212.00 45.36
213.00 47.47
214.00 49.06
215.00 48.96
216.00 47.39
217.00 45.51
218.00 43.87
219.00 42.54
220.00 41.51
221.00 40.76
222.00 40.22
223.00 39.89
224.00 39.74
225.00 39.76
226.00 39.94
227.00 40.23
228.00 40.63
229.00 41.05
230.00 41.40
231.00 41.57
232.00 41.40
233.00 40.86
234.00 40.03
235.00 39.02
236.00 37.97
237.00 36.94
238.00 35.99
239.00 35.12
240.00 34.34
241.00 33.66
242.00 33.06
243.00 32.55
244.00 32.12
245.00 31.76
246.00 31.47
247.00 31.24
248.00 31.07
249.00 30.96
250.00 30.88
251.00 30.84
252.00 30.84
253.00 30.85
254.00 30.87
255.00 30.89
256.00 30.89
257.00 30.86
258.00 30.78
259.00 30.64
260.00 30.43
261.00 30.15
262.00 29.80
263.00 29.39
264.00 28.92
265.00 28.41
266.00 27.87
267.00 27.32
268.00 26.76
269.00 26.20
270.00 25.65
271.00 25.10
272.00 24.57
273.00 24.06
274.00 23.56
275.00 23.08
276.00 22.61
277.00 22.16
278.00 21.72
279.00 21.29
280.00 20.87
281.00 20.46
282.00 20.06
283.00 19.65
284.00 19.26
285.00 18.86
286.00 18.46
287.00 18.05
288.00 17.65
289.00 17.23
290.00 16.82
291.00 16.39
292.00 15.96
293.00 15.53
294.00 15.08
295.00 14.63
296.00 14.18
297.00 13.73
298.00 13.27
299.00 12.81
300.00 12.35
301.00 11.90
302.00 11.44
303.00 10.99
304.00 10.54
305.00 10.10
306.00 9.66
307.00 9.24
308.00 8.82
309.00 8.41
310.00 8.01
311.00 7.62
312.00 7.24
313.00 6.88
314.00 6.52
315.00 6.18
316.00 5.85
317.00 5.53
318.00 5.22
319.00 4.93
320.00 4.65
321.00 4.39
322.00 4.13
323.00 3.90
324.00 3.67
325.00 3.45
326.00 3.25
327.00 3.06
328.00 2.88
329.00 2.71
330.00 2.55
331.00 2.41
332.00 2.27
333.00 2.14
334.00 2.02
335.00 1.91
336.00 1.80
337.00 1.70
338.00 1.60
339.00 1.51
340.00 1.42
341.00 1.33
342.00 1.25
343.00 1.17
344.00 1.08
345.00 1.00
346.00 0.92
347.00 0.84
348.00 0.76
349.00 0.68
350.00 0.60
351.00 0.53
352.00 0.46
353.00 0.39
354.00 0.32
355.00 0.26
356.00 0.20
357.00 0.15
358.00 0.11
359.00 0.07
VERTICAL 360
0.00 0.00
1.00 0.45
2.00 2.10
3.00 5.33
4.00 11.41
5.00 31.74
6.00 17.36
7.00 13.15
8.00 13.70
9.00 18.39
10.00 24.35
11.00 16.97
12.00 13.30
13.00 12.80
14.00 14.81
15.00 20.01
16.00 24.91
17.00 20.24
18.00 18.07
19.00 19.24
20.00 23.83
21.00 26.68
22.00 21.53
23.00 18.23
24.00 16.63
25.00 15.94
26.00 16.05
27.00 16.98
28.00 18.40
29.00 19.33
30.00 18.74
31.00 16.97
32.00 15.29
33.00 14.57
34.00 15.15
35.00 17.10
36.00 20.64
37.00 26.83
38.00 38.57
39.00 29.66
40.00 24.47
41.00 22.95
42.00 23.96
43.00 28.24
44.00 36.94
45.00 30.76
46.00 26.13
47.00 24.78
48.00 24.96
49.00 26.04
50.00 27.93
51.00 30.68
52.00 32.74
53.00 31.28
54.00 29.07
55.00 28.38
56.00 29.14
57.00 30.15
58.00 30.23
59.00 29.88
60.00 29.57
61.00 28.99
62.00 28.16
63.00 27.63
64.00 27.80
65.00 28.37
66.00 28.70
67.00 28.71
68.00 28.90
69.00 29.52
70.00 30.44
71.00 31.54
72.00 32.96
73.00 34.47
74.00 35.00
75.00 34.28
76.00 32.64
77.00 30.31
78.00 27.97
79.00 26.37
80.00 25.79
81.00 25.93
82.00 26.16
83.00 26.24
84.00 26.53
85.00 27.37
86.00 28.93
87.00 30.79
88.00 31.66
89.00 30.72
90.00 28.54
91.00 26.78
92.00 26.50
93.00 27.75
94.00 30.01
95.00 32.80
96.00 35.31
97.00 35.60
98.00 35.37
99.00 36.59
100.00 38.33
101.00 39.77
102.00 41.34
103.00 41.25
104.00 40.14
105.00 40.40
106.00 42.29
107.00 44.46
108.00 44.35
109.00 42.51
110.00 40.55
111.00 39.31
112.00 39.13
113.00 39.73
114.00 40.79
115.00 42.15
116.00 43.01
117.00 44.09
118.00 48.05
119.00 51.02
120.00 45.96
121.00 44.19
122.00 45.34
123.00 45.49
124.00 43.51
125.00 43.64
126.00 48.16
127.00 61.35
128.00 57.49
129.00 50.89
130.00 43.20
131.00 39.37
132.00 38.26
133.00 38.67
134.00 39.77
135.00 41.18
136.00 42.71
137.00 43.57
138.00 43.01
139.00 42.92
140.00 44.84
141.00 44.22
142.00 40.78
143.00 39.66
144.00 40.92
145.00 43.50
146.00 46.44
147.00 51.52
148.00 56.52
149.00 44.12
150.00 39.24
151.00 38.34
152.00 40.51
153.00 44.94
154.00 48.04
155.00 46.02
156.00 44.08
157.00 47.93
158.00 50.77
159.00 40.15
160.00 36.80
161.00 36.60
162.00 38.44
163.00 40.58
164.00 38.94
165.00 36.57
166.00 36.26
167.00 37.64
168.00 39.17
169.00 39.18
170.00 38.15
171.00 37.72
172.00 38.52
173.00 40.45
174.00 44.36
175.00 47.82
176.00 40.57
177.00 35.49
178.00 32.90
179.00 31.82
180.00 31.47
181.00 31.23
182.00 31.50
183.00 33.13
184.00 36.52
185.00 40.13
186.00 41.23
187.00 42.51
188.00 46.79
189.00 51.99
190.00 46.75
191.00 43.20
192.00 42.73
193.00 43.72
194.00 44.69
195.00 45.63
196.00 40.55
197.00 35.51
198.00 34.26
199.00 37.41
200.00 46.96
201.00 40.92
202.00 37.84
203.00 39.05
204.00 40.64
205.00 37.86
206.00 33.89
207.00 32.31
208.00 33.97
209.00 40.73
210.00 49.21
211.00 40.96
212.00 38.25
213.00 37.11
214.00 37.22
215.00 37.79
216.00 37.42
217.00 37.48
218.00 39.36
219.00 41.70
220.00 40.92
221.00 39.68
222.00 40.15
223.00 41.34
224.00 42.03
225.00 43.30
226.00 44.68
227.00 43.65
228.00 42.88
229.00 43.03
230.00 40.86
231.00 38.12
232.00 37.37
233.00 38.95
234.00 42.49
235.00 45.43
236.00 45.59
237.00 44.87
238.00 42.50
239.00 38.71
240.00 35.26
241.00 33.06
242.00 32.55
243.00 34.26
244.00 39.63
245.00 52.33
246.00 43.25
247.00 39.22
248.00 37.64
249.00 36.19
250.00 34.96
251.00 34.53
252.00 35.04
253.00 35.87
254.00 36.15
255.00 35.96
256.00 35.62
257.00 34.98
258.00 34.09
259.00 33.17
260.00 32.07
261.00 30.50
262.00 28.76
263.00 27.29
264.00 26.13
265.00 25.08
266.00 24.02
267.00 23.04
268.00 22.32
269.00 21.96
270.00 21.97
271.00 22.22
272.00 22.46
273.00 22.51
274.00 22.40
275.00 22.31
276.00 22.37
277.00 22.74
278.00 23.63
279.00 25.10
280.00 26.83
281.00 28.12
282.00 28.52
283.00 28.46
284.00 28.69
285.00 29.74
286.00 31.87
287.00 34.98
288.00 37.07
289.00 36.33
290.00 35.27
291.00 34.86
292.00 34.16
293.00 32.42
294.00 30.07
295.00 28.09
296.00 27.13
297.00 27.52
298.00 29.43
299.00 32.50
300.00 34.32
301.00 32.94
302.00 30.89
303.00 28.99
304.00 27.27
305.00 26.48
306.00 27.41
307.00 30.67
308.00 35.85
309.00 36.62
310.00 34.72
311.00 32.53
312.00 28.02
313.00 24.08
314.00 22.19
315.00 22.46
316.00 25.08
317.00 31.10
318.00 37.38
319.00 30.38
320.00 25.64
321.00 22.78
322.00 20.97
323.00 19.91
324.00 19.27
325.00 18.71
326.00 18.15
327.00 17.65
328.00 17.46
329.00 17.74
330.00 18.07
331.00 18.01
332.00 18.25
333.00 19.87
334.00 23.90
335.00 33.76
336.00 34.97
337.00 25.97
338.00 22.51
339.00 21.21
340.00 21.92
341.00 25.03
342.00 28.66
343.00 27.14
344.00 26.31
345.00 30.04
346.00 40.45
347.00 29.43
348.00 24.67
349.00 23.63
350.00 23.93
351.00 23.18
352.00 22.13
353.00 24.32
354.00 29.41
355.00 17.12
356.00 9.73
357.00 5.24
358.00 2.34
359.00 0.64
