NAME ATR4518R7_2655_X_CO_M45_05T_yyR
FREQUENCY 2655
GAIN 16.18 dBd
TILT	ELECTRICAL
COMMENT DATE 05.08.2013 -45 degrees polarized system Lever position 05T deg
HORIZONTAL 360
0.00 0.01
1.00 0.00
2.00 0.00
3.00 0.01
4.00 0.04
5.00 0.07
6.00 0.11
7.00 0.18
8.00 0.26
9.00 0.34
10.00 0.44
11.00 0.56
12.00 0.69
13.00 0.82
14.00 0.97
15.00 1.13
16.00 1.30
17.00 1.47
18.00 1.65
19.00 1.84
20.00 2.01
21.00 2.20
22.00 2.39
23.00 2.57
24.00 2.75
25.00 2.92
26.00 3.10
27.00 3.27
28.00 3.44
29.00 3.61
30.00 3.76
31.00 3.93
32.00 4.10
33.00 4.28
34.00 4.45
35.00 4.64
36.00 4.84
37.00 5.04
38.00 5.26
39.00 5.49
40.00 5.74
41.00 6.00
42.00 6.29
43.00 6.62
44.00 6.97
45.00 7.33
46.00 7.72
47.00 8.13
48.00 8.55
49.00 9.00
50.00 9.47
51.00 9.96
52.00 10.46
53.00 10.98
54.00 11.52
55.00 12.08
56.00 12.66
57.00 13.26
58.00 13.88
59.00 14.52
60.00 15.19
61.00 15.87
62.00 16.59
63.00 17.34
64.00 18.11
65.00 18.91
66.00 19.73
67.00 20.60
68.00 21.49
69.00 22.40
70.00 23.35
71.00 24.30
72.00 25.25
73.00 26.21
74.00 27.15
75.00 28.06
76.00 28.96
77.00 29.81
78.00 30.64
79.00 31.44
80.00 32.22
81.00 32.97
82.00 33.65
83.00 34.20
84.00 34.58
85.00 34.67
86.00 34.46
87.00 33.98
88.00 33.32
89.00 32.58
90.00 31.83
91.00 31.12
92.00 30.49
93.00 29.94
94.00 29.50
95.00 29.16
96.00 28.93
97.00 28.79
98.00 28.76
99.00 28.83
100.00 28.99
101.00 29.24
102.00 29.56
103.00 29.95
104.00 30.37
105.00 30.80
106.00 31.20
107.00 31.54
108.00 31.76
109.00 31.86
110.00 31.84
111.00 31.74
112.00 31.60
113.00 31.46
114.00 31.37
115.00 31.35
116.00 31.44
117.00 31.64
118.00 31.99
119.00 32.51
120.00 33.21
121.00 34.14
122.00 35.34
123.00 36.86
124.00 38.81
125.00 41.30
126.00 44.30
127.00 46.68
128.00 45.87
129.00 43.26
130.00 40.94
131.00 39.21
132.00 37.97
133.00 37.13
134.00 36.62
135.00 36.40
136.00 36.45
137.00 36.76
138.00 37.32
139.00 38.14
140.00 39.20
141.00 40.44
142.00 41.63
143.00 42.38
144.00 42.24
145.00 41.31
146.00 40.05
147.00 38.81
148.00 37.77
149.00 36.96
150.00 36.38
151.00 36.02
152.00 35.87
153.00 35.92
154.00 36.15
155.00 36.52
156.00 36.98
157.00 37.43
158.00 37.73
159.00 37.71
160.00 37.27
161.00 36.49
162.00 35.51
163.00 34.49
164.00 33.51
165.00 32.64
166.00 31.89
167.00 31.27
168.00 30.77
169.00 30.41
170.00 30.16
171.00 30.04
172.00 30.02
173.00 30.12
174.00 30.34
175.00 30.66
176.00 31.11
177.00 31.66
178.00 32.35
179.00 33.16
180.00 34.11
181.00 35.21
182.00 36.48
183.00 37.95
184.00 39.64
185.00 41.60
186.00 43.86
187.00 46.38
188.00 48.80
189.00 50.02
190.00 49.24
191.00 47.50
192.00 45.74
193.00 44.22
194.00 42.92
195.00 41.82
196.00 40.88
197.00 40.07
198.00 39.37
199.00 38.77
200.00 38.27
201.00 37.86
202.00 37.54
203.00 37.30
204.00 37.13
205.00 37.03
206.00 36.98
207.00 36.96
208.00 36.97
209.00 36.97
210.00 36.96
211.00 36.93
212.00 36.86
213.00 36.76
214.00 36.62
215.00 36.47
216.00 36.31
217.00 36.14
218.00 35.97
219.00 35.78
220.00 35.58
221.00 35.35
222.00 35.07
223.00 34.75
224.00 34.38
225.00 33.97
226.00 33.54
227.00 33.11
228.00 32.69
229.00 32.31
230.00 31.98
231.00 31.71
232.00 31.53
233.00 31.42
234.00 31.40
235.00 31.47
236.00 31.63
237.00 31.88
238.00 32.22
239.00 32.63
240.00 33.09
241.00 33.57
242.00 34.03
243.00 34.42
244.00 34.69
245.00 34.81
246.00 34.78
247.00 34.64
248.00 34.43
249.00 34.20
250.00 34.01
251.00 33.89
252.00 33.87
253.00 33.95
254.00 34.18
255.00 34.54
256.00 35.08
257.00 35.81
258.00 36.77
259.00 38.01
260.00 39.62
261.00 41.77
262.00 44.76
263.00 49.29
264.00 54.90
265.00 50.66
266.00 45.47
267.00 42.05
268.00 39.58
269.00 37.66
270.00 36.11
271.00 34.80
272.00 33.67
273.00 32.67
274.00 31.76
275.00 30.92
276.00 30.13
277.00 29.39
278.00 28.67
279.00 27.99
280.00 27.31
281.00 26.66
282.00 26.02
283.00 25.41
284.00 24.81
285.00 24.23
286.00 23.67
287.00 23.13
288.00 22.60
289.00 22.09
290.00 21.59
291.00 21.11
292.00 20.62
293.00 20.16
294.00 19.69
295.00 19.23
296.00 18.77
297.00 18.31
298.00 17.83
299.00 17.36
300.00 16.88
301.00 16.39
302.00 15.90
303.00 15.40
304.00 14.90
305.00 14.39
306.00 13.89
307.00 13.37
308.00 12.86
309.00 12.35
310.00 11.84
311.00 11.34
312.00 10.84
313.00 10.37
314.00 9.90
315.00 9.44
316.00 8.99
317.00 8.54
318.00 8.10
319.00 7.67
320.00 7.25
321.00 6.84
322.00 6.45
323.00 6.06
324.00 5.69
325.00 5.33
326.00 4.99
327.00 4.66
328.00 4.34
329.00 4.03
330.00 3.74
331.00 3.47
332.00 3.21
333.00 2.97
334.00 2.74
335.00 2.53
336.00 2.33
337.00 2.13
338.00 1.96
339.00 1.80
340.00 1.64
341.00 1.50
342.00 1.36
343.00 1.24
344.00 1.12
345.00 1.01
346.00 0.91
347.00 0.81
348.00 0.72
349.00 0.63
350.00 0.54
351.00 0.47
352.00 0.40
353.00 0.32
354.00 0.26
355.00 0.20
356.00 0.15
357.00 0.10
358.00 0.06
359.00 0.03
VERTICAL 360
0.00 24.49
1.00 12.52
2.00 6.39
3.00 2.70
4.00 0.66
5.00 0.00
6.00 0.68
7.00 2.89
8.00 7.30
9.00 17.45
10.00 22.53
11.00 13.96
12.00 13.93
13.00 19.04
14.00 23.47
15.00 16.06
16.00 13.72
17.00 15.16
18.00 21.50
19.00 24.38
20.00 17.11
21.00 15.31
22.00 17.02
23.00 23.67
24.00 32.43
25.00 20.05
26.00 16.57
27.00 16.05
28.00 17.73
29.00 21.72
30.00 27.36
31.00 28.73
32.00 24.93
33.00 20.86
34.00 18.35
35.00 17.65
36.00 18.78
37.00 22.19
38.00 29.92
39.00 33.41
40.00 26.96
41.00 25.62
42.00 27.08
43.00 31.52
44.00 45.54
45.00 34.77
46.00 27.37
47.00 24.12
48.00 23.04
49.00 23.67
50.00 25.80
51.00 29.27
52.00 34.12
53.00 39.91
54.00 41.58
55.00 41.98
56.00 49.05
57.00 36.44
58.00 30.24
59.00 28.23
60.00 28.58
61.00 30.35
62.00 32.55
63.00 32.81
64.00 29.74
65.00 26.26
66.00 23.79
67.00 22.46
68.00 22.09
69.00 22.27
70.00 22.47
71.00 22.43
72.00 22.41
73.00 22.81
74.00 23.73
75.00 24.75
76.00 25.48
77.00 26.29
78.00 27.62
79.00 29.38
80.00 31.05
81.00 32.69
82.00 36.72
83.00 37.48
84.00 29.94
85.00 26.91
86.00 26.84
87.00 28.27
88.00 30.52
89.00 35.09
90.00 37.46
91.00 32.92
92.00 32.22
93.00 34.27
94.00 35.81
95.00 37.34
96.00 43.98
97.00 49.50
98.00 40.18
99.00 38.14
100.00 38.33
101.00 38.90
102.00 39.73
103.00 41.06
104.00 39.60
105.00 36.66
106.00 35.48
107.00 36.07
108.00 37.75
109.00 39.56
110.00 40.76
111.00 41.87
112.00 43.23
113.00 41.83
114.00 38.49
115.00 36.33
116.00 35.40
117.00 35.19
118.00 35.35
119.00 35.60
120.00 35.96
121.00 36.68
122.00 37.59
123.00 38.37
124.00 39.58
125.00 42.13
126.00 46.07
127.00 49.37
128.00 49.71
129.00 48.35
130.00 44.77
131.00 40.74
132.00 38.71
133.00 38.69
134.00 39.36
135.00 38.63
136.00 36.44
137.00 34.90
138.00 35.43
139.00 38.13
140.00 40.82
141.00 42.66
142.00 44.06
143.00 42.84
144.00 45.94
145.00 45.30
146.00 38.75
147.00 37.95
148.00 39.01
149.00 38.33
150.00 40.13
151.00 52.72
152.00 44.44
153.00 40.12
154.00 39.91
155.00 37.88
156.00 35.41
157.00 34.33
158.00 34.07
159.00 34.28
160.00 35.83
161.00 40.46
162.00 50.62
163.00 44.09
164.00 38.78
165.00 37.87
166.00 42.52
167.00 63.85
168.00 39.63
169.00 37.98
170.00 41.61
171.00 50.10
172.00 59.46
173.00 44.31
174.00 37.85
175.00 35.83
176.00 35.20
177.00 33.50
178.00 31.83
179.00 31.88
180.00 33.97
181.00 37.41
182.00 39.47
183.00 38.79
184.00 37.60
185.00 36.52
186.00 35.76
187.00 35.66
188.00 35.98
189.00 36.49
190.00 37.49
191.00 37.72
192.00 36.78
193.00 36.95
194.00 39.03
195.00 41.41
196.00 38.85
197.00 35.26
198.00 34.24
199.00 35.40
200.00 36.19
201.00 35.08
202.00 35.08
203.00 37.91
204.00 44.40
205.00 48.67
206.00 47.43
207.00 44.63
208.00 42.68
209.00 45.25
210.00 47.30
211.00 43.01
212.00 39.92
213.00 37.51
214.00 37.41
215.00 41.22
216.00 50.12
217.00 53.67
218.00 43.21
219.00 36.98
220.00 34.72
221.00 34.76
222.00 36.27
223.00 39.74
224.00 45.69
225.00 47.19
226.00 42.60
227.00 38.50
228.00 37.56
229.00 38.31
230.00 35.52
231.00 32.55
232.00 32.18
233.00 34.35
234.00 38.99
235.00 43.84
236.00 43.44
237.00 40.94
238.00 38.64
239.00 37.88
240.00 38.84
241.00 39.81
242.00 38.82
243.00 37.08
244.00 36.40
245.00 37.53
246.00 39.99
247.00 41.41
248.00 41.15
249.00 40.49
250.00 39.23
251.00 37.56
252.00 36.36
253.00 36.37
254.00 37.41
255.00 38.23
256.00 38.70
257.00 40.13
258.00 42.02
259.00 40.76
260.00 37.30
261.00 34.47
262.00 32.77
263.00 32.33
264.00 33.35
265.00 36.19
266.00 39.33
267.00 36.10
268.00 32.30
269.00 31.23
270.00 32.88
271.00 37.85
272.00 47.97
273.00 49.02
274.00 43.22
275.00 39.70
276.00 38.61
277.00 39.92
278.00 41.80
279.00 41.93
280.00 42.22
281.00 43.31
282.00 45.35
283.00 53.74
284.00 46.39
285.00 39.35
286.00 36.94
287.00 35.96
288.00 35.18
289.00 34.56
290.00 34.31
291.00 34.11
292.00 33.04
293.00 31.07
294.00 29.35
295.00 28.55
296.00 29.21
297.00 32.37
298.00 33.21
299.00 25.69
300.00 20.45
301.00 17.19
302.00 15.04
303.00 13.52
304.00 12.44
305.00 11.81
306.00 11.70
307.00 12.15
308.00 13.16
309.00 14.88
310.00 17.68
311.00 22.43
312.00 29.92
313.00 27.73
314.00 22.86
315.00 21.03
316.00 21.32
317.00 23.88
318.00 27.54
319.00 25.41
320.00 22.52
321.00 22.64
322.00 26.33
323.00 39.76
324.00 29.24
325.00 22.28
326.00 19.88
327.00 20.33
328.00 24.60
329.00 36.15
330.00 25.20
331.00 19.89
332.00 18.50
333.00 19.89
334.00 25.44
335.00 30.72
336.00 22.29
337.00 19.48
338.00 20.13
339.00 24.06
340.00 30.30
341.00 27.03
342.00 24.04
343.00 25.10
344.00 32.13
345.00 41.43
346.00 27.48
347.00 24.81
348.00 25.00
349.00 26.74
350.00 28.41
351.00 28.71
352.00 29.50
353.00 32.11
354.00 31.38
355.00 28.53
356.00 29.07
357.00 30.13
358.00 27.78
359.00 34.26
