NAME ATR4518R7_1750_X_CO_M45_04T_yL
FREQUENCY 1750
GAIN 14.83 dBd
TILT	ELECTRICAL
COMMENT DATE 05.08.2013 -45 degrees polarized system Lever position 04T deg
HORIZONTAL 360
0.00 0.00
1.00 0.00
2.00 0.00
3.00 0.02
4.00 0.05
5.00 0.09
6.00 0.12
7.00 0.16
8.00 0.21
9.00 0.26
10.00 0.31
11.00 0.37
12.00 0.43
13.00 0.49
14.00 0.56
15.00 0.64
16.00 0.71
17.00 0.80
18.00 0.88
19.00 0.98
20.00 1.07
21.00 1.18
22.00 1.28
23.00 1.40
24.00 1.51
25.00 1.64
26.00 1.76
27.00 1.89
28.00 2.03
29.00 2.17
30.00 2.32
31.00 2.47
32.00 2.62
33.00 2.78
34.00 2.95
35.00 3.12
36.00 3.29
37.00 3.47
38.00 3.65
39.00 3.84
40.00 4.03
41.00 4.23
42.00 4.42
43.00 4.62
44.00 4.83
45.00 5.04
46.00 5.25
47.00 5.47
48.00 5.69
49.00 5.91
50.00 6.14
51.00 6.37
52.00 6.61
53.00 6.84
54.00 7.09
55.00 7.34
56.00 7.58
57.00 7.84
58.00 8.09
59.00 8.36
60.00 8.64
61.00 8.91
62.00 9.19
63.00 9.48
64.00 9.80
65.00 10.13
66.00 10.46
67.00 10.80
68.00 11.16
69.00 11.52
70.00 11.89
71.00 12.27
72.00 12.67
73.00 13.06
74.00 13.47
75.00 13.89
76.00 14.31
77.00 14.75
78.00 15.19
79.00 15.62
80.00 16.08
81.00 16.51
82.00 16.95
83.00 17.39
84.00 17.82
85.00 18.24
86.00 18.64
87.00 19.05
88.00 19.43
89.00 19.80
90.00 20.15
91.00 20.49
92.00 20.82
93.00 21.14
94.00 21.45
95.00 21.74
96.00 22.04
97.00 22.33
98.00 22.63
99.00 22.94
100.00 23.25
101.00 23.56
102.00 23.88
103.00 24.21
104.00 24.55
105.00 24.89
106.00 25.22
107.00 25.55
108.00 25.87
109.00 26.18
110.00 26.47
111.00 26.73
112.00 26.97
113.00 27.17
114.00 27.35
115.00 27.50
116.00 27.64
117.00 27.76
118.00 27.86
119.00 27.96
120.00 28.06
121.00 28.15
122.00 28.23
123.00 28.32
124.00 28.39
125.00 28.43
126.00 28.46
127.00 28.45
128.00 28.42
129.00 28.34
130.00 28.24
131.00 28.10
132.00 27.95
133.00 27.78
134.00 27.60
135.00 27.43
136.00 27.27
137.00 27.15
138.00 27.04
139.00 26.99
140.00 26.96
141.00 26.99
142.00 27.05
143.00 27.17
144.00 27.31
145.00 27.51
146.00 27.73
147.00 27.97
148.00 28.22
149.00 28.47
150.00 28.68
151.00 28.86
152.00 28.97
153.00 29.03
154.00 29.01
155.00 28.95
156.00 28.83
157.00 28.70
158.00 28.56
159.00 28.45
160.00 28.35
161.00 28.31
162.00 28.24
163.00 28.15
164.00 28.14
165.00 28.19
166.00 28.34
167.00 28.57
168.00 28.90
169.00 29.31
170.00 29.78
171.00 30.29
172.00 30.77
173.00 31.13
174.00 31.28
175.00 31.25
176.00 31.10
177.00 30.80
178.00 30.34
179.00 29.85
180.00 29.37
181.00 28.96
182.00 28.63
183.00 28.40
184.00 28.26
185.00 28.22
186.00 28.24
187.00 28.37
188.00 28.37
189.00 28.25
190.00 28.24
191.00 28.35
192.00 28.58
193.00 28.93
194.00 29.44
195.00 30.12
196.00 31.00
197.00 32.14
198.00 33.59
199.00 35.44
200.00 37.64
201.00 39.64
202.00 39.83
203.00 37.91
204.00 35.53
205.00 33.51
206.00 31.87
207.00 30.58
208.00 29.55
209.00 28.75
210.00 28.13
211.00 27.63
212.00 27.28
213.00 27.05
214.00 26.96
215.00 26.99
216.00 27.15
217.00 27.43
218.00 27.86
219.00 28.44
220.00 29.20
221.00 30.17
222.00 31.42
223.00 33.01
224.00 35.09
225.00 37.78
226.00 40.85
227.00 41.79
228.00 38.98
229.00 35.73
230.00 33.11
231.00 31.03
232.00 29.36
233.00 27.98
234.00 26.82
235.00 25.85
236.00 25.03
237.00 24.34
238.00 23.75
239.00 23.27
240.00 22.86
241.00 22.53
242.00 22.28
243.00 22.08
244.00 21.95
245.00 21.86
246.00 21.81
247.00 21.80
248.00 21.82
249.00 21.86
250.00 21.90
251.00 21.94
252.00 21.96
253.00 21.94
254.00 21.89
255.00 21.79
256.00 21.62
257.00 21.41
258.00 21.14
259.00 20.85
260.00 20.51
261.00 20.14
262.00 19.78
263.00 19.40
264.00 19.01
265.00 18.64
266.00 18.27
267.00 17.91
268.00 17.57
269.00 17.23
270.00 16.90
271.00 16.57
272.00 16.26
273.00 15.95
274.00 15.63
275.00 15.32
276.00 15.01
277.00 14.69
278.00 14.37
279.00 14.04
280.00 13.70
281.00 13.37
282.00 13.02
283.00 12.68
284.00 12.32
285.00 11.97
286.00 11.62
287.00 11.28
288.00 10.93
289.00 10.58
290.00 10.25
291.00 9.91
292.00 9.59
293.00 9.27
294.00 8.97
295.00 8.67
296.00 8.38
297.00 8.10
298.00 7.83
299.00 7.57
300.00 7.31
301.00 7.07
302.00 6.83
303.00 6.61
304.00 6.38
305.00 6.16
306.00 5.97
307.00 5.78
308.00 5.60
309.00 5.42
310.00 5.25
311.00 5.09
312.00 4.93
313.00 4.77
314.00 4.62
315.00 4.47
316.00 4.32
317.00 4.17
318.00 4.03
319.00 3.89
320.00 3.76
321.00 3.62
322.00 3.49
323.00 3.36
324.00 3.23
325.00 3.10
326.00 2.96
327.00 2.84
328.00 2.71
329.00 2.58
330.00 2.45
331.00 2.30
332.00 2.17
333.00 2.04
334.00 1.91
335.00 1.78
336.00 1.65
337.00 1.52
338.00 1.40
339.00 1.28
340.00 1.15
341.00 1.04
342.00 0.94
343.00 0.83
344.00 0.74
345.00 0.64
346.00 0.56
347.00 0.48
348.00 0.41
349.00 0.35
350.00 0.29
351.00 0.24
352.00 0.19
353.00 0.15
354.00 0.11
355.00 0.09
356.00 0.06
357.00 0.04
358.00 0.02
359.00 0.01
VERTICAL 360
0.00 6.16
1.00 3.47
2.00 1.61
3.00 0.48
4.00 0.00
5.00 0.16
6.00 1.00
7.00 2.60
8.00 5.22
9.00 9.50
10.00 17.80
11.00 24.01
12.00 14.44
13.00 11.65
14.00 11.27
15.00 12.66
16.00 16.08
17.00 23.58
18.00 30.39
19.00 19.83
20.00 16.32
21.00 15.13
22.00 15.49
23.00 17.42
24.00 21.20
25.00 24.43
26.00 21.31
27.00 18.53
28.00 17.59
29.00 18.21
30.00 20.36
31.00 24.42
32.00 28.95
33.00 25.02
34.00 20.80
35.00 18.36
36.00 17.13
37.00 16.84
38.00 17.39
39.00 18.80
40.00 21.21
41.00 24.75
42.00 28.25
43.00 27.77
44.00 25.56
45.00 24.07
46.00 23.12
47.00 22.26
48.00 21.34
49.00 20.44
50.00 19.74
51.00 19.31
52.00 19.18
53.00 19.29
54.00 19.52
55.00 19.77
56.00 20.07
57.00 20.61
58.00 21.62
59.00 23.33
60.00 25.87
61.00 29.00
62.00 31.04
63.00 30.49
64.00 29.31
65.00 28.73
66.00 28.72
67.00 28.96
68.00 29.15
69.00 29.26
70.00 29.39
71.00 29.66
72.00 30.05
73.00 30.52
74.00 30.92
75.00 31.20
76.00 31.44
77.00 31.76
78.00 32.27
79.00 33.06
80.00 34.22
81.00 35.78
82.00 37.69
83.00 39.84
84.00 42.35
85.00 45.94
86.00 53.32
87.00 59.38
88.00 50.19
89.00 50.33
90.00 74.45
91.00 45.72
92.00 39.13
93.00 36.36
94.00 35.93
95.00 37.58
96.00 41.31
97.00 45.71
98.00 44.15
99.00 40.27
100.00 37.38
101.00 35.88
102.00 35.88
103.00 37.35
104.00 39.79
105.00 41.70
106.00 42.03
107.00 41.51
108.00 40.68
109.00 40.19
110.00 40.57
111.00 41.79
112.00 43.27
113.00 44.69
114.00 46.23
115.00 47.23
116.00 46.81
117.00 45.98
118.00 45.20
119.00 44.07
120.00 42.68
121.00 41.57
122.00 41.03
123.00 41.09
124.00 41.44
125.00 41.76
126.00 42.44
127.00 44.72
128.00 50.33
129.00 48.68
130.00 42.70
131.00 39.83
132.00 38.37
133.00 37.42
134.00 36.83
135.00 36.90
136.00 37.72
137.00 38.95
138.00 40.25
139.00 41.90
140.00 44.23
141.00 45.98
142.00 45.51
143.00 44.44
144.00 43.52
145.00 42.27
146.00 40.62
147.00 39.16
148.00 38.67
149.00 39.74
150.00 42.40
151.00 43.23
152.00 40.71
153.00 39.44
154.00 39.44
155.00 38.12
156.00 35.31
157.00 33.16
158.00 32.02
159.00 31.42
160.00 30.90
161.00 30.51
162.00 30.69
163.00 31.81
164.00 34.06
165.00 37.28
166.00 40.31
167.00 42.13
168.00 44.28
169.00 46.59
170.00 43.86
171.00 39.41
172.00 35.70
173.00 32.71
174.00 30.53
175.00 29.22
176.00 28.78
177.00 28.57
178.00 29.06
179.00 30.14
180.00 31.62
181.00 33.31
182.00 34.99
183.00 35.84
184.00 35.39
185.00 34.30
186.00 33.99
187.00 34.74
188.00 35.29
189.00 33.79
190.00 31.73
191.00 30.62
192.00 30.70
193.00 31.90
194.00 34.08
195.00 36.59
196.00 36.74
197.00 34.05
198.00 31.60
199.00 30.42
200.00 30.68
201.00 32.61
202.00 36.57
203.00 39.73
204.00 36.64
205.00 34.31
206.00 33.94
207.00 35.06
208.00 37.06
209.00 38.71
210.00 39.43
211.00 40.00
212.00 39.13
213.00 35.54
214.00 31.93
215.00 29.36
216.00 27.71
217.00 26.73
218.00 26.18
219.00 25.94
220.00 26.00
221.00 26.43
222.00 27.25
223.00 28.43
224.00 29.99
225.00 32.09
226.00 35.17
227.00 39.82
228.00 44.14
229.00 41.85
230.00 39.66
231.00 39.20
232.00 39.74
233.00 40.62
234.00 41.60
235.00 42.78
236.00 44.27
237.00 46.08
238.00 48.23
239.00 51.11
240.00 56.43
241.00 61.62
242.00 53.47
243.00 50.07
244.00 49.16
245.00 49.06
246.00 49.16
247.00 49.96
248.00 50.13
249.00 47.62
250.00 45.11
251.00 43.75
252.00 43.31
253.00 44.03
254.00 47.04
255.00 55.33
256.00 50.72
257.00 45.35
258.00 43.84
259.00 43.79
260.00 43.35
261.00 42.00
262.00 40.16
263.00 38.15
264.00 36.50
265.00 35.45
266.00 34.79
267.00 34.15
268.00 33.55
269.00 33.29
270.00 33.45
271.00 33.74
272.00 33.69
273.00 32.98
274.00 31.81
275.00 30.63
276.00 29.81
277.00 29.51
278.00 29.72
279.00 30.33
280.00 31.20
281.00 32.30
282.00 33.69
283.00 35.36
284.00 36.93
285.00 37.46
286.00 36.33
287.00 34.25
288.00 32.04
289.00 30.01
290.00 28.32
291.00 27.03
292.00 26.16
293.00 25.62
294.00 25.24
295.00 24.85
296.00 24.44
297.00 24.12
298.00 24.08
299.00 24.50
300.00 25.47
301.00 26.94
302.00 28.31
303.00 27.97
304.00 25.76
305.00 23.28
306.00 21.30
307.00 19.87
308.00 18.90
309.00 18.34
310.00 18.16
311.00 18.44
312.00 19.30
313.00 20.78
314.00 22.61
315.00 23.63
316.00 22.81
317.00 21.23
318.00 19.89
319.00 19.00
320.00 18.60
321.00 18.76
322.00 19.57
323.00 21.06
324.00 22.85
325.00 23.70
326.00 22.93
327.00 21.75
328.00 21.14
329.00 21.46
330.00 23.00
331.00 26.30
332.00 31.97
333.00 31.00
334.00 26.06
335.00 23.64
336.00 22.99
337.00 23.80
338.00 25.87
339.00 27.64
340.00 26.02
341.00 23.43
342.00 21.99
343.00 21.90
344.00 23.06
345.00 24.35
346.00 22.81
347.00 19.66
348.00 17.34
349.00 16.29
350.00 16.54
351.00 18.31
352.00 22.29
353.00 31.75
354.00 34.64
355.00 27.14
356.00 25.83
357.00 21.67
358.00 15.06
359.00 9.92
