NAME ATR4518R7_2140_X_CO_M45_07T_yyR
FREQUENCY 2140
GAIN 15.55 dBd
TILT	ELECTRICAL
COMMENT DATE 05.08.2013 -45 degrees polarized system Lever position 07T deg
HORIZONTAL 360
0.00 0.03
1.00 0.01
2.00 0.00
3.00 0.00
4.00 0.00
5.00 0.00
6.00 0.01
7.00 0.03
8.00 0.05
9.00 0.08
10.00 0.12
11.00 0.16
12.00 0.22
13.00 0.28
14.00 0.35
15.00 0.43
16.00 0.52
17.00 0.62
18.00 0.74
19.00 0.86
20.00 1.00
21.00 1.15
22.00 1.31
23.00 1.49
24.00 1.68
25.00 1.88
26.00 2.10
27.00 2.33
28.00 2.57
29.00 2.83
30.00 3.11
31.00 3.39
32.00 3.70
33.00 4.02
34.00 4.35
35.00 4.70
36.00 5.06
37.00 5.44
38.00 5.83
39.00 6.24
40.00 6.66
41.00 7.10
42.00 7.55
43.00 8.02
44.00 8.50
45.00 9.01
46.00 9.52
47.00 10.06
48.00 10.61
49.00 11.17
50.00 11.75
51.00 12.35
52.00 12.96
53.00 13.58
54.00 14.22
55.00 14.87
56.00 15.52
57.00 16.18
58.00 16.84
59.00 17.50
60.00 18.14
61.00 18.77
62.00 19.38
63.00 19.96
64.00 20.51
65.00 21.02
66.00 21.50
67.00 21.93
68.00 22.34
69.00 22.71
70.00 23.05
71.00 23.37
72.00 23.68
73.00 23.99
74.00 24.29
75.00 24.60
76.00 24.91
77.00 25.24
78.00 25.57
79.00 25.92
80.00 26.29
81.00 26.66
82.00 27.05
83.00 27.45
84.00 27.85
85.00 28.25
86.00 28.64
87.00 29.03
88.00 29.40
89.00 29.75
90.00 30.08
91.00 30.38
92.00 30.66
93.00 30.90
94.00 31.13
95.00 31.33
96.00 31.52
97.00 31.70
98.00 31.87
99.00 32.04
100.00 32.22
101.00 32.40
102.00 32.60
103.00 32.82
104.00 33.05
105.00 33.30
106.00 33.58
107.00 33.88
108.00 34.20
109.00 34.55
110.00 34.93
111.00 35.33
112.00 35.76
113.00 36.22
114.00 36.72
115.00 37.24
116.00 37.80
117.00 38.40
118.00 39.05
119.00 39.76
120.00 40.52
121.00 41.38
122.00 42.33
123.00 43.43
124.00 44.72
125.00 46.28
126.00 48.24
127.00 50.88
128.00 54.81
129.00 62.00
130.00 64.47
131.00 55.74
132.00 51.15
133.00 48.12
134.00 45.88
135.00 44.14
136.00 42.73
137.00 41.57
138.00 40.62
139.00 39.85
140.00 39.22
141.00 38.73
142.00 38.38
143.00 38.14
144.00 38.03
145.00 38.05
146.00 38.18
147.00 38.46
148.00 38.88
149.00 39.46
150.00 40.22
151.00 41.18
152.00 42.39
153.00 43.88
154.00 45.66
155.00 47.61
156.00 49.15
157.00 49.17
158.00 47.65
159.00 45.69
160.00 43.89
161.00 42.39
162.00 41.17
163.00 40.20
164.00 39.44
165.00 38.88
166.00 38.48
167.00 38.23
168.00 38.13
169.00 38.18
170.00 38.35
171.00 38.66
172.00 39.10
173.00 39.67
174.00 40.35
175.00 41.14
176.00 41.98
177.00 42.79
178.00 43.44
179.00 43.79
180.00 43.75
181.00 43.36
182.00 42.74
183.00 42.03
184.00 41.35
185.00 40.76
186.00 40.28
187.00 39.91
188.00 39.68
189.00 39.57
190.00 39.59
191.00 39.75
192.00 40.03
193.00 40.45
194.00 41.02
195.00 41.72
196.00 42.58
197.00 43.58
198.00 44.73
199.00 46.00
200.00 47.30
201.00 48.50
202.00 49.37
203.00 49.74
204.00 49.66
205.00 49.32
206.00 48.96
207.00 48.72
208.00 48.72
209.00 48.99
210.00 49.64
211.00 50.75
212.00 52.45
213.00 54.80
214.00 56.96
215.00 55.69
216.00 52.00
217.00 48.59
218.00 45.83
219.00 43.57
220.00 41.67
221.00 40.05
222.00 38.65
223.00 37.43
224.00 36.35
225.00 35.40
226.00 34.56
227.00 33.81
228.00 33.14
229.00 32.55
230.00 32.02
231.00 31.54
232.00 31.13
233.00 30.76
234.00 30.43
235.00 30.13
236.00 29.87
237.00 29.63
238.00 29.41
239.00 29.22
240.00 29.03
241.00 28.85
242.00 28.67
243.00 28.50
244.00 28.32
245.00 28.15
246.00 27.96
247.00 27.77
248.00 27.58
249.00 27.38
250.00 27.18
251.00 26.97
252.00 26.76
253.00 26.55
254.00 26.34
255.00 26.12
256.00 25.91
257.00 25.69
258.00 25.48
259.00 25.25
260.00 25.02
261.00 24.78
262.00 24.52
263.00 24.26
264.00 23.98
265.00 23.68
266.00 23.36
267.00 23.03
268.00 22.69
269.00 22.32
270.00 21.95
271.00 21.56
272.00 21.16
273.00 20.75
274.00 20.34
275.00 19.93
276.00 19.51
277.00 19.09
278.00 18.67
279.00 18.25
280.00 17.84
281.00 17.42
282.00 17.01
283.00 16.61
284.00 16.20
285.00 15.80
286.00 15.41
287.00 15.02
288.00 14.64
289.00 14.26
290.00 13.88
291.00 13.51
292.00 13.14
293.00 12.78
294.00 12.43
295.00 12.08
296.00 11.73
297.00 11.40
298.00 11.07
299.00 10.74
300.00 10.42
301.00 10.12
302.00 9.81
303.00 9.52
304.00 9.23
305.00 8.95
306.00 8.67
307.00 8.41
308.00 8.15
309.00 7.89
310.00 7.65
311.00 7.40
312.00 7.16
313.00 6.93
314.00 6.71
315.00 6.48
316.00 6.26
317.00 6.05
318.00 5.84
319.00 5.62
320.00 5.42
321.00 5.21
322.00 5.00
323.00 4.80
324.00 4.60
325.00 4.39
326.00 4.19
327.00 4.00
328.00 3.80
329.00 3.60
330.00 3.41
331.00 3.22
332.00 3.02
333.00 2.84
334.00 2.66
335.00 2.48
336.00 2.30
337.00 2.13
338.00 1.97
339.00 1.81
340.00 1.65
341.00 1.51
342.00 1.37
343.00 1.23
344.00 1.11
345.00 0.99
346.00 0.88
347.00 0.77
348.00 0.67
349.00 0.59
350.00 0.50
351.00 0.43
352.00 0.36
353.00 0.30
354.00 0.24
355.00 0.19
356.00 0.15
357.00 0.11
358.00 0.08
359.00 0.05
VERTICAL 360
0.00 21.15
1.00 16.38
2.00 11.35
3.00 7.22
4.00 4.10
5.00 1.90
6.00 0.54
7.00 0.00
8.00 0.29
9.00 1.49
10.00 3.81
11.00 7.77
12.00 15.33
13.00 25.32
14.00 15.12
15.00 12.65
16.00 13.38
17.00 16.70
18.00 21.30
19.00 20.13
20.00 17.53
21.00 17.05
22.00 18.52
23.00 22.71
24.00 30.90
25.00 23.90
26.00 18.79
27.00 17.27
28.00 18.22
29.00 21.74
30.00 27.37
31.00 25.84
32.00 21.88
33.00 19.94
34.00 19.21
35.00 19.44
36.00 20.48
37.00 21.68
38.00 21.82
39.00 21.07
40.00 20.57
41.00 20.72
42.00 21.45
43.00 22.60
44.00 24.11
45.00 25.88
46.00 27.42
47.00 28.17
48.00 28.42
49.00 28.83
50.00 29.64
51.00 31.11
52.00 34.11
53.00 40.59
54.00 38.91
55.00 32.22
56.00 29.48
57.00 28.95
58.00 29.92
59.00 31.84
60.00 33.97
61.00 35.59
62.00 36.50
63.00 36.91
64.00 36.82
65.00 36.33
66.00 36.07
67.00 36.43
68.00 37.14
69.00 37.39
70.00 36.60
71.00 35.18
72.00 33.88
73.00 33.02
74.00 32.47
75.00 31.83
76.00 30.96
77.00 30.00
78.00 29.22
79.00 28.75
80.00 28.47
81.00 28.17
82.00 27.83
83.00 27.61
84.00 27.69
85.00 28.15
86.00 29.11
87.00 30.60
88.00 32.14
89.00 32.70
90.00 32.15
91.00 31.28
92.00 30.44
93.00 29.73
94.00 29.14
95.00 28.69
96.00 28.55
97.00 28.95
98.00 29.87
99.00 31.07
100.00 32.23
101.00 33.21
102.00 34.00
103.00 34.80
104.00 35.95
105.00 37.41
106.00 38.63
107.00 39.08
108.00 39.16
109.00 39.90
110.00 42.15
111.00 46.45
112.00 53.07
113.00 57.14
114.00 49.27
115.00 44.46
116.00 42.44
117.00 42.15
118.00 42.77
119.00 43.81
120.00 45.60
121.00 49.98
122.00 64.29
123.00 49.45
124.00 43.71
125.00 40.90
126.00 38.79
127.00 37.20
128.00 36.67
129.00 37.56
130.00 40.40
131.00 47.70
132.00 50.64
133.00 40.83
134.00 37.32
135.00 36.32
136.00 36.88
137.00 38.40
138.00 40.39
139.00 42.55
140.00 44.59
141.00 46.51
142.00 51.19
143.00 51.99
144.00 41.59
145.00 36.98
146.00 35.31
147.00 35.81
148.00 38.06
149.00 41.26
150.00 45.58
151.00 54.12
152.00 46.16
153.00 42.47
154.00 44.67
155.00 42.84
156.00 36.28
157.00 33.82
158.00 34.60
159.00 38.28
160.00 40.96
161.00 38.65
162.00 37.71
163.00 38.35
164.00 39.43
165.00 39.99
166.00 39.32
167.00 37.89
168.00 36.48
169.00 35.54
170.00 35.12
171.00 35.76
172.00 37.92
173.00 41.69
174.00 50.27
175.00 61.83
176.00 49.23
177.00 42.97
178.00 39.04
179.00 37.66
180.00 37.57
181.00 36.54
182.00 35.29
183.00 35.53
184.00 37.86
185.00 42.65
186.00 49.02
187.00 52.90
188.00 52.45
189.00 51.39
190.00 52.55
191.00 53.28
192.00 49.28
193.00 44.20
194.00 40.12
195.00 37.22
196.00 35.43
197.00 34.72
198.00 34.80
199.00 35.05
200.00 35.54
201.00 37.58
202.00 43.80
203.00 53.32
204.00 42.62
205.00 39.65
206.00 38.23
207.00 37.17
208.00 37.00
209.00 37.87
210.00 39.58
211.00 42.03
212.00 42.71
213.00 39.92
214.00 37.73
215.00 36.46
216.00 35.22
217.00 34.33
218.00 34.59
219.00 36.36
220.00 39.35
221.00 42.19
222.00 44.57
223.00 49.25
224.00 49.32
225.00 43.42
226.00 41.52
227.00 43.07
228.00 49.85
229.00 55.01
230.00 45.86
231.00 42.67
232.00 39.44
233.00 35.90
234.00 33.62
235.00 33.09
236.00 34.44
237.00 37.71
238.00 40.34
239.00 37.85
240.00 35.21
241.00 34.10
242.00 34.29
243.00 35.41
244.00 36.34
245.00 35.65
246.00 34.24
247.00 33.51
248.00 33.82
249.00 35.03
250.00 36.72
251.00 38.62
252.00 40.62
253.00 41.17
254.00 39.12
255.00 36.88
256.00 35.30
257.00 33.87
258.00 32.18
259.00 30.43
260.00 29.00
261.00 28.01
262.00 27.32
263.00 26.66
264.00 25.84
265.00 24.89
266.00 23.99
267.00 23.31
268.00 22.95
269.00 22.86
270.00 22.89
271.00 22.83
272.00 22.49
273.00 21.86
274.00 21.15
275.00 20.63
276.00 20.44
277.00 20.56
278.00 20.86
279.00 21.12
280.00 21.18
281.00 20.96
282.00 20.55
283.00 20.14
284.00 19.88
285.00 19.86
286.00 20.11
287.00 20.60
288.00 21.23
289.00 21.89
290.00 22.51
291.00 23.09
292.00 23.67
293.00 24.29
294.00 24.87
295.00 25.25
296.00 25.32
297.00 25.21
298.00 25.22
299.00 25.64
300.00 26.63
301.00 28.12
302.00 29.69
303.00 30.46
304.00 30.06
305.00 28.98
306.00 27.54
307.00 25.91
308.00 24.47
309.00 23.63
310.00 23.73
311.00 25.02
312.00 27.85
313.00 33.03
314.00 42.50
315.00 36.36
316.00 28.81
317.00 24.75
318.00 22.89
319.00 23.20
320.00 26.73
321.00 38.65
322.00 27.72
323.00 21.04
324.00 18.07
325.00 16.87
326.00 16.96
327.00 18.26
328.00 20.49
329.00 21.60
330.00 19.35
331.00 16.46
332.00 14.46
333.00 13.40
334.00 13.28
335.00 14.12
336.00 16.12
337.00 19.68
338.00 26.03
339.00 35.58
340.00 27.80
341.00 23.39
342.00 21.36
343.00 20.42
344.00 20.29
345.00 21.24
346.00 23.92
347.00 27.71
348.00 26.34
349.00 23.63
350.00 23.88
351.00 28.60
352.00 42.98
353.00 25.82
354.00 20.90
355.00 18.93
356.00 18.65
357.00 19.64
358.00 21.44
359.00 22.76
