NAME ATR4518R7_2140_X_CO_M45_07T_yL
FREQUENCY 2140
GAIN 15.61 dBd
TILT	ELECTRICAL
COMMENT DATE 05.08.2013 -45 degrees polarized system Lever position 07T deg
HORIZONTAL 360
0.00 0.00
1.00 0.01
2.00 0.02
3.00 0.04
4.00 0.06
5.00 0.09
6.00 0.12
7.00 0.15
8.00 0.20
9.00 0.25
10.00 0.31
11.00 0.38
12.00 0.45
13.00 0.54
14.00 0.63
15.00 0.73
16.00 0.83
17.00 0.95
18.00 1.07
19.00 1.20
20.00 1.34
21.00 1.49
22.00 1.64
23.00 1.80
24.00 1.97
25.00 2.14
26.00 2.32
27.00 2.51
28.00 2.71
29.00 2.91
30.00 3.12
31.00 3.34
32.00 3.56
33.00 3.79
34.00 4.03
35.00 4.28
36.00 4.53
37.00 4.80
38.00 5.06
39.00 5.34
40.00 5.62
41.00 5.90
42.00 6.19
43.00 6.49
44.00 6.78
45.00 7.08
46.00 7.38
47.00 7.69
48.00 7.99
49.00 8.30
50.00 8.60
51.00 8.90
52.00 9.20
53.00 9.50
54.00 9.80
55.00 10.09
56.00 10.39
57.00 10.68
58.00 10.98
59.00 11.27
60.00 11.57
61.00 11.86
62.00 12.16
63.00 12.47
64.00 12.78
65.00 13.09
66.00 13.41
67.00 13.74
68.00 14.08
69.00 14.42
70.00 14.77
71.00 15.13
72.00 15.50
73.00 15.87
74.00 16.25
75.00 16.64
76.00 17.03
77.00 17.43
78.00 17.82
79.00 18.22
80.00 18.61
81.00 19.00
82.00 19.39
83.00 19.77
84.00 20.14
85.00 20.51
86.00 20.88
87.00 21.24
88.00 21.60
89.00 21.97
90.00 22.34
91.00 22.72
92.00 23.12
93.00 23.55
94.00 24.01
95.00 24.50
96.00 25.04
97.00 25.63
98.00 26.28
99.00 27.01
100.00 27.81
101.00 28.72
102.00 29.73
103.00 30.87
104.00 32.17
105.00 33.66
106.00 35.38
107.00 37.40
108.00 39.81
109.00 42.77
110.00 46.42
111.00 50.33
112.00 51.42
113.00 49.24
114.00 47.15
115.00 45.83
116.00 45.19
117.00 45.14
118.00 45.67
119.00 46.83
120.00 48.86
121.00 52.26
122.00 57.78
123.00 56.63
124.00 50.46
125.00 46.38
126.00 43.52
127.00 41.38
128.00 39.72
129.00 38.41
130.00 37.36
131.00 36.52
132.00 35.86
133.00 35.34
134.00 34.95
135.00 34.65
136.00 34.43
137.00 34.27
138.00 34.14
139.00 34.03
140.00 33.91
141.00 33.78
142.00 33.63
143.00 33.46
144.00 33.27
145.00 33.09
146.00 32.92
147.00 32.80
148.00 32.72
149.00 32.70
150.00 32.76
151.00 32.91
152.00 33.15
153.00 33.48
154.00 33.91
155.00 34.42
156.00 35.00
157.00 35.59
158.00 36.12
159.00 36.50
160.00 36.64
161.00 36.48
162.00 36.07
163.00 35.51
164.00 34.88
165.00 34.28
166.00 33.75
167.00 33.32
168.00 33.02
169.00 32.86
170.00 32.83
171.00 32.96
172.00 33.25
173.00 33.71
174.00 34.36
175.00 35.20
176.00 36.27
177.00 37.54
178.00 38.96
179.00 40.28
180.00 41.02
181.00 40.73
182.00 39.59
183.00 38.17
184.00 36.81
185.00 35.64
186.00 34.70
187.00 33.98
188.00 33.46
189.00 33.13
190.00 32.99
191.00 33.02
192.00 33.24
193.00 33.66
194.00 34.29
195.00 35.15
196.00 36.31
197.00 37.81
198.00 39.76
199.00 42.23
200.00 45.04
201.00 46.47
202.00 44.70
203.00 41.97
204.00 39.63
205.00 37.82
206.00 36.44
207.00 35.38
208.00 34.61
209.00 34.07
210.00 33.73
211.00 33.58
212.00 33.62
213.00 33.84
214.00 34.25
215.00 34.87
216.00 35.74
217.00 36.89
218.00 38.45
219.00 40.57
220.00 43.65
221.00 48.86
222.00 65.20
223.00 51.48
224.00 44.63
225.00 40.84
226.00 38.24
227.00 36.27
228.00 34.72
229.00 33.45
230.00 32.39
231.00 31.51
232.00 30.76
233.00 30.14
234.00 29.61
235.00 29.17
236.00 28.82
237.00 28.55
238.00 28.35
239.00 28.22
240.00 28.16
241.00 28.15
242.00 28.21
243.00 28.33
244.00 28.49
245.00 28.70
246.00 28.93
247.00 29.16
248.00 29.38
249.00 29.55
250.00 29.64
251.00 29.63
252.00 29.50
253.00 29.26
254.00 28.91
255.00 28.49
256.00 28.02
257.00 27.53
258.00 27.04
259.00 26.56
260.00 26.11
261.00 25.68
262.00 25.27
263.00 24.89
264.00 24.53
265.00 24.18
266.00 23.84
267.00 23.49
268.00 23.14
269.00 22.77
270.00 22.37
271.00 21.96
272.00 21.52
273.00 21.05
274.00 20.57
275.00 20.08
276.00 19.57
277.00 19.06
278.00 18.55
279.00 18.05
280.00 17.55
281.00 17.06
282.00 16.59
283.00 16.13
284.00 15.68
285.00 15.26
286.00 14.84
287.00 14.45
288.00 14.07
289.00 13.70
290.00 13.35
291.00 13.01
292.00 12.68
293.00 12.37
294.00 12.05
295.00 11.75
296.00 11.46
297.00 11.16
298.00 10.88
299.00 10.59
300.00 10.30
301.00 10.01
302.00 9.73
303.00 9.44
304.00 9.15
305.00 8.85
306.00 8.56
307.00 8.26
308.00 7.97
309.00 7.67
310.00 7.37
311.00 7.08
312.00 6.78
313.00 6.49
314.00 6.20
315.00 5.91
316.00 5.63
317.00 5.35
318.00 5.07
319.00 4.80
320.00 4.53
321.00 4.27
322.00 4.01
323.00 3.76
324.00 3.51
325.00 3.27
326.00 3.04
327.00 2.82
328.00 2.60
329.00 2.39
330.00 2.19
331.00 2.00
332.00 1.81
333.00 1.64
334.00 1.48
335.00 1.32
336.00 1.18
337.00 1.04
338.00 0.92
339.00 0.80
340.00 0.70
341.00 0.60
342.00 0.51
343.00 0.44
344.00 0.37
345.00 0.31
346.00 0.25
347.00 0.21
348.00 0.17
349.00 0.13
350.00 0.10
351.00 0.08
352.00 0.06
353.00 0.04
354.00 0.03
355.00 0.02
356.00 0.01
357.00 0.00
358.00 0.00
359.00 0.00
VERTICAL 360
0.00 20.65
1.00 17.40
2.00 12.18
3.00 7.67
4.00 4.32
5.00 2.03
6.00 0.62
7.00 0.01
8.00 0.20
9.00 1.29
10.00 3.56
11.00 7.65
12.00 15.84
13.00 25.24
14.00 14.41
15.00 12.10
16.00 12.40
17.00 14.50
18.00 17.87
19.00 19.11
20.00 16.68
21.00 15.12
22.00 15.51
23.00 18.15
24.00 23.37
25.00 24.33
26.00 20.70
27.00 19.33
28.00 19.50
29.00 20.60
30.00 23.05
31.00 27.10
32.00 24.63
33.00 20.18
34.00 18.32
35.00 18.66
36.00 21.21
37.00 26.55
38.00 28.63
39.00 23.45
40.00 20.55
41.00 19.26
42.00 18.92
43.00 19.24
44.00 20.12
45.00 21.67
46.00 24.21
47.00 28.37
48.00 34.83
49.00 35.08
50.00 31.39
51.00 30.51
52.00 31.70
53.00 32.27
54.00 29.68
55.00 27.29
56.00 26.28
57.00 26.37
58.00 27.09
59.00 28.09
60.00 29.29
61.00 30.91
62.00 33.29
63.00 36.83
64.00 42.05
65.00 50.53
66.00 63.69
67.00 49.64
68.00 46.04
69.00 44.30
70.00 42.61
71.00 41.44
72.00 41.51
73.00 42.72
74.00 44.95
75.00 48.88
76.00 54.25
77.00 57.26
78.00 62.53
79.00 48.83
80.00 43.75
81.00 42.42
82.00 43.30
83.00 45.24
84.00 48.84
85.00 55.14
86.00 46.28
87.00 42.10
88.00 41.93
89.00 46.15
90.00 60.69
91.00 46.55
92.00 43.73
93.00 45.42
94.00 49.50
95.00 49.76
96.00 51.04
97.00 59.29
98.00 52.53
99.00 48.73
100.00 48.80
101.00 50.42
102.00 51.98
103.00 49.52
104.00 46.12
105.00 45.18
106.00 46.47
107.00 47.72
108.00 46.73
109.00 46.06
110.00 47.29
111.00 51.44
112.00 62.00
113.00 56.81
114.00 49.56
115.00 45.31
116.00 43.39
117.00 43.57
118.00 44.30
119.00 42.77
120.00 40.68
121.00 40.00
122.00 41.22
123.00 45.07
124.00 53.79
125.00 59.15
126.00 55.30
127.00 54.62
128.00 50.46
129.00 46.12
130.00 43.44
131.00 43.42
132.00 47.49
133.00 53.94
134.00 47.44
135.00 46.85
136.00 51.13
137.00 52.21
138.00 48.57
139.00 42.94
140.00 37.97
141.00 35.21
142.00 34.28
143.00 34.58
144.00 35.49
145.00 36.60
146.00 37.96
147.00 39.84
148.00 42.13
149.00 43.81
150.00 44.71
151.00 45.82
152.00 44.58
153.00 40.45
154.00 37.63
155.00 36.82
156.00 37.59
157.00 39.02
158.00 40.61
159.00 42.29
160.00 41.26
161.00 39.43
162.00 39.68
163.00 40.45
164.00 39.09
165.00 38.61
166.00 41.01
167.00 44.69
168.00 42.79
169.00 41.59
170.00 43.50
171.00 46.08
172.00 41.76
173.00 38.32
174.00 37.86
175.00 39.77
176.00 39.59
177.00 36.77
178.00 36.12
179.00 38.22
180.00 40.92
181.00 38.45
182.00 35.52
183.00 34.21
184.00 34.56
185.00 36.65
186.00 38.93
187.00 38.40
188.00 38.42
189.00 41.87
190.00 49.88
191.00 46.04
192.00 44.84
193.00 50.16
194.00 53.54
195.00 47.19
196.00 48.67
197.00 53.86
198.00 42.90
199.00 38.84
200.00 38.75
201.00 41.86
202.00 42.40
203.00 39.36
204.00 39.24
205.00 41.18
206.00 41.10
207.00 40.90
208.00 45.60
209.00 53.34
210.00 40.30
211.00 36.71
212.00 35.86
213.00 35.83
214.00 35.28
215.00 34.74
216.00 35.27
217.00 37.37
218.00 41.27
219.00 47.01
220.00 52.80
221.00 60.56
222.00 58.52
223.00 51.45
224.00 56.85
225.00 47.68
226.00 39.40
227.00 36.42
228.00 36.69
229.00 39.02
230.00 38.18
231.00 34.81
232.00 32.92
233.00 32.70
234.00 34.38
235.00 39.26
236.00 60.63
237.00 42.39
238.00 38.10
239.00 37.06
240.00 36.69
241.00 36.19
242.00 36.46
243.00 38.59
244.00 42.42
245.00 41.15
246.00 37.44
247.00 35.14
248.00 33.61
249.00 32.64
250.00 32.40
251.00 33.09
252.00 34.88
253.00 37.61
254.00 39.60
255.00 38.27
256.00 34.54
257.00 30.85
258.00 28.15
259.00 26.34
260.00 25.05
261.00 23.99
262.00 23.00
263.00 22.03
264.00 21.16
265.00 20.48
266.00 20.01
267.00 19.67
268.00 19.40
269.00 19.17
270.00 19.02
271.00 18.99
272.00 19.05
273.00 19.19
274.00 19.36
275.00 19.59
276.00 19.93
277.00 20.40
278.00 20.95
279.00 21.44
280.00 21.65
281.00 21.43
282.00 20.87
283.00 20.20
284.00 19.65
285.00 19.33
286.00 19.30
287.00 19.54
288.00 20.10
289.00 21.06
290.00 22.63
291.00 25.15
292.00 29.20
293.00 35.97
294.00 40.64
295.00 36.48
296.00 35.96
297.00 38.50
298.00 36.71
299.00 31.07
300.00 27.73
301.00 26.46
302.00 26.97
303.00 29.07
304.00 31.92
305.00 33.66
306.00 33.65
307.00 30.56
308.00 26.46
309.00 23.88
310.00 23.22
311.00 24.61
312.00 28.12
313.00 30.54
314.00 28.79
315.00 28.57
316.00 29.26
317.00 26.42
318.00 23.45
319.00 22.79
320.00 24.96
321.00 30.45
322.00 27.05
323.00 21.76
324.00 19.21
325.00 18.26
326.00 18.48
327.00 19.85
328.00 22.47
329.00 24.83
330.00 22.56
331.00 19.16
332.00 17.12
333.00 16.53
334.00 17.44
335.00 20.06
336.00 24.83
337.00 29.00
338.00 25.97
339.00 23.91
340.00 24.46
341.00 27.51
342.00 26.47
343.00 21.85
344.00 19.86
345.00 20.50
346.00 24.02
347.00 32.56
348.00 33.23
349.00 26.87
350.00 24.89
351.00 25.78
352.00 31.34
353.00 33.82
354.00 24.47
355.00 20.95
356.00 19.83
357.00 19.96
358.00 20.51
359.00 20.93
