NAME ATR4518R7_1850_X_CO_P45_04T_yL
FREQUENCY 1850
GAIN 15.25 dBd
TILT	ELECTRICAL
COMMENT DATE 05.08.2013 +45 degrees polarized system Lever position 04T deg
HORIZONTAL 360
0.00 0.00
1.00 0.01
2.00 0.02
3.00 0.03
4.00 0.05
5.00 0.07
6.00 0.10
7.00 0.13
8.00 0.16
9.00 0.20
10.00 0.23
11.00 0.28
12.00 0.32
13.00 0.37
14.00 0.42
15.00 0.48
16.00 0.54
17.00 0.60
18.00 0.66
19.00 0.73
20.00 0.81
21.00 0.89
22.00 0.97
23.00 1.06
24.00 1.16
25.00 1.25
26.00 1.36
27.00 1.47
28.00 1.59
29.00 1.72
30.00 1.85
31.00 1.98
32.00 2.13
33.00 2.28
34.00 2.44
35.00 2.61
36.00 2.78
37.00 2.96
38.00 3.14
39.00 3.33
40.00 3.53
41.00 3.73
42.00 3.94
43.00 4.15
44.00 4.37
45.00 4.59
46.00 4.81
47.00 5.04
48.00 5.27
49.00 5.51
50.00 5.75
51.00 5.99
52.00 6.23
53.00 6.48
54.00 6.73
55.00 6.98
56.00 7.23
57.00 7.49
58.00 7.74
59.00 8.01
60.00 8.27
61.00 8.54
62.00 8.81
63.00 9.08
64.00 9.36
65.00 9.65
66.00 9.93
67.00 10.23
68.00 10.53
69.00 10.83
70.00 11.14
71.00 11.46
72.00 11.78
73.00 12.10
74.00 12.43
75.00 12.77
76.00 13.11
77.00 13.45
78.00 13.80
79.00 14.14
80.00 14.49
81.00 14.84
82.00 15.18
83.00 15.52
84.00 15.85
85.00 16.18
86.00 16.50
87.00 16.81
88.00 17.12
89.00 17.42
90.00 17.71
91.00 18.00
92.00 18.29
93.00 18.57
94.00 18.87
95.00 19.17
96.00 19.49
97.00 19.82
98.00 20.17
99.00 20.55
100.00 20.96
101.00 21.40
102.00 21.89
103.00 22.42
104.00 22.99
105.00 23.62
106.00 24.31
107.00 25.06
108.00 25.87
109.00 26.74
110.00 27.68
111.00 28.68
112.00 29.74
113.00 30.83
114.00 31.94
115.00 33.02
116.00 34.05
117.00 34.97
118.00 35.78
119.00 36.47
120.00 37.09
121.00 37.71
122.00 38.40
123.00 39.23
124.00 40.23
125.00 41.46
126.00 42.79
127.00 43.82
128.00 43.79
129.00 42.44
130.00 40.45
131.00 38.44
132.00 36.65
133.00 35.10
134.00 33.78
135.00 32.65
136.00 31.71
137.00 30.92
138.00 30.28
139.00 29.75
140.00 29.35
141.00 29.06
142.00 28.87
143.00 28.78
144.00 28.78
145.00 28.88
146.00 29.07
147.00 29.34
148.00 29.69
149.00 30.11
150.00 30.60
151.00 31.12
152.00 31.67
153.00 32.18
154.00 32.63
155.00 32.97
156.00 33.15
157.00 33.16
158.00 33.04
159.00 32.81
160.00 32.52
161.00 32.23
162.00 31.96
163.00 31.74
164.00 31.58
165.00 31.50
166.00 31.51
167.00 31.60
168.00 31.78
169.00 32.04
170.00 32.40
171.00 32.84
172.00 33.36
173.00 33.95
174.00 34.59
175.00 35.27
176.00 35.93
177.00 36.54
178.00 37.05
179.00 37.41
180.00 37.61
181.00 37.67
182.00 37.62
183.00 37.51
184.00 37.41
185.00 37.35
186.00 37.36
187.00 37.48
188.00 37.72
189.00 38.09
190.00 38.62
191.00 39.33
192.00 40.26
193.00 41.46
194.00 43.00
195.00 44.99
196.00 47.59
197.00 50.73
198.00 52.62
199.00 50.51
200.00 47.27
201.00 44.59
202.00 42.49
203.00 40.83
204.00 39.49
205.00 38.39
206.00 37.49
207.00 36.74
208.00 36.13
209.00 35.63
210.00 35.24
211.00 34.95
212.00 34.74
213.00 34.63
214.00 34.60
215.00 34.65
216.00 34.80
217.00 35.04
218.00 35.39
219.00 35.85
220.00 36.43
221.00 37.14
222.00 38.00
223.00 39.00
224.00 40.12
225.00 41.25
226.00 42.16
227.00 42.46
228.00 41.93
229.00 40.77
230.00 39.35
231.00 37.93
232.00 36.62
233.00 35.44
234.00 34.41
235.00 33.51
236.00 32.72
237.00 32.04
238.00 31.44
239.00 30.93
240.00 30.47
241.00 30.07
242.00 29.70
243.00 29.37
244.00 29.06
245.00 28.76
246.00 28.45
247.00 28.13
248.00 27.80
249.00 27.44
250.00 27.07
251.00 26.66
252.00 26.25
253.00 25.81
254.00 25.37
255.00 24.92
256.00 24.48
257.00 24.03
258.00 23.60
259.00 23.18
260.00 22.78
261.00 22.39
262.00 22.01
263.00 21.65
264.00 21.30
265.00 20.97
266.00 20.65
267.00 20.34
268.00 20.04
269.00 19.75
270.00 19.47
271.00 19.19
272.00 18.91
273.00 18.64
274.00 18.37
275.00 18.10
276.00 17.82
277.00 17.55
278.00 17.28
279.00 17.01
280.00 16.74
281.00 16.46
282.00 16.19
283.00 15.91
284.00 15.64
285.00 15.36
286.00 15.08
287.00 14.81
288.00 14.53
289.00 14.25
290.00 13.97
291.00 13.70
292.00 13.42
293.00 13.14
294.00 12.86
295.00 12.59
296.00 12.31
297.00 12.03
298.00 11.75
299.00 11.48
300.00 11.20
301.00 10.93
302.00 10.66
303.00 10.39
304.00 10.13
305.00 9.87
306.00 9.61
307.00 9.36
308.00 9.10
309.00 8.86
310.00 8.62
311.00 8.38
312.00 8.15
313.00 7.92
314.00 7.68
315.00 7.45
316.00 7.22
317.00 6.98
318.00 6.75
319.00 6.51
320.00 6.26
321.00 6.01
322.00 5.76
323.00 5.50
324.00 5.24
325.00 4.98
326.00 4.71
327.00 4.45
328.00 4.18
329.00 3.91
330.00 3.65
331.00 3.39
332.00 3.13
333.00 2.89
334.00 2.65
335.00 2.41
336.00 2.19
337.00 1.98
338.00 1.78
339.00 1.59
340.00 1.42
341.00 1.25
342.00 1.10
343.00 0.95
344.00 0.82
345.00 0.70
346.00 0.60
347.00 0.50
348.00 0.41
349.00 0.34
350.00 0.27
351.00 0.21
352.00 0.16
353.00 0.12
354.00 0.08
355.00 0.05
356.00 0.03
357.00 0.02
358.00 0.01
359.00 0.00
VERTICAL 360
0.00 5.84
1.00 3.28
2.00 1.50
3.00 0.41
4.00 0.00
5.00 0.28
6.00 1.28
7.00 3.14
8.00 6.16
9.00 11.16
10.00 22.32
11.00 21.26
12.00 14.21
13.00 12.38
14.00 12.98
15.00 16.01
16.00 23.96
17.00 26.60
18.00 17.46
19.00 14.18
20.00 13.02
21.00 13.21
22.00 14.60
23.00 17.36
24.00 21.61
25.00 23.52
26.00 20.51
27.00 18.51
28.00 18.21
29.00 19.41
30.00 21.99
31.00 25.22
32.00 25.03
33.00 21.65
34.00 18.77
35.00 16.90
36.00 15.98
37.00 15.92
38.00 16.68
39.00 18.13
40.00 20.08
41.00 22.20
42.00 24.05
43.00 25.41
44.00 26.57
45.00 28.12
46.00 30.41
47.00 33.17
48.00 34.87
49.00 33.90
50.00 31.17
51.00 28.50
52.00 26.82
53.00 26.38
54.00 27.21
55.00 29.27
56.00 32.26
57.00 35.06
58.00 36.10
59.00 35.80
60.00 34.93
61.00 33.56
62.00 31.94
63.00 30.62
64.00 29.96
65.00 30.07
66.00 30.84
67.00 31.91
68.00 32.77
69.00 33.02
70.00 32.78
71.00 32.53
72.00 32.71
73.00 33.43
74.00 34.43
75.00 35.19
76.00 35.26
77.00 34.67
78.00 33.84
79.00 33.24
80.00 33.03
81.00 33.05
82.00 32.97
83.00 32.72
84.00 32.57
85.00 32.80
86.00 33.46
87.00 34.32
88.00 34.91
89.00 34.72
90.00 33.89
91.00 33.11
92.00 32.94
93.00 33.61
94.00 35.07
95.00 37.05
96.00 38.93
97.00 39.90
98.00 39.87
99.00 39.82
100.00 40.57
101.00 42.29
102.00 44.21
103.00 44.37
104.00 42.72
105.00 41.13
106.00 40.55
107.00 41.30
108.00 43.37
109.00 45.35
110.00 44.77
111.00 43.34
112.00 42.87
113.00 43.38
114.00 44.01
115.00 43.27
116.00 41.68
117.00 40.79
118.00 41.17
119.00 42.43
120.00 42.79
121.00 41.61
122.00 40.99
123.00 42.07
124.00 45.01
125.00 48.40
126.00 51.03
127.00 66.44
128.00 47.66
129.00 40.14
130.00 36.52
131.00 34.76
132.00 34.01
133.00 33.71
134.00 33.70
135.00 34.14
136.00 35.06
137.00 36.08
138.00 36.70
139.00 36.86
140.00 36.82
141.00 36.96
142.00 37.62
143.00 38.82
144.00 39.79
145.00 39.90
146.00 39.87
147.00 40.26
148.00 41.04
149.00 43.07
150.00 49.28
151.00 49.58
152.00 41.64
153.00 39.14
154.00 39.57
155.00 40.71
156.00 38.86
157.00 36.50
158.00 35.49
159.00 35.13
160.00 34.52
161.00 34.07
162.00 34.67
163.00 36.43
164.00 37.37
165.00 35.74
166.00 34.20
167.00 33.90
168.00 34.67
169.00 35.98
170.00 37.28
171.00 38.63
172.00 40.47
173.00 42.44
174.00 42.40
175.00 40.11
176.00 37.54
177.00 35.41
178.00 33.91
179.00 33.08
180.00 32.83
181.00 32.92
182.00 33.24
183.00 34.04
184.00 36.03
185.00 40.34
186.00 47.19
187.00 42.43
188.00 38.83
189.00 38.07
190.00 39.05
191.00 41.00
192.00 43.03
193.00 44.48
194.00 45.61
195.00 45.72
196.00 42.94
197.00 39.79
198.00 38.15
199.00 38.26
200.00 40.11
201.00 43.44
202.00 44.96
203.00 40.85
204.00 36.71
205.00 34.13
206.00 33.10
207.00 33.52
208.00 35.12
209.00 36.60
210.00 35.79
211.00 33.69
212.00 31.90
213.00 30.66
214.00 29.90
215.00 29.68
216.00 30.13
217.00 31.46
218.00 33.83
219.00 37.16
220.00 40.59
221.00 43.03
222.00 45.51
223.00 46.97
224.00 43.40
225.00 39.95
226.00 38.28
227.00 38.30
228.00 40.10
229.00 44.26
230.00 53.13
231.00 59.34
232.00 52.98
233.00 52.09
234.00 49.81
235.00 46.66
236.00 44.71
237.00 43.79
238.00 43.34
239.00 43.05
240.00 42.91
241.00 42.78
242.00 42.41
243.00 42.12
244.00 42.61
245.00 44.57
246.00 48.82
247.00 52.87
248.00 47.65
249.00 43.23
250.00 39.92
251.00 37.08
252.00 34.84
253.00 33.44
254.00 32.98
255.00 33.37
256.00 34.41
257.00 35.75
258.00 37.06
259.00 38.34
260.00 40.27
261.00 44.27
262.00 53.63
263.00 46.09
264.00 40.74
265.00 38.71
266.00 38.23
267.00 38.16
268.00 37.56
269.00 36.40
270.00 35.29
271.00 34.74
272.00 34.99
273.00 36.10
274.00 37.92
275.00 40.29
276.00 43.30
277.00 45.38
278.00 42.54
279.00 38.78
280.00 35.98
281.00 33.78
282.00 31.79
283.00 29.89
284.00 28.13
285.00 26.64
286.00 25.49
287.00 24.68
288.00 24.16
289.00 23.85
290.00 23.76
291.00 23.90
292.00 24.35
293.00 25.16
294.00 26.37
295.00 28.06
296.00 30.50
297.00 34.57
298.00 44.46
299.00 41.54
300.00 33.22
301.00 29.58
302.00 27.68
303.00 26.74
304.00 26.36
305.00 26.42
306.00 27.15
307.00 29.17
308.00 33.95
309.00 40.49
310.00 30.86
311.00 25.74
312.00 22.92
313.00 21.33
314.00 20.54
315.00 20.39
316.00 20.91
317.00 22.17
318.00 24.10
319.00 25.56
320.00 24.69
321.00 22.69
322.00 21.12
323.00 20.20
324.00 19.78
325.00 19.70
326.00 19.86
327.00 20.13
328.00 20.45
329.00 20.97
330.00 22.12
331.00 24.57
332.00 29.22
333.00 31.98
334.00 26.45
335.00 22.74
336.00 20.81
337.00 20.18
338.00 20.89
339.00 23.40
340.00 29.33
341.00 39.78
342.00 28.73
343.00 25.65
344.00 26.14
345.00 29.86
346.00 30.02
347.00 23.51
348.00 19.52
349.00 17.41
350.00 16.72
351.00 17.36
352.00 19.58
353.00 24.15
354.00 33.38
355.00 31.70
356.00 25.35
357.00 19.48
358.00 13.85
359.00 9.30
