NAME ATR4518R7_0847_X_CO_M45_01T
FREQUENCY 0847
GAIN 14.44 dBd
TILT	ELECTRICAL
COMMENT DATE 05.08.2013 -45 degrees polarized system Lever position 01T deg
HORIZONTAL 360
0.00 0.00
1.00 0.01
2.00 0.02
3.00 0.04
4.00 0.07
5.00 0.11
6.00 0.15
7.00 0.19
8.00 0.24
9.00 0.30
10.00 0.37
11.00 0.43
12.00 0.51
13.00 0.59
14.00 0.68
15.00 0.78
16.00 0.88
17.00 0.99
18.00 1.10
19.00 1.22
20.00 1.35
21.00 1.48
22.00 1.62
23.00 1.76
24.00 1.91
25.00 2.07
26.00 2.23
27.00 2.40
28.00 2.57
29.00 2.75
30.00 2.94
31.00 3.13
32.00 3.33
33.00 3.54
34.00 3.75
35.00 3.97
36.00 4.19
37.00 4.42
38.00 4.65
39.00 4.90
40.00 5.14
41.00 5.39
42.00 5.65
43.00 5.92
44.00 6.19
45.00 6.46
46.00 6.74
47.00 7.03
48.00 7.32
49.00 7.61
50.00 7.92
51.00 8.22
52.00 8.53
53.00 8.85
54.00 9.17
55.00 9.49
56.00 9.82
57.00 10.16
58.00 10.50
59.00 10.84
60.00 11.19
61.00 11.53
62.00 11.89
63.00 12.25
64.00 12.61
65.00 12.97
66.00 13.34
67.00 13.72
68.00 14.09
69.00 14.47
70.00 14.85
71.00 15.23
72.00 15.62
73.00 16.01
74.00 16.40
75.00 16.80
76.00 17.19
77.00 17.59
78.00 18.00
79.00 18.40
80.00 18.81
81.00 19.21
82.00 19.62
83.00 20.04
84.00 20.45
85.00 20.86
86.00 21.27
87.00 21.68
88.00 22.09
89.00 22.50
90.00 22.91
91.00 23.31
92.00 23.71
93.00 24.11
94.00 24.49
95.00 24.88
96.00 25.25
97.00 25.62
98.00 25.98
99.00 26.33
100.00 26.67
101.00 27.00
102.00 27.32
103.00 27.63
104.00 27.93
105.00 28.22
106.00 28.51
107.00 28.78
108.00 29.05
109.00 29.31
110.00 29.57
111.00 29.83
112.00 30.08
113.00 30.33
114.00 30.58
115.00 30.83
116.00 31.08
117.00 31.35
118.00 31.60
119.00 31.86
120.00 32.13
121.00 32.41
122.00 32.68
123.00 32.97
124.00 33.25
125.00 33.54
126.00 33.83
127.00 34.12
128.00 34.42
129.00 34.72
130.00 35.02
131.00 35.30
132.00 35.60
133.00 35.87
134.00 36.15
135.00 36.42
136.00 36.69
137.00 36.94
138.00 37.19
139.00 37.43
140.00 37.66
141.00 37.89
142.00 38.11
143.00 38.33
144.00 38.55
145.00 38.77
146.00 39.00
147.00 39.23
148.00 39.47
149.00 39.72
150.00 39.99
151.00 40.27
152.00 40.56
153.00 40.88
154.00 41.22
155.00 41.57
156.00 41.95
157.00 42.33
158.00 42.74
159.00 43.15
160.00 43.57
161.00 43.98
162.00 44.35
163.00 44.71
164.00 45.00
165.00 45.22
166.00 45.32
167.00 45.36
168.00 45.28
169.00 45.12
170.00 44.87
171.00 44.56
172.00 44.21
173.00 43.86
174.00 43.48
175.00 43.10
176.00 42.75
177.00 42.41
178.00 42.10
179.00 41.82
180.00 41.56
181.00 41.34
182.00 41.16
183.00 41.01
184.00 40.89
185.00 40.81
186.00 40.77
187.00 40.77
188.00 40.80
189.00 40.87
190.00 40.98
191.00 41.14
192.00 41.34
193.00 41.59
194.00 41.89
195.00 42.24
196.00 42.65
197.00 43.13
198.00 43.68
199.00 44.32
200.00 45.05
201.00 45.90
202.00 46.89
203.00 48.04
204.00 49.41
205.00 51.06
206.00 53.08
207.00 55.53
208.00 58.21
209.00 59.53
210.00 57.82
211.00 55.11
212.00 52.64
213.00 50.59
214.00 48.92
215.00 47.53
216.00 46.31
217.00 45.25
218.00 44.34
219.00 43.54
220.00 42.81
221.00 42.15
222.00 41.58
223.00 41.05
224.00 40.56
225.00 40.12
226.00 39.70
227.00 39.31
228.00 38.95
229.00 38.59
230.00 38.25
231.00 37.89
232.00 37.55
233.00 37.19
234.00 36.82
235.00 36.43
236.00 36.02
237.00 35.60
238.00 35.15
239.00 34.67
240.00 34.18
241.00 33.67
242.00 33.14
243.00 32.59
244.00 32.04
245.00 31.48
246.00 30.91
247.00 30.34
248.00 29.77
249.00 29.21
250.00 28.65
251.00 28.09
252.00 27.54
253.00 27.00
254.00 26.47
255.00 25.95
256.00 25.43
257.00 24.93
258.00 24.44
259.00 23.95
260.00 23.48
261.00 23.02
262.00 22.56
263.00 22.12
264.00 21.68
265.00 21.26
266.00 20.84
267.00 20.43
268.00 20.03
269.00 19.64
270.00 19.25
271.00 18.87
272.00 18.50
273.00 18.13
274.00 17.77
275.00 17.42
276.00 17.07
277.00 16.73
278.00 16.39
279.00 16.05
280.00 15.72
281.00 15.39
282.00 15.07
283.00 14.75
284.00 14.43
285.00 14.11
286.00 13.80
287.00 13.49
288.00 13.18
289.00 12.87
290.00 12.57
291.00 12.26
292.00 11.96
293.00 11.66
294.00 11.37
295.00 11.07
296.00 10.77
297.00 10.48
298.00 10.19
299.00 9.90
300.00 9.61
301.00 9.32
302.00 9.04
303.00 8.76
304.00 8.48
305.00 8.20
306.00 7.93
307.00 7.66
308.00 7.39
309.00 7.12
310.00 6.86
311.00 6.60
312.00 6.34
313.00 6.09
314.00 5.84
315.00 5.60
316.00 5.36
317.00 5.13
318.00 4.89
319.00 4.67
320.00 4.45
321.00 4.23
322.00 4.01
323.00 3.80
324.00 3.60
325.00 3.40
326.00 3.21
327.00 3.02
328.00 2.84
329.00 2.66
330.00 2.49
331.00 2.32
332.00 2.16
333.00 2.01
334.00 1.86
335.00 1.71
336.00 1.57
337.00 1.44
338.00 1.31
339.00 1.19
340.00 1.08
341.00 0.97
342.00 0.86
343.00 0.76
344.00 0.67
345.00 0.58
346.00 0.50
347.00 0.43
348.00 0.36
349.00 0.30
350.00 0.24
351.00 0.19
352.00 0.14
353.00 0.10
354.00 0.07
355.00 0.04
356.00 0.02
357.00 0.01
358.00 0.00
359.00 0.00
VERTICAL 360
0.00 0.18
1.00 0.00
2.00 0.16
3.00 0.68
4.00 1.59
5.00 2.90
6.00 4.70
7.00 7.09
8.00 10.26
9.00 14.64
10.00 21.18
11.00 28.30
12.00 24.05
13.00 21.73
14.00 21.94
15.00 24.47
16.00 30.91
17.00 33.79
18.00 25.21
19.00 21.30
20.00 19.36
21.00 18.63
22.00 18.82
23.00 19.88
24.00 21.93
25.00 25.39
26.00 31.69
27.00 48.64
28.00 33.56
29.00 29.47
30.00 28.64
31.00 30.09
32.00 33.20
33.00 30.81
34.00 25.17
35.00 21.11
36.00 18.24
37.00 16.16
38.00 14.65
39.00 13.59
40.00 12.92
41.00 12.60
42.00 12.61
43.00 12.94
44.00 13.53
45.00 14.37
46.00 15.43
47.00 16.68
48.00 18.14
49.00 19.88
50.00 22.04
51.00 24.82
52.00 28.55
53.00 33.83
54.00 42.09
55.00 51.14
56.00 45.83
57.00 43.19
58.00 40.42
59.00 37.80
60.00 35.97
61.00 34.99
62.00 34.90
63.00 35.96
64.00 38.31
65.00 39.37
66.00 35.86
67.00 32.47
68.00 30.48
69.00 29.61
70.00 29.54
71.00 29.90
72.00 30.20
73.00 29.96
74.00 29.09
75.00 27.93
76.00 26.91
77.00 26.28
78.00 26.14
79.00 26.41
80.00 26.83
81.00 27.02
82.00 26.83
83.00 26.50
84.00 26.35
85.00 26.54
86.00 27.05
87.00 27.81
88.00 28.69
89.00 29.45
90.00 29.81
91.00 29.65
92.00 29.16
93.00 28.62
94.00 28.21
95.00 28.04
96.00 28.21
97.00 28.75
98.00 29.63
99.00 30.66
100.00 31.54
101.00 32.06
102.00 32.29
103.00 32.57
104.00 33.19
105.00 34.35
106.00 36.06
107.00 38.13
108.00 39.97
109.00 40.86
110.00 40.86
111.00 40.78
112.00 41.33
113.00 42.84
114.00 45.22
115.00 47.57
116.00 49.12
117.00 50.30
118.00 48.67
119.00 44.47
120.00 41.12
121.00 38.94
122.00 37.54
123.00 36.49
124.00 35.45
125.00 34.28
126.00 33.04
127.00 31.95
128.00 31.15
129.00 30.74
130.00 30.72
131.00 31.04
132.00 31.65
133.00 32.54
134.00 33.75
135.00 35.35
136.00 37.48
137.00 40.31
138.00 43.97
139.00 48.12
140.00 50.99
141.00 50.46
142.00 47.84
143.00 45.32
144.00 43.60
145.00 42.64
146.00 42.29
147.00 42.62
148.00 44.09
149.00 47.66
150.00 53.79
151.00 49.53
152.00 44.63
153.00 42.01
154.00 40.32
155.00 38.93
156.00 37.74
157.00 36.91
158.00 36.56
159.00 36.82
160.00 37.92
161.00 40.19
162.00 43.82
163.00 45.95
164.00 43.43
165.00 41.24
166.00 40.30
167.00 39.93
168.00 39.42
169.00 38.58
170.00 37.66
171.00 36.87
172.00 36.20
173.00 35.65
174.00 35.27
175.00 35.14
176.00 36.04
177.00 37.40
178.00 39.36
179.00 41.82
180.00 43.63
181.00 45.12
182.00 46.35
183.00 47.78
184.00 49.73
185.00 51.22
186.00 49.16
187.00 45.34
188.00 42.51
189.00 40.87
190.00 40.21
191.00 40.33
192.00 41.01
193.00 41.96
194.00 42.66
195.00 42.69
196.00 42.41
197.00 42.52
198.00 43.39
199.00 45.07
200.00 47.49
201.00 50.84
202.00 54.27
203.00 51.65
204.00 47.44
205.00 44.71
206.00 42.97
207.00 41.68
208.00 40.71
209.00 40.19
210.00 40.29
211.00 40.96
212.00 41.95
213.00 42.76
214.00 42.70
215.00 41.52
216.00 39.72
217.00 37.93
218.00 36.49
219.00 35.51
220.00 35.02
221.00 34.93
222.00 35.15
223.00 35.55
224.00 36.22
225.00 37.35
226.00 39.21
227.00 41.69
228.00 43.74
229.00 44.07
230.00 43.50
231.00 42.78
232.00 41.89
233.00 41.08
234.00 40.60
235.00 40.29
236.00 39.87
237.00 39.48
238.00 39.57
239.00 40.29
240.00 41.20
241.00 41.59
242.00 41.64
243.00 42.19
244.00 43.53
245.00 44.47
246.00 43.13
247.00 40.86
248.00 39.20
249.00 38.39
250.00 38.39
251.00 39.03
252.00 39.94
253.00 40.49
254.00 40.22
255.00 39.33
256.00 38.33
257.00 37.64
258.00 37.54
259.00 38.15
260.00 39.33
261.00 40.49
262.00 40.61
263.00 39.33
264.00 37.51
265.00 36.06
266.00 35.45
267.00 35.93
268.00 37.72
269.00 41.12
270.00 46.70
271.00 56.89
272.00 59.75
273.00 48.64
274.00 43.66
275.00 41.23
276.00 40.64
277.00 41.52
278.00 43.10
279.00 44.03
280.00 44.17
281.00 44.64
282.00 45.37
283.00 45.21
284.00 44.12
285.00 42.80
286.00 41.05
287.00 38.87
288.00 36.81
289.00 35.23
290.00 34.21
291.00 33.70
292.00 33.68
293.00 34.05
294.00 34.59
295.00 34.96
296.00 35.00
297.00 35.06
298.00 35.72
299.00 37.43
300.00 39.04
301.00 36.01
302.00 31.37
303.00 27.77
304.00 25.08
305.00 23.02
306.00 21.35
307.00 19.92
308.00 18.65
309.00 17.55
310.00 16.65
311.00 15.99
312.00 15.62
313.00 15.55
314.00 15.78
315.00 16.27
316.00 16.99
317.00 17.88
318.00 18.90
319.00 20.07
320.00 21.42
321.00 23.00
322.00 24.86
323.00 26.96
324.00 29.19
325.00 31.36
326.00 33.25
327.00 34.43
328.00 34.45
329.00 33.79
330.00 33.43
331.00 33.98
332.00 35.56
333.00 36.35
334.00 33.29
335.00 29.37
336.00 26.34
337.00 24.14
338.00 22.60
339.00 21.62
340.00 21.18
341.00 21.37
342.00 22.40
343.00 24.67
344.00 29.17
345.00 36.34
346.00 29.99
347.00 25.38
348.00 23.69
349.00 24.42
350.00 28.86
351.00 28.82
352.00 19.33
353.00 13.65
354.00 9.72
355.00 6.80
356.00 4.57
357.00 2.86
358.00 1.59
359.00 0.70
