NAME ATR4518R7_2535_X_CO_P45_03T_yyR
FREQUENCY 2535
GAIN 15.55 dBd
TILT	ELECTRICAL
COMMENT DATE 05.08.2013 +45 degrees polarized system Lever position 03T deg
HORIZONTAL 360
0.00 0.01
1.00 0.02
2.00 0.05
3.00 0.08
4.00 0.12
5.00 0.17
6.00 0.23
7.00 0.29
8.00 0.36
9.00 0.44
10.00 0.53
11.00 0.62
12.00 0.72
13.00 0.82
14.00 0.92
15.00 1.03
16.00 1.15
17.00 1.26
18.00 1.37
19.00 1.49
20.00 1.61
21.00 1.73
22.00 1.85
23.00 1.97
24.00 2.09
25.00 2.22
26.00 2.35
27.00 2.48
28.00 2.62
29.00 2.76
30.00 2.91
31.00 3.07
32.00 3.23
33.00 3.40
34.00 3.58
35.00 3.77
36.00 3.97
37.00 4.19
38.00 4.41
39.00 4.64
40.00 4.89
41.00 5.16
42.00 5.43
43.00 5.72
44.00 6.02
45.00 6.33
46.00 6.66
47.00 7.00
48.00 7.36
49.00 7.73
50.00 8.12
51.00 8.53
52.00 8.96
53.00 9.41
54.00 9.87
55.00 10.36
56.00 10.87
57.00 11.41
58.00 11.97
59.00 12.56
60.00 13.18
61.00 13.82
62.00 14.49
63.00 15.19
64.00 15.92
65.00 16.67
66.00 17.44
67.00 18.23
68.00 19.05
69.00 19.87
70.00 20.70
71.00 21.52
72.00 22.35
73.00 23.18
74.00 24.01
75.00 24.84
76.00 25.69
77.00 26.57
78.00 27.50
79.00 28.52
80.00 29.64
81.00 30.89
82.00 32.30
83.00 33.85
84.00 35.44
85.00 36.72
86.00 37.15
87.00 36.48
88.00 35.15
89.00 33.68
90.00 32.32
91.00 31.15
92.00 30.18
93.00 29.39
94.00 28.77
95.00 28.29
96.00 27.95
97.00 27.74
98.00 27.64
99.00 27.65
100.00 27.77
101.00 27.99
102.00 28.30
103.00 28.70
104.00 29.17
105.00 29.70
106.00 30.28
107.00 30.87
108.00 31.46
109.00 32.00
110.00 32.49
111.00 32.90
112.00 33.25
113.00 33.57
114.00 33.90
115.00 34.29
116.00 34.78
117.00 35.45
118.00 36.35
119.00 37.57
120.00 39.27
121.00 41.71
122.00 45.44
123.00 51.55
124.00 51.23
125.00 44.79
126.00 40.72
127.00 37.94
128.00 35.91
129.00 34.36
130.00 33.17
131.00 32.27
132.00 31.60
133.00 31.14
134.00 30.88
135.00 30.80
136.00 30.91
137.00 31.20
138.00 31.71
139.00 32.45
140.00 33.47
141.00 34.83
142.00 36.67
143.00 39.23
144.00 43.13
145.00 50.63
146.00 58.09
147.00 45.78
148.00 41.01
149.00 38.13
150.00 36.18
151.00 34.79
152.00 33.79
153.00 33.10
154.00 32.66
155.00 32.44
156.00 32.41
157.00 32.55
158.00 32.85
159.00 33.29
160.00 33.81
161.00 34.38
162.00 34.88
163.00 35.22
164.00 35.29
165.00 35.07
166.00 34.63
167.00 34.06
168.00 33.47
169.00 32.94
170.00 32.51
171.00 32.21
172.00 32.05
173.00 32.04
174.00 32.20
175.00 32.53
176.00 33.04
177.00 33.77
178.00 34.75
179.00 36.02
180.00 37.67
181.00 39.87
182.00 42.94
183.00 47.72
184.00 57.88
185.00 54.42
186.00 47.02
187.00 43.36
188.00 41.09
189.00 39.59
190.00 38.60
191.00 37.99
192.00 37.68
193.00 37.64
194.00 37.84
195.00 38.26
196.00 38.87
197.00 39.65
198.00 40.51
199.00 41.30
200.00 41.78
201.00 41.76
202.00 41.22
203.00 40.39
204.00 39.45
205.00 38.57
206.00 37.81
207.00 37.21
208.00 36.77
209.00 36.48
210.00 36.34
211.00 36.34
212.00 36.47
213.00 36.72
214.00 37.07
215.00 37.47
216.00 37.88
217.00 38.23
218.00 38.43
219.00 38.40
220.00 38.13
221.00 37.64
222.00 36.99
223.00 36.28
224.00 35.56
225.00 34.88
226.00 34.26
227.00 33.70
228.00 33.22
229.00 32.81
230.00 32.47
231.00 32.20
232.00 32.00
233.00 31.85
234.00 31.77
235.00 31.73
236.00 31.74
237.00 31.80
238.00 31.90
239.00 32.03
240.00 32.20
241.00 32.39
242.00 32.61
243.00 32.85
244.00 33.11
245.00 33.40
246.00 33.69
247.00 34.00
248.00 34.33
249.00 34.67
250.00 35.03
251.00 35.40
252.00 35.80
253.00 36.21
254.00 36.63
255.00 37.05
256.00 37.43
257.00 37.74
258.00 37.93
259.00 37.90
260.00 37.61
261.00 37.06
262.00 36.25
263.00 35.27
264.00 34.20
265.00 33.09
266.00 31.99
267.00 30.92
268.00 29.90
269.00 28.94
270.00 28.03
271.00 27.18
272.00 26.39
273.00 25.64
274.00 24.95
275.00 24.30
276.00 23.69
277.00 23.12
278.00 22.59
279.00 22.08
280.00 21.60
281.00 21.15
282.00 20.72
283.00 20.30
284.00 19.89
285.00 19.50
286.00 19.11
287.00 18.73
288.00 18.34
289.00 17.96
290.00 17.57
291.00 17.18
292.00 16.78
293.00 16.38
294.00 15.97
295.00 15.56
296.00 15.13
297.00 14.71
298.00 14.27
299.00 13.83
300.00 13.39
301.00 12.94
302.00 12.49
303.00 12.04
304.00 11.59
305.00 11.15
306.00 10.70
307.00 10.26
308.00 9.82
309.00 9.39
310.00 8.97
311.00 8.55
312.00 8.14
313.00 7.74
314.00 7.34
315.00 6.96
316.00 6.59
317.00 6.23
318.00 5.87
319.00 5.53
320.00 5.21
321.00 4.89
322.00 4.58
323.00 4.29
324.00 4.01
325.00 3.74
326.00 3.48
327.00 3.24
328.00 3.01
329.00 2.79
330.00 2.58
331.00 2.38
332.00 2.19
333.00 2.02
334.00 1.85
335.00 1.70
336.00 1.55
337.00 1.41
338.00 1.28
339.00 1.16
340.00 1.05
341.00 0.94
342.00 0.84
343.00 0.75
344.00 0.66
345.00 0.58
346.00 0.50
347.00 0.43
348.00 0.36
349.00 0.30
350.00 0.24
351.00 0.19
352.00 0.14
353.00 0.10
354.00 0.07
355.00 0.04
356.00 0.02
357.00 0.01
358.00 0.00
359.00 0.00
VERTICAL 360
0.00 5.50
1.00 2.41
2.00 0.61
3.00 0.00
4.00 0.64
5.00 2.74
6.00 6.99
7.00 16.69
8.00 21.69
9.00 12.72
10.00 11.61
11.00 13.99
12.00 18.85
13.00 18.18
14.00 14.87
15.00 14.41
16.00 16.87
17.00 24.05
18.00 25.42
19.00 18.43
20.00 16.68
21.00 18.28
22.00 24.52
23.00 31.54
24.00 21.34
25.00 17.79
26.00 16.96
27.00 17.92
28.00 20.26
29.00 22.99
30.00 23.87
31.00 21.80
32.00 18.76
33.00 16.43
34.00 15.29
35.00 15.51
36.00 17.50
37.00 22.35
38.00 31.90
39.00 26.58
40.00 21.73
41.00 20.35
42.00 20.87
43.00 23.50
44.00 31.06
45.00 32.75
46.00 23.95
47.00 21.37
48.00 21.65
49.00 24.01
50.00 27.95
51.00 30.63
52.00 28.61
53.00 25.91
54.00 24.61
55.00 25.00
56.00 27.19
57.00 31.29
58.00 37.14
59.00 39.74
60.00 34.79
61.00 30.21
62.00 27.36
63.00 26.13
64.00 26.13
65.00 26.67
66.00 27.09
67.00 27.43
68.00 28.10
69.00 29.33
70.00 30.76
71.00 31.92
72.00 32.97
73.00 33.93
74.00 34.91
75.00 35.70
76.00 35.22
77.00 35.80
78.00 42.82
79.00 41.06
80.00 32.06
81.00 29.07
82.00 28.45
83.00 28.89
84.00 29.35
85.00 29.68
86.00 31.01
87.00 34.86
88.00 44.37
89.00 50.23
90.00 35.07
91.00 28.79
92.00 26.16
93.00 26.69
94.00 30.76
95.00 37.35
96.00 37.15
97.00 36.35
98.00 34.49
99.00 33.65
100.00 38.61
101.00 50.87
102.00 36.98
103.00 36.79
104.00 40.86
105.00 40.46
106.00 40.22
107.00 45.78
108.00 54.85
109.00 42.83
110.00 37.24
111.00 34.91
112.00 34.33
113.00 34.56
114.00 35.74
115.00 37.29
116.00 36.92
117.00 36.36
118.00 37.47
119.00 39.08
120.00 39.52
121.00 40.36
122.00 43.47
123.00 41.53
124.00 37.05
125.00 36.11
126.00 37.07
127.00 37.50
128.00 38.85
129.00 43.82
130.00 50.60
131.00 55.12
132.00 46.59
133.00 41.51
134.00 40.46
135.00 37.66
136.00 34.93
137.00 34.36
138.00 34.77
139.00 36.22
140.00 42.39
141.00 44.17
142.00 36.46
143.00 34.60
144.00 33.76
145.00 32.17
146.00 31.24
147.00 31.55
148.00 32.33
149.00 32.64
150.00 33.03
151.00 34.69
152.00 37.90
153.00 40.75
154.00 40.57
155.00 39.30
156.00 39.61
157.00 41.04
158.00 39.56
159.00 37.69
160.00 37.61
161.00 38.01
162.00 39.41
163.00 46.08
164.00 56.67
165.00 45.44
166.00 51.21
167.00 47.56
168.00 40.55
169.00 39.14
170.00 38.71
171.00 38.78
172.00 41.43
173.00 48.38
174.00 52.87
175.00 43.38
176.00 37.94
177.00 35.34
178.00 34.13
179.00 34.24
180.00 35.96
181.00 36.56
182.00 34.35
183.00 33.40
184.00 34.59
185.00 36.94
186.00 37.81
187.00 36.57
188.00 36.67
189.00 40.39
190.00 45.85
191.00 41.93
192.00 40.76
193.00 43.90
194.00 48.03
195.00 43.71
196.00 40.27
197.00 40.53
198.00 46.65
199.00 54.57
200.00 42.12
201.00 40.34
202.00 43.14
203.00 45.26
204.00 39.01
205.00 35.69
206.00 35.62
207.00 38.13
208.00 40.69
209.00 40.13
210.00 40.33
211.00 44.72
212.00 56.11
213.00 43.93
214.00 40.36
215.00 39.52
216.00 38.97
217.00 39.87
218.00 41.50
219.00 40.08
220.00 39.32
221.00 39.82
222.00 38.85
223.00 38.44
224.00 39.95
225.00 41.20
226.00 39.51
227.00 36.50
228.00 34.43
229.00 33.77
230.00 34.09
231.00 35.08
232.00 36.69
233.00 38.46
234.00 39.20
235.00 38.09
236.00 36.24
237.00 34.71
238.00 33.68
239.00 33.27
240.00 33.61
241.00 34.38
242.00 35.10
243.00 35.87
244.00 36.66
245.00 36.82
246.00 35.88
247.00 33.83
248.00 31.73
249.00 30.80
250.00 31.41
251.00 33.18
252.00 34.58
253.00 34.15
254.00 32.86
255.00 32.37
256.00 33.59
257.00 36.19
258.00 37.76
259.00 38.94
260.00 41.65
261.00 40.68
262.00 39.28
263.00 39.82
264.00 37.65
265.00 35.95
266.00 38.39
267.00 51.12
268.00 51.20
269.00 47.69
270.00 40.35
271.00 35.06
272.00 33.86
273.00 34.68
274.00 36.77
275.00 42.76
276.00 37.92
277.00 31.90
278.00 30.72
279.00 32.17
280.00 33.80
281.00 32.94
282.00 30.90
283.00 30.29
284.00 32.51
285.00 37.85
286.00 37.01
287.00 32.02
288.00 28.56
289.00 25.55
290.00 22.79
291.00 20.42
292.00 18.47
293.00 16.87
294.00 15.60
295.00 14.69
296.00 14.13
297.00 13.85
298.00 13.77
299.00 13.93
300.00 14.46
301.00 15.51
302.00 17.22
303.00 19.75
304.00 23.73
305.00 31.30
306.00 30.48
307.00 22.91
308.00 19.35
309.00 17.72
310.00 17.44
311.00 18.53
312.00 21.30
313.00 25.13
314.00 25.64
315.00 24.42
316.00 25.59
317.00 30.72
318.00 40.29
319.00 29.29
320.00 23.78
321.00 21.37
322.00 20.93
323.00 22.39
324.00 25.85
325.00 28.05
326.00 23.86
327.00 19.88
328.00 17.98
329.00 18.16
330.00 20.84
331.00 27.60
332.00 32.12
333.00 25.48
334.00 23.58
335.00 25.12
336.00 33.13
337.00 35.14
338.00 24.21
339.00 21.45
340.00 22.40
341.00 28.24
342.00 29.65
343.00 22.02
344.00 19.69
345.00 20.84
346.00 25.70
347.00 28.32
348.00 23.37
349.00 21.43
350.00 21.90
351.00 23.98
352.00 27.10
353.00 27.83
354.00 24.19
355.00 21.80
356.00 22.58
357.00 25.01
358.00 17.45
359.00 10.20
