NAME ATR4518R7_2655_X_CO_M45_04T_yL
FREQUENCY 2655
GAIN 16.10 dBd
TILT	ELECTRICAL
COMMENT DATE 05.08.2013 -45 degrees polarized system Lever position 04T deg
HORIZONTAL 360
0.00 0.07
1.00 0.14
2.00 0.22
3.00 0.31
4.00 0.41
5.00 0.51
6.00 0.62
7.00 0.72
8.00 0.83
9.00 0.92
10.00 1.01
11.00 1.09
12.00 1.16
13.00 1.23
14.00 1.30
15.00 1.36
16.00 1.43
17.00 1.50
18.00 1.58
19.00 1.67
20.00 1.77
21.00 1.89
22.00 2.02
23.00 2.17
24.00 2.33
25.00 2.50
26.00 2.69
27.00 2.89
28.00 3.10
29.00 3.31
30.00 3.53
31.00 3.76
32.00 3.98
33.00 4.20
34.00 4.43
35.00 4.65
36.00 4.86
37.00 5.07
38.00 5.28
39.00 5.48
40.00 5.68
41.00 5.88
42.00 6.07
43.00 6.26
44.00 6.46
45.00 6.65
46.00 6.85
47.00 7.04
48.00 7.24
49.00 7.44
50.00 7.65
51.00 7.86
52.00 8.07
53.00 8.28
54.00 8.50
55.00 8.73
56.00 8.96
57.00 9.19
58.00 9.43
59.00 9.68
60.00 9.93
61.00 10.19
62.00 10.46
63.00 10.73
64.00 11.02
65.00 11.31
66.00 11.62
67.00 11.94
68.00 12.28
69.00 12.63
70.00 13.00
71.00 13.39
72.00 13.80
73.00 14.23
74.00 14.70
75.00 15.19
76.00 15.71
77.00 16.26
78.00 16.86
79.00 17.50
80.00 18.19
81.00 18.93
82.00 19.73
83.00 20.59
84.00 21.52
85.00 22.54
86.00 23.63
87.00 24.82
88.00 26.10
89.00 27.45
90.00 28.86
91.00 30.24
92.00 31.48
93.00 32.41
94.00 32.88
95.00 32.92
96.00 32.64
97.00 32.21
98.00 31.76
99.00 31.35
100.00 31.01
101.00 30.74
102.00 30.53
103.00 30.36
104.00 30.21
105.00 30.08
106.00 29.94
107.00 29.78
108.00 29.61
109.00 29.42
110.00 29.24
111.00 29.07
112.00 28.92
113.00 28.82
114.00 28.78
115.00 28.80
116.00 28.90
117.00 29.09
118.00 29.38
119.00 29.76
120.00 30.24
121.00 30.82
122.00 31.50
123.00 32.26
124.00 33.07
125.00 33.91
126.00 34.73
127.00 35.47
128.00 36.10
129.00 36.59
130.00 37.01
131.00 37.41
132.00 37.87
133.00 38.47
134.00 39.30
135.00 40.39
136.00 41.73
137.00 43.12
138.00 43.81
139.00 42.98
140.00 41.07
141.00 38.95
142.00 37.06
143.00 35.46
144.00 34.15
145.00 33.08
146.00 32.24
147.00 31.59
148.00 31.10
149.00 30.78
150.00 30.59
151.00 30.52
152.00 30.57
153.00 30.72
154.00 30.95
155.00 31.26
156.00 31.60
157.00 31.97
158.00 32.35
159.00 32.69
160.00 33.00
161.00 33.25
162.00 33.44
163.00 33.57
164.00 33.65
165.00 33.66
166.00 33.63
167.00 33.53
168.00 33.36
169.00 33.12
170.00 32.83
171.00 32.48
172.00 32.10
173.00 31.72
174.00 31.36
175.00 31.04
176.00 30.78
177.00 30.60
178.00 30.50
179.00 30.49
180.00 30.60
181.00 30.81
182.00 31.15
183.00 31.61
184.00 32.23
185.00 33.00
186.00 33.95
187.00 35.12
188.00 36.52
189.00 38.22
190.00 40.25
191.00 42.62
192.00 44.96
193.00 46.12
194.00 45.21
195.00 43.39
196.00 41.67
197.00 40.28
198.00 39.24
199.00 38.50
200.00 38.01
201.00 37.74
202.00 37.69
203.00 37.85
204.00 38.21
205.00 38.81
206.00 39.66
207.00 40.82
208.00 42.36
209.00 44.40
210.00 47.13
211.00 50.44
212.00 52.09
213.00 49.59
214.00 46.40
215.00 43.92
216.00 42.07
217.00 40.70
218.00 39.69
219.00 38.99
220.00 38.54
221.00 38.31
222.00 38.31
223.00 38.50
224.00 38.89
225.00 39.48
226.00 40.28
227.00 41.26
228.00 42.39
229.00 43.58
230.00 44.61
231.00 45.17
232.00 45.09
233.00 44.47
234.00 43.62
235.00 42.75
236.00 41.98
237.00 41.35
238.00 40.84
239.00 40.41
240.00 40.01
241.00 39.60
242.00 39.12
243.00 38.55
244.00 37.88
245.00 37.14
246.00 36.35
247.00 35.56
248.00 34.80
249.00 34.10
250.00 33.46
251.00 32.90
252.00 32.44
253.00 32.06
254.00 31.77
255.00 31.57
256.00 31.47
257.00 31.46
258.00 31.55
259.00 31.74
260.00 32.03
261.00 32.43
262.00 32.93
263.00 33.54
264.00 34.23
265.00 34.93
266.00 35.52
267.00 35.83
268.00 35.65
269.00 34.94
270.00 33.85
271.00 32.59
272.00 31.30
273.00 30.06
274.00 28.92
275.00 27.89
276.00 26.96
277.00 26.13
278.00 25.39
279.00 24.72
280.00 24.13
281.00 23.60
282.00 23.12
283.00 22.68
284.00 22.26
285.00 21.86
286.00 21.46
287.00 21.05
288.00 20.63
289.00 20.20
290.00 19.74
291.00 19.27
292.00 18.77
293.00 18.27
294.00 17.76
295.00 17.24
296.00 16.73
297.00 16.23
298.00 15.73
299.00 15.25
300.00 14.77
301.00 14.31
302.00 13.85
303.00 13.39
304.00 12.94
305.00 12.49
306.00 12.03
307.00 11.57
308.00 11.09
309.00 10.61
310.00 10.12
311.00 9.63
312.00 9.13
313.00 8.63
314.00 8.13
315.00 7.65
316.00 7.17
317.00 6.71
318.00 6.26
319.00 5.83
320.00 5.43
321.00 5.04
322.00 4.68
323.00 4.35
324.00 4.04
325.00 3.75
326.00 3.49
327.00 3.25
328.00 3.03
329.00 2.84
330.00 2.66
331.00 2.51
332.00 2.37
333.00 2.24
334.00 2.13
335.00 2.03
336.00 1.94
337.00 1.85
338.00 1.77
339.00 1.69
340.00 1.61
341.00 1.52
342.00 1.43
343.00 1.33
344.00 1.22
345.00 1.10
346.00 0.98
347.00 0.86
348.00 0.73
349.00 0.60
350.00 0.48
351.00 0.37
352.00 0.27
353.00 0.17
354.00 0.10
355.00 0.05
356.00 0.01
357.00 0.00
358.00 0.00
359.00 0.03
VERTICAL 360
0.00 11.68
1.00 6.36
2.00 2.84
3.00 0.77
4.00 0.00
5.00 0.51
6.00 2.55
7.00 6.90
8.00 17.53
9.00 17.40
10.00 10.83
11.00 10.29
12.00 13.36
13.00 21.36
14.00 19.47
15.00 15.27
16.00 15.80
17.00 21.69
18.00 27.79
19.00 17.61
20.00 15.34
21.00 16.94
22.00 24.52
23.00 26.74
24.00 17.54
25.00 15.33
26.00 16.49
27.00 21.66
28.00 31.65
29.00 21.30
30.00 17.89
31.00 17.55
32.00 19.58
33.00 25.20
34.00 31.91
35.00 23.40
36.00 20.61
37.00 21.05
38.00 24.45
39.00 32.41
40.00 33.04
41.00 27.73
42.00 26.81
43.00 29.01
44.00 35.49
45.00 39.76
46.00 33.69
47.00 32.41
48.00 33.21
49.00 34.22
50.00 33.66
51.00 31.20
52.00 29.03
53.00 28.63
54.00 30.61
55.00 35.01
56.00 37.98
57.00 35.03
58.00 29.85
59.00 26.09
60.00 24.48
61.00 24.52
62.00 24.97
63.00 24.44
64.00 23.49
65.00 23.12
66.00 23.41
67.00 23.92
68.00 24.20
69.00 24.43
70.00 25.05
71.00 26.24
72.00 27.91
73.00 29.51
74.00 30.17
75.00 30.22
76.00 30.38
77.00 30.59
78.00 31.46
79.00 34.07
80.00 38.58
81.00 41.68
82.00 40.23
83.00 38.90
84.00 40.40
85.00 36.58
86.00 31.96
87.00 31.27
88.00 34.41
89.00 40.11
90.00 38.93
91.00 34.27
92.00 30.82
93.00 30.36
94.00 33.76
95.00 43.65
96.00 40.61
97.00 38.07
98.00 40.38
99.00 45.59
100.00 44.43
101.00 42.69
102.00 45.28
103.00 47.90
104.00 44.89
105.00 40.91
106.00 38.06
107.00 37.47
108.00 38.29
109.00 39.45
110.00 40.32
111.00 38.23
112.00 36.14
113.00 36.29
114.00 38.29
115.00 39.94
116.00 38.42
117.00 37.09
118.00 37.60
119.00 36.95
120.00 34.97
121.00 35.41
122.00 38.97
123.00 38.89
124.00 36.70
125.00 38.81
126.00 42.95
127.00 39.95
128.00 41.25
129.00 49.97
130.00 44.46
131.00 47.11
132.00 43.62
133.00 36.73
134.00 36.14
135.00 40.51
136.00 48.88
137.00 47.57
138.00 56.97
139.00 47.91
140.00 41.92
141.00 42.33
142.00 49.62
143.00 48.74
144.00 45.24
145.00 48.25
146.00 42.12
147.00 36.67
148.00 34.47
149.00 34.14
150.00 32.82
151.00 30.77
152.00 31.08
153.00 34.00
154.00 34.70
155.00 35.59
156.00 46.39
157.00 37.49
158.00 34.61
159.00 38.72
160.00 37.33
161.00 34.08
162.00 34.89
163.00 36.12
164.00 38.51
165.00 49.72
166.00 45.44
167.00 53.14
168.00 39.81
169.00 32.97
170.00 31.13
171.00 30.69
172.00 30.89
173.00 34.06
174.00 38.17
175.00 32.18
176.00 30.54
177.00 33.14
178.00 40.36
179.00 49.04
180.00 36.73
181.00 31.83
182.00 31.24
183.00 34.40
184.00 37.51
185.00 35.41
186.00 33.38
187.00 31.87
188.00 32.75
189.00 36.87
190.00 38.57
191.00 39.07
192.00 44.72
193.00 37.29
194.00 32.17
195.00 29.86
196.00 29.97
197.00 33.35
198.00 38.57
199.00 34.81
200.00 32.66
201.00 31.94
202.00 30.83
203.00 29.93
204.00 30.20
205.00 31.85
206.00 33.66
207.00 34.42
208.00 35.32
209.00 36.77
210.00 40.31
211.00 46.72
212.00 38.71
213.00 35.21
214.00 33.25
215.00 31.45
216.00 31.11
217.00 32.79
218.00 36.03
219.00 40.34
220.00 48.12
221.00 47.91
222.00 43.10
223.00 43.18
224.00 45.64
225.00 47.48
226.00 46.94
227.00 46.23
228.00 47.73
229.00 51.62
230.00 49.66
231.00 42.02
232.00 36.42
233.00 33.25
234.00 31.54
235.00 30.19
236.00 29.10
237.00 28.97
238.00 30.07
239.00 32.17
240.00 34.47
241.00 35.89
242.00 36.06
243.00 35.13
244.00 33.76
245.00 32.46
246.00 31.50
247.00 31.53
248.00 33.05
249.00 35.83
250.00 39.06
251.00 43.43
252.00 51.36
253.00 44.31
254.00 37.24
255.00 34.03
256.00 33.72
257.00 36.05
258.00 40.88
259.00 43.27
260.00 38.81
261.00 36.38
262.00 37.04
263.00 41.39
264.00 53.68
265.00 46.11
266.00 38.28
267.00 33.62
268.00 31.09
269.00 30.40
270.00 31.50
271.00 34.61
272.00 38.82
273.00 38.97
274.00 38.35
275.00 40.41
276.00 45.15
277.00 50.91
278.00 58.58
279.00 52.16
280.00 45.59
281.00 43.53
282.00 43.77
283.00 44.12
284.00 43.94
285.00 42.68
286.00 39.97
287.00 38.25
288.00 37.58
289.00 36.76
290.00 36.14
291.00 36.66
292.00 38.54
293.00 41.59
294.00 41.93
295.00 35.69
296.00 29.47
297.00 24.66
298.00 21.10
299.00 18.49
300.00 16.52
301.00 15.00
302.00 13.85
303.00 13.14
304.00 12.95
305.00 13.27
306.00 14.11
307.00 15.57
308.00 18.04
309.00 22.54
310.00 34.09
311.00 28.48
312.00 21.49
313.00 18.62
314.00 17.65
315.00 18.28
316.00 20.83
317.00 26.95
318.00 42.68
319.00 26.53
320.00 23.37
321.00 24.29
322.00 30.37
323.00 30.45
324.00 22.75
325.00 19.90
326.00 19.66
327.00 22.17
328.00 32.31
329.00 26.48
330.00 18.75
331.00 16.04
332.00 15.78
333.00 17.34
334.00 19.98
335.00 21.21
336.00 19.95
337.00 18.67
338.00 17.98
339.00 17.47
340.00 17.15
341.00 17.74
342.00 20.27
343.00 26.98
344.00 28.98
345.00 22.00
346.00 20.43
347.00 22.41
348.00 25.06
349.00 20.77
350.00 17.63
351.00 17.14
352.00 19.09
353.00 23.37
354.00 24.91
355.00 22.25
356.00 21.12
357.00 21.22
358.00 21.95
359.00 18.67
