NAME ATR4518R7_0847_X_CO_P45_04T
FREQUENCY 0847
GAIN 14.50 dBd
TILT	ELECTRICAL
COMMENT DATE 05.08.2013 +45 degrees polarized system Lever position 04T deg
HORIZONTAL 360
0.00 0.00
1.00 0.01
2.00 0.02
3.00 0.04
4.00 0.07
5.00 0.10
6.00 0.14
7.00 0.19
8.00 0.24
9.00 0.29
10.00 0.35
11.00 0.42
12.00 0.49
13.00 0.57
14.00 0.66
15.00 0.75
16.00 0.84
17.00 0.94
18.00 1.05
19.00 1.16
20.00 1.28
21.00 1.41
22.00 1.54
23.00 1.67
24.00 1.81
25.00 1.96
26.00 2.11
27.00 2.27
28.00 2.43
29.00 2.60
30.00 2.78
31.00 2.96
32.00 3.15
33.00 3.34
34.00 3.54
35.00 3.74
36.00 3.95
37.00 4.16
38.00 4.38
39.00 4.61
40.00 4.83
41.00 5.07
42.00 5.31
43.00 5.56
44.00 5.81
45.00 6.07
46.00 6.33
47.00 6.60
48.00 6.87
49.00 7.15
50.00 7.43
51.00 7.72
52.00 8.02
53.00 8.31
54.00 8.62
55.00 8.93
56.00 9.24
57.00 9.56
58.00 9.88
59.00 10.21
60.00 10.54
61.00 10.88
62.00 11.22
63.00 11.57
64.00 11.92
65.00 12.28
66.00 12.64
67.00 13.01
68.00 13.38
69.00 13.75
70.00 14.13
71.00 14.51
72.00 14.89
73.00 15.28
74.00 15.67
75.00 16.07
76.00 16.47
77.00 16.87
78.00 17.27
79.00 17.67
80.00 18.08
81.00 18.48
82.00 18.89
83.00 19.29
84.00 19.70
85.00 20.10
86.00 20.50
87.00 20.89
88.00 21.28
89.00 21.67
90.00 22.04
91.00 22.41
92.00 22.77
93.00 23.12
94.00 23.45
95.00 23.78
96.00 24.09
97.00 24.38
98.00 24.66
99.00 24.93
100.00 25.18
101.00 25.41
102.00 25.63
103.00 25.83
104.00 26.02
105.00 26.20
106.00 26.36
107.00 26.52
108.00 26.66
109.00 26.80
110.00 26.93
111.00 27.05
112.00 27.17
113.00 27.28
114.00 27.39
115.00 27.50
116.00 27.61
117.00 27.72
118.00 27.83
119.00 27.94
120.00 28.06
121.00 28.18
122.00 28.30
123.00 28.42
124.00 28.55
125.00 28.68
126.00 28.82
127.00 28.96
128.00 29.11
129.00 29.26
130.00 29.41
131.00 29.57
132.00 29.74
133.00 29.90
134.00 30.08
135.00 30.25
136.00 30.43
137.00 30.61
138.00 30.79
139.00 30.97
140.00 31.15
141.00 31.34
142.00 31.52
143.00 31.70
144.00 31.88
145.00 32.06
146.00 32.23
147.00 32.40
148.00 32.56
149.00 32.72
150.00 32.87
151.00 33.01
152.00 33.15
153.00 33.28
154.00 33.41
155.00 33.52
156.00 33.64
157.00 33.74
158.00 33.83
159.00 33.93
160.00 34.02
161.00 34.11
162.00 34.19
163.00 34.28
164.00 34.36
165.00 34.45
166.00 34.54
167.00 34.64
168.00 34.74
169.00 34.85
170.00 34.97
171.00 35.09
172.00 35.23
173.00 35.38
174.00 35.54
175.00 35.72
176.00 35.91
177.00 36.11
178.00 36.34
179.00 36.59
180.00 36.85
181.00 37.14
182.00 37.46
183.00 37.80
184.00 38.17
185.00 38.57
186.00 39.01
187.00 39.48
188.00 39.99
189.00 40.56
190.00 41.17
191.00 41.84
192.00 42.59
193.00 43.41
194.00 44.35
195.00 45.40
196.00 46.61
197.00 48.02
198.00 49.71
199.00 51.78
200.00 54.57
201.00 58.58
202.00 65.83
203.00 69.15
204.00 60.31
205.00 55.69
206.00 52.76
207.00 50.55
208.00 48.81
209.00 47.38
210.00 46.18
211.00 45.13
212.00 44.22
213.00 43.40
214.00 42.67
215.00 42.02
216.00 41.41
217.00 40.86
218.00 40.35
219.00 39.87
220.00 39.43
221.00 39.01
222.00 38.61
223.00 38.23
224.00 37.87
225.00 37.51
226.00 37.17
227.00 36.84
228.00 36.51
229.00 36.17
230.00 35.85
231.00 35.51
232.00 35.17
233.00 34.82
234.00 34.47
235.00 34.10
236.00 33.72
237.00 33.34
238.00 32.94
239.00 32.54
240.00 32.12
241.00 31.69
242.00 31.26
243.00 30.81
244.00 30.37
245.00 29.91
246.00 29.45
247.00 28.99
248.00 28.53
249.00 28.06
250.00 27.60
251.00 27.14
252.00 26.68
253.00 26.23
254.00 25.78
255.00 25.33
256.00 24.89
257.00 24.45
258.00 24.02
259.00 23.59
260.00 23.18
261.00 22.76
262.00 22.35
263.00 21.95
264.00 21.56
265.00 21.17
266.00 20.79
267.00 20.41
268.00 20.04
269.00 19.67
270.00 19.31
271.00 18.96
272.00 18.61
273.00 18.26
274.00 17.92
275.00 17.58
276.00 17.24
277.00 16.91
278.00 16.58
279.00 16.26
280.00 15.93
281.00 15.61
282.00 15.29
283.00 14.97
284.00 14.65
285.00 14.34
286.00 14.02
287.00 13.71
288.00 13.40
289.00 13.09
290.00 12.78
291.00 12.47
292.00 12.16
293.00 11.85
294.00 11.55
295.00 11.24
296.00 10.94
297.00 10.63
298.00 10.33
299.00 10.03
300.00 9.73
301.00 9.44
302.00 9.14
303.00 8.85
304.00 8.56
305.00 8.27
306.00 7.99
307.00 7.71
308.00 7.43
309.00 7.16
310.00 6.89
311.00 6.62
312.00 6.36
313.00 6.10
314.00 5.85
315.00 5.60
316.00 5.35
317.00 5.11
318.00 4.88
319.00 4.64
320.00 4.42
321.00 4.20
322.00 3.98
323.00 3.77
324.00 3.57
325.00 3.37
326.00 3.17
327.00 2.98
328.00 2.80
329.00 2.62
330.00 2.45
331.00 2.28
332.00 2.12
333.00 1.97
334.00 1.82
335.00 1.68
336.00 1.54
337.00 1.41
338.00 1.28
339.00 1.16
340.00 1.05
341.00 0.94
342.00 0.84
343.00 0.74
344.00 0.65
345.00 0.56
346.00 0.49
347.00 0.41
348.00 0.35
349.00 0.29
350.00 0.23
351.00 0.18
352.00 0.14
353.00 0.10
354.00 0.07
355.00 0.04
356.00 0.02
357.00 0.01
358.00 0.00
359.00 0.00
VERTICAL 360
0.00 2.71
1.00 1.46
2.00 0.62
3.00 0.13
4.00 0.00
5.00 0.20
6.00 0.74
7.00 1.64
8.00 2.94
9.00 4.69
10.00 7.02
11.00 10.11
12.00 14.40
13.00 21.00
14.00 37.49
15.00 28.96
16.00 24.87
17.00 25.13
18.00 28.91
19.00 40.95
20.00 28.88
21.00 22.64
22.00 19.37
23.00 17.54
24.00 16.68
25.00 16.60
26.00 17.24
27.00 18.60
28.00 20.79
29.00 24.03
30.00 29.02
31.00 37.78
32.00 36.60
33.00 31.19
34.00 29.41
35.00 30.01
36.00 33.36
37.00 37.20
38.00 30.17
39.00 25.03
40.00 21.91
41.00 19.94
42.00 18.68
43.00 17.90
44.00 17.41
45.00 17.17
46.00 17.18
47.00 17.48
48.00 18.14
49.00 19.20
50.00 20.66
51.00 22.48
52.00 24.64
53.00 27.19
54.00 30.43
55.00 35.29
56.00 44.72
57.00 41.17
58.00 35.40
59.00 33.12
60.00 32.43
61.00 32.43
62.00 32.41
63.00 31.83
64.00 30.84
65.00 30.06
66.00 30.12
67.00 31.44
68.00 34.39
69.00 38.50
70.00 38.65
71.00 35.63
72.00 33.46
73.00 32.32
74.00 32.30
75.00 33.65
76.00 35.72
77.00 34.85
78.00 31.60
79.00 29.18
80.00 27.93
81.00 27.77
82.00 28.76
83.00 30.79
84.00 32.21
85.00 30.74
86.00 28.76
87.00 27.77
88.00 27.61
89.00 27.77
90.00 28.05
91.00 28.67
92.00 29.81
93.00 31.07
94.00 31.57
95.00 31.28
96.00 30.88
97.00 30.61
98.00 30.46
99.00 30.58
100.00 31.22
101.00 32.52
102.00 34.43
103.00 36.79
104.00 39.40
105.00 42.28
106.00 45.75
107.00 50.32
108.00 56.18
109.00 59.97
110.00 56.35
111.00 50.36
112.00 45.65
113.00 42.35
114.00 40.10
115.00 38.67
116.00 38.08
117.00 38.34
118.00 39.15
119.00 39.44
120.00 38.36
121.00 36.85
122.00 35.83
123.00 35.48
124.00 35.62
125.00 35.88
126.00 35.77
127.00 35.07
128.00 34.26
129.00 33.84
130.00 34.06
131.00 34.92
132.00 36.16
133.00 37.18
134.00 37.34
135.00 36.80
136.00 36.19
137.00 35.87
138.00 35.94
139.00 36.45
140.00 37.53
141.00 39.57
142.00 43.61
143.00 54.03
144.00 47.86
145.00 40.82
146.00 37.51
147.00 35.84
148.00 35.10
149.00 34.90
150.00 34.93
151.00 34.96
152.00 34.92
153.00 34.84
154.00 34.75
155.00 34.72
156.00 34.84
157.00 35.21
158.00 35.99
159.00 37.35
160.00 39.60
161.00 43.26
162.00 48.67
163.00 47.60
164.00 42.83
165.00 40.19
166.00 39.29
167.00 40.06
168.00 43.30
169.00 54.60
170.00 47.20
171.00 39.92
172.00 36.73
173.00 35.27
174.00 34.92
175.00 35.41
176.00 36.59
177.00 37.52
178.00 38.83
179.00 40.26
180.00 41.53
181.00 42.48
182.00 43.01
183.00 42.89
184.00 42.47
185.00 41.31
186.00 39.72
187.00 38.03
188.00 36.50
189.00 35.25
190.00 34.38
191.00 33.88
192.00 33.72
193.00 33.74
194.00 33.76
195.00 33.66
196.00 33.53
197.00 33.62
198.00 34.14
199.00 35.14
200.00 36.53
201.00 37.92
202.00 38.78
203.00 38.72
204.00 38.00
205.00 37.25
206.00 37.03
207.00 37.78
208.00 39.95
209.00 44.54
210.00 57.04
211.00 50.30
212.00 43.67
213.00 40.50
214.00 38.29
215.00 36.40
216.00 34.79
217.00 33.61
218.00 33.01
219.00 33.00
220.00 33.36
221.00 33.73
222.00 33.87
223.00 33.89
224.00 33.96
225.00 33.97
226.00 33.76
227.00 33.42
228.00 33.18
229.00 33.07
230.00 32.93
231.00 32.45
232.00 31.47
233.00 30.25
234.00 29.22
235.00 28.62
236.00 28.45
237.00 28.61
238.00 28.93
239.00 29.31
240.00 29.74
241.00 30.20
242.00 30.69
243.00 31.24
244.00 31.88
245.00 32.53
246.00 32.91
247.00 32.78
248.00 32.24
249.00 31.65
250.00 31.30
251.00 31.38
252.00 31.99
253.00 33.18
254.00 34.74
255.00 35.65
256.00 34.80
257.00 33.01
258.00 31.50
259.00 30.74
260.00 31.02
261.00 32.55
262.00 35.56
263.00 38.71
264.00 37.71
265.00 35.33
266.00 33.86
267.00 33.17
268.00 33.24
269.00 34.29
270.00 35.86
271.00 35.47
272.00 33.10
273.00 31.32
274.00 30.74
275.00 31.16
276.00 32.25
277.00 33.35
278.00 33.44
279.00 32.23
280.00 30.71
281.00 29.67
282.00 29.27
283.00 29.40
284.00 29.80
285.00 30.17
286.00 30.34
287.00 30.44
288.00 30.80
289.00 31.76
290.00 33.59
291.00 36.60
292.00 41.46
293.00 51.55
294.00 52.30
295.00 43.20
296.00 39.17
297.00 36.76
298.00 35.41
299.00 35.08
300.00 35.87
301.00 38.11
302.00 42.89
303.00 58.87
304.00 44.29
305.00 37.09
306.00 32.53
307.00 28.92
308.00 25.92
309.00 23.49
310.00 21.56
311.00 20.10
312.00 19.02
313.00 18.24
314.00 17.70
315.00 17.34
316.00 17.17
317.00 17.22
318.00 17.52
319.00 18.14
320.00 19.14
321.00 20.57
322.00 22.51
323.00 25.11
324.00 28.61
325.00 33.53
326.00 40.43
327.00 41.85
328.00 38.21
329.00 36.71
330.00 36.89
331.00 38.49
332.00 41.12
333.00 41.74
334.00 38.11
335.00 34.15
336.00 30.81
337.00 27.95
338.00 25.51
339.00 23.49
340.00 21.94
341.00 20.89
342.00 20.40
343.00 20.52
344.00 21.37
345.00 23.21
346.00 26.68
347.00 34.31
348.00 40.76
349.00 29.15
350.00 25.47
351.00 24.52
352.00 26.26
353.00 35.35
354.00 28.47
355.00 18.68
356.00 13.26
357.00 9.46
358.00 6.59
359.00 4.39
