NAME ATR4518R7_1880_X_CO_M45_08T_yyR
FREQUENCY 1880
GAIN 14.47 dBd
TILT	ELECTRICAL
COMMENT DATE 05.08.2013 -45 degrees polarized system Lever position 08T deg
HORIZONTAL 360
0.00 0.09
1.00 0.06
2.00 0.04
3.00 0.02
4.00 0.01
5.00 0.00
6.00 0.00
7.00 0.00
8.00 0.01
9.00 0.03
10.00 0.04
11.00 0.07
12.00 0.10
13.00 0.14
14.00 0.18
15.00 0.23
16.00 0.29
17.00 0.36
18.00 0.43
19.00 0.51
20.00 0.60
21.00 0.70
22.00 0.81
23.00 0.93
24.00 1.05
25.00 1.19
26.00 1.34
27.00 1.49
28.00 1.66
29.00 1.84
30.00 2.02
31.00 2.22
32.00 2.43
33.00 2.65
34.00 2.88
35.00 3.11
36.00 3.36
37.00 3.62
38.00 3.89
39.00 4.17
40.00 4.45
41.00 4.75
42.00 5.05
43.00 5.36
44.00 5.68
45.00 6.01
46.00 6.34
47.00 6.68
48.00 7.02
49.00 7.37
50.00 7.73
51.00 8.09
52.00 8.46
53.00 8.83
54.00 9.20
55.00 9.58
56.00 9.96
57.00 10.34
58.00 10.73
59.00 11.12
60.00 11.51
61.00 11.90
62.00 12.29
63.00 12.68
64.00 13.07
65.00 13.46
66.00 13.85
67.00 14.23
68.00 14.61
69.00 14.99
70.00 15.36
71.00 15.73
72.00 16.09
73.00 16.45
74.00 16.80
75.00 17.15
76.00 17.50
77.00 17.85
78.00 18.19
79.00 18.54
80.00 18.90
81.00 19.25
82.00 19.62
83.00 19.99
84.00 20.38
85.00 20.77
86.00 21.19
87.00 21.61
88.00 22.05
89.00 22.51
90.00 22.99
91.00 23.49
92.00 24.00
93.00 24.53
94.00 25.07
95.00 25.63
96.00 26.19
97.00 26.76
98.00 27.33
99.00 27.88
100.00 28.42
101.00 28.94
102.00 29.42
103.00 29.85
104.00 30.24
105.00 30.57
106.00 30.84
107.00 31.05
108.00 31.20
109.00 31.30
110.00 31.35
111.00 31.37
112.00 31.35
113.00 31.30
114.00 31.23
115.00 31.14
116.00 31.03
117.00 30.92
118.00 30.81
119.00 30.69
120.00 30.58
121.00 30.48
122.00 30.39
123.00 30.32
124.00 30.28
125.00 30.26
126.00 30.28
127.00 30.33
128.00 30.42
129.00 30.55
130.00 30.74
131.00 30.97
132.00 31.26
133.00 31.62
134.00 32.04
135.00 32.53
136.00 33.10
137.00 33.74
138.00 34.47
139.00 35.29
140.00 36.17
141.00 37.09
142.00 38.00
143.00 38.82
144.00 39.40
145.00 39.63
146.00 39.48
147.00 39.02
148.00 38.37
149.00 37.65
150.00 36.96
151.00 36.33
152.00 35.78
153.00 35.33
154.00 34.98
155.00 34.73
156.00 34.57
157.00 34.53
158.00 34.58
159.00 34.73
160.00 35.00
161.00 35.37
162.00 35.88
163.00 36.52
164.00 37.32
165.00 38.31
166.00 39.54
167.00 41.07
168.00 43.05
169.00 45.71
170.00 49.65
171.00 57.16
172.00 65.92
173.00 52.54
174.00 47.63
175.00 44.64
176.00 42.54
177.00 40.96
178.00 39.74
179.00 38.79
180.00 38.04
181.00 37.46
182.00 37.03
183.00 36.72
184.00 36.52
185.00 36.43
186.00 36.44
187.00 36.54
188.00 36.72
189.00 36.99
190.00 37.33
191.00 37.75
192.00 38.22
193.00 38.74
194.00 39.28
195.00 39.80
196.00 40.27
197.00 40.62
198.00 40.80
199.00 40.79
200.00 40.59
201.00 40.23
202.00 39.76
203.00 39.23
204.00 38.69
205.00 38.16
206.00 37.66
207.00 37.19
208.00 36.77
209.00 36.39
210.00 36.06
211.00 35.76
212.00 35.50
213.00 35.27
214.00 35.06
215.00 34.88
216.00 34.72
217.00 34.57
218.00 34.42
219.00 34.28
220.00 34.15
221.00 34.02
222.00 33.89
223.00 33.77
224.00 33.64
225.00 33.52
226.00 33.40
227.00 33.29
228.00 33.19
229.00 33.10
230.00 33.01
231.00 32.94
232.00 32.88
233.00 32.83
234.00 32.78
235.00 32.75
236.00 32.71
237.00 32.67
238.00 32.62
239.00 32.56
240.00 32.47
241.00 32.35
242.00 32.19
243.00 31.99
244.00 31.74
245.00 31.44
246.00 31.11
247.00 30.73
248.00 30.32
249.00 29.87
250.00 29.41
251.00 28.94
252.00 28.45
253.00 27.97
254.00 27.48
255.00 27.00
256.00 26.52
257.00 26.06
258.00 25.60
259.00 25.15
260.00 24.72
261.00 24.29
262.00 23.88
263.00 23.47
264.00 23.07
265.00 22.68
266.00 22.29
267.00 21.91
268.00 21.54
269.00 21.17
270.00 20.81
271.00 20.45
272.00 20.08
273.00 19.73
274.00 19.37
275.00 19.02
276.00 18.66
277.00 18.31
278.00 17.96
279.00 17.61
280.00 17.26
281.00 16.92
282.00 16.58
283.00 16.23
284.00 15.90
285.00 15.56
286.00 15.23
287.00 14.90
288.00 14.57
289.00 14.25
290.00 13.93
291.00 13.61
292.00 13.30
293.00 13.00
294.00 12.70
295.00 12.40
296.00 12.11
297.00 11.83
298.00 11.54
299.00 11.27
300.00 10.99
301.00 10.72
302.00 10.45
303.00 10.19
304.00 9.93
305.00 9.68
306.00 9.42
307.00 9.17
308.00 8.92
309.00 8.68
310.00 8.43
311.00 8.19
312.00 7.94
313.00 7.71
314.00 7.47
315.00 7.23
316.00 6.99
317.00 6.75
318.00 6.51
319.00 6.28
320.00 6.05
321.00 5.81
322.00 5.58
323.00 5.35
324.00 5.12
325.00 4.90
326.00 4.67
327.00 4.45
328.00 4.23
329.00 4.02
330.00 3.80
331.00 3.59
332.00 3.39
333.00 3.19
334.00 2.99
335.00 2.80
336.00 2.62
337.00 2.44
338.00 2.27
339.00 2.10
340.00 1.94
341.00 1.78
342.00 1.64
343.00 1.49
344.00 1.36
345.00 1.23
346.00 1.11
347.00 0.99
348.00 0.89
349.00 0.79
350.00 0.69
351.00 0.60
352.00 0.52
353.00 0.45
354.00 0.38
355.00 0.32
356.00 0.26
357.00 0.21
358.00 0.17
359.00 0.13
VERTICAL 360
0.00 30.66
1.00 21.39
2.00 14.08
3.00 9.02
4.00 5.45
5.00 2.92
6.00 1.23
7.00 0.27
8.00 0.00
9.00 0.45
10.00 1.67
11.00 3.83
12.00 7.34
13.00 13.47
14.00 25.18
15.00 16.93
16.00 12.49
17.00 11.45
18.00 12.60
19.00 16.27
20.00 24.59
21.00 23.14
22.00 16.85
23.00 14.79
24.00 14.99
25.00 17.22
26.00 22.60
27.00 34.82
28.00 24.20
29.00 19.12
30.00 17.18
31.00 16.88
32.00 18.00
33.00 20.96
34.00 28.01
35.00 33.32
36.00 23.24
37.00 19.65
38.00 18.56
39.00 19.15
40.00 21.27
41.00 25.15
42.00 32.01
43.00 39.46
44.00 30.91
45.00 26.16
46.00 23.59
47.00 22.52
48.00 22.78
49.00 24.40
50.00 27.71
51.00 34.02
52.00 47.97
53.00 35.22
54.00 29.85
55.00 27.17
56.00 25.84
57.00 25.60
58.00 26.42
59.00 28.36
60.00 31.54
61.00 36.19
62.00 41.55
63.00 40.61
64.00 36.17
65.00 33.08
66.00 31.17
67.00 30.13
68.00 29.67
69.00 29.47
70.00 29.36
71.00 29.41
72.00 29.70
73.00 30.18
74.00 30.54
75.00 30.49
76.00 30.03
77.00 29.50
78.00 29.24
79.00 29.37
80.00 29.70
81.00 29.82
82.00 29.37
83.00 28.47
84.00 27.60
85.00 27.23
86.00 27.58
87.00 28.46
88.00 29.21
89.00 29.02
90.00 28.03
91.00 27.07
92.00 26.67
93.00 26.93
94.00 27.68
95.00 28.58
96.00 29.25
97.00 29.61
98.00 29.98
99.00 30.84
100.00 32.51
101.00 34.92
102.00 37.25
103.00 38.05
104.00 37.37
105.00 36.83
106.00 37.62
107.00 40.42
108.00 45.65
109.00 48.97
110.00 46.29
111.00 44.69
112.00 44.43
113.00 44.78
114.00 44.12
115.00 41.95
116.00 39.78
117.00 37.97
118.00 36.19
119.00 34.45
120.00 33.10
121.00 32.46
122.00 32.72
123.00 33.95
124.00 35.91
125.00 38.11
126.00 40.22
127.00 42.16
128.00 42.59
129.00 40.89
130.00 38.99
131.00 37.61
132.00 36.71
133.00 36.24
134.00 36.42
135.00 37.68
136.00 40.63
137.00 43.20
138.00 39.48
139.00 36.00
140.00 34.75
141.00 35.57
142.00 38.64
143.00 44.45
144.00 46.31
145.00 42.00
146.00 39.70
147.00 38.46
148.00 37.74
149.00 37.81
150.00 39.12
151.00 42.38
152.00 46.72
153.00 42.66
154.00 37.76
155.00 35.20
156.00 34.24
157.00 34.43
158.00 35.38
159.00 36.80
160.00 38.44
161.00 39.64
162.00 40.06
163.00 41.33
164.00 45.78
165.00 45.51
166.00 38.56
167.00 35.37
168.00 34.50
169.00 34.98
170.00 35.86
171.00 36.39
172.00 36.44
173.00 36.09
174.00 35.93
175.00 37.08
176.00 41.11
177.00 48.35
178.00 42.18
179.00 38.11
180.00 37.34
181.00 38.52
182.00 40.37
183.00 40.82
184.00 40.45
185.00 41.45
186.00 45.25
187.00 55.04
188.00 54.97
189.00 47.96
190.00 44.21
191.00 41.88
192.00 41.79
193.00 45.14
194.00 57.19
195.00 50.96
196.00 45.54
197.00 44.57
198.00 44.64
199.00 44.77
200.00 43.79
201.00 41.42
202.00 40.69
203.00 45.11
204.00 54.56
205.00 38.15
206.00 33.86
207.00 33.05
208.00 35.09
209.00 41.01
210.00 55.92
211.00 47.09
212.00 43.03
213.00 39.25
214.00 35.96
215.00 34.37
216.00 34.45
217.00 36.02
218.00 38.99
219.00 43.14
220.00 47.01
221.00 47.33
222.00 44.95
223.00 42.56
224.00 41.39
225.00 42.17
226.00 44.57
227.00 42.54
228.00 37.87
229.00 35.37
230.00 34.90
231.00 36.22
232.00 39.24
233.00 43.53
234.00 46.50
235.00 46.49
236.00 46.92
237.00 49.86
238.00 54.34
239.00 48.30
240.00 43.10
241.00 40.68
242.00 40.33
243.00 42.04
244.00 45.31
245.00 45.09
246.00 41.46
247.00 38.95
248.00 37.44
249.00 36.46
250.00 35.86
251.00 35.67
252.00 35.84
253.00 36.12
254.00 36.22
255.00 36.25
256.00 36.51
257.00 36.89
258.00 36.75
259.00 35.70
260.00 34.32
261.00 33.51
262.00 33.87
263.00 35.68
264.00 38.66
265.00 40.83
266.00 40.09
267.00 37.87
268.00 35.66
269.00 34.32
270.00 34.05
271.00 34.44
272.00 34.92
273.00 35.45
274.00 36.52
275.00 38.35
276.00 40.45
277.00 41.26
278.00 39.40
279.00 36.33
280.00 33.50
281.00 31.13
282.00 29.12
283.00 27.44
284.00 26.16
285.00 25.37
286.00 25.16
287.00 25.52
288.00 26.34
289.00 27.37
290.00 28.36
291.00 29.20
292.00 29.88
293.00 30.29
294.00 30.14
295.00 29.29
296.00 28.00
297.00 26.65
298.00 25.49
299.00 24.64
300.00 24.17
301.00 24.03
302.00 24.08
303.00 24.12
304.00 24.03
305.00 23.90
306.00 23.92
307.00 24.12
308.00 24.36
309.00 24.41
310.00 24.29
311.00 24.25
312.00 24.48
313.00 24.86
314.00 25.01
315.00 24.49
316.00 23.26
317.00 21.86
318.00 20.83
319.00 20.44
320.00 20.71
321.00 21.52
322.00 22.59
323.00 23.51
324.00 23.84
325.00 23.40
326.00 22.43
327.00 21.35
328.00 20.42
329.00 19.71
330.00 19.21
331.00 18.91
332.00 18.82
333.00 18.94
334.00 19.23
335.00 19.90
336.00 21.57
337.00 25.36
338.00 29.43
339.00 23.51
340.00 18.90
341.00 16.66
342.00 16.08
343.00 16.95
344.00 19.43
345.00 23.61
346.00 25.80
347.00 22.98
348.00 21.42
349.00 22.36
350.00 27.01
351.00 35.55
352.00 24.41
353.00 19.40
354.00 17.28
355.00 17.06
356.00 18.68
357.00 22.84
358.00 32.67
359.00 40.68
