NAME ATR4518R7_0832_X_CO_M45_10T
FREQUENCY 0832
GAIN 14.59 dBd
TILT	ELECTRICAL
COMMENT DATE 05.08.2013 -45 degrees polarized system Lever position 10T deg
HORIZONTAL 360
0.00 0.00
1.00 0.01
2.00 0.02
3.00 0.04
4.00 0.06
5.00 0.10
6.00 0.13
7.00 0.18
8.00 0.23
9.00 0.28
10.00 0.34
11.00 0.41
12.00 0.49
13.00 0.57
14.00 0.65
15.00 0.75
16.00 0.84
17.00 0.95
18.00 1.06
19.00 1.18
20.00 1.30
21.00 1.43
22.00 1.57
23.00 1.71
24.00 1.86
25.00 2.01
26.00 2.17
27.00 2.34
28.00 2.52
29.00 2.70
30.00 2.88
31.00 3.08
32.00 3.28
33.00 3.48
34.00 3.69
35.00 3.91
36.00 4.14
37.00 4.37
38.00 4.61
39.00 4.85
40.00 5.10
41.00 5.36
42.00 5.62
43.00 5.89
44.00 6.17
45.00 6.45
46.00 6.74
47.00 7.03
48.00 7.34
49.00 7.65
50.00 7.96
51.00 8.28
52.00 8.61
53.00 8.94
54.00 9.28
55.00 9.62
56.00 9.97
57.00 10.33
58.00 10.69
59.00 11.06
60.00 11.44
61.00 11.81
62.00 12.20
63.00 12.59
64.00 12.98
65.00 13.38
66.00 13.79
67.00 14.20
68.00 14.61
69.00 15.03
70.00 15.45
71.00 15.87
72.00 16.30
73.00 16.73
74.00 17.17
75.00 17.60
76.00 18.04
77.00 18.48
78.00 18.92
79.00 19.36
80.00 19.80
81.00 20.23
82.00 20.67
83.00 21.10
84.00 21.53
85.00 21.95
86.00 22.37
87.00 22.78
88.00 23.19
89.00 23.58
90.00 23.97
91.00 24.35
92.00 24.72
93.00 25.08
94.00 25.43
95.00 25.77
96.00 26.10
97.00 26.41
98.00 26.72
99.00 27.02
100.00 27.31
101.00 27.60
102.00 27.88
103.00 28.16
104.00 28.44
105.00 28.72
106.00 28.99
107.00 29.28
108.00 29.56
109.00 29.86
110.00 30.16
111.00 30.47
112.00 30.80
113.00 31.14
114.00 31.50
115.00 31.87
116.00 32.27
117.00 32.69
118.00 33.13
119.00 33.61
120.00 34.11
121.00 34.65
122.00 35.22
123.00 35.83
124.00 36.49
125.00 37.20
126.00 37.97
127.00 38.80
128.00 39.71
129.00 40.71
130.00 41.82
131.00 43.07
132.00 44.46
133.00 46.08
134.00 48.00
135.00 50.33
136.00 53.37
137.00 57.78
138.00 66.24
139.00 71.19
140.00 60.23
141.00 55.81
142.00 53.11
143.00 51.24
144.00 49.86
145.00 48.82
146.00 48.01
147.00 47.40
148.00 46.94
149.00 46.63
150.00 46.41
151.00 46.30
152.00 46.29
153.00 46.36
154.00 46.51
155.00 46.72
156.00 46.98
157.00 47.27
158.00 47.59
159.00 47.87
160.00 48.08
161.00 48.14
162.00 48.02
163.00 47.70
164.00 47.18
165.00 46.52
166.00 45.75
167.00 44.93
168.00 44.10
169.00 43.28
170.00 42.49
171.00 41.74
172.00 41.03
173.00 40.37
174.00 39.75
175.00 39.18
176.00 38.65
177.00 38.16
178.00 37.71
179.00 37.30
180.00 36.93
181.00 36.59
182.00 36.29
183.00 36.02
184.00 35.78
185.00 35.57
186.00 35.39
187.00 35.24
188.00 35.12
189.00 35.03
190.00 34.97
191.00 34.94
192.00 34.93
193.00 34.96
194.00 35.01
195.00 35.09
196.00 35.20
197.00 35.34
198.00 35.53
199.00 35.73
200.00 35.98
201.00 36.26
202.00 36.59
203.00 36.95
204.00 37.36
205.00 37.83
206.00 38.34
207.00 38.92
208.00 39.57
209.00 40.30
210.00 41.14
211.00 42.09
212.00 43.18
213.00 44.47
214.00 45.99
215.00 47.89
216.00 50.33
217.00 53.72
218.00 59.06
219.00 65.69
220.00 58.54
221.00 53.35
222.00 50.03
223.00 47.61
224.00 45.70
225.00 44.15
226.00 42.82
227.00 41.67
228.00 40.64
229.00 39.72
230.00 38.87
231.00 38.10
232.00 37.36
233.00 36.68
234.00 36.03
235.00 35.40
236.00 34.79
237.00 34.19
238.00 33.62
239.00 33.05
240.00 32.50
241.00 31.94
242.00 31.40
243.00 30.86
244.00 30.32
245.00 29.79
246.00 29.26
247.00 28.74
248.00 28.22
249.00 27.71
250.00 27.20
251.00 26.70
252.00 26.21
253.00 25.72
254.00 25.24
255.00 24.77
256.00 24.30
257.00 23.84
258.00 23.39
259.00 22.95
260.00 22.51
261.00 22.09
262.00 21.67
263.00 21.26
264.00 20.85
265.00 20.46
266.00 20.07
267.00 19.68
268.00 19.31
269.00 18.94
270.00 18.58
271.00 18.23
272.00 17.88
273.00 17.53
274.00 17.19
275.00 16.86
276.00 16.53
277.00 16.21
278.00 15.89
279.00 15.57
280.00 15.26
281.00 14.95
282.00 14.64
283.00 14.34
284.00 14.04
285.00 13.74
286.00 13.44
287.00 13.14
288.00 12.85
289.00 12.56
290.00 12.27
291.00 11.98
292.00 11.69
293.00 11.41
294.00 11.12
295.00 10.84
296.00 10.55
297.00 10.27
298.00 9.99
299.00 9.71
300.00 9.44
301.00 9.16
302.00 8.89
303.00 8.62
304.00 8.35
305.00 8.08
306.00 7.81
307.00 7.55
308.00 7.29
309.00 7.03
310.00 6.78
311.00 6.52
312.00 6.28
313.00 6.03
314.00 5.79
315.00 5.55
316.00 5.31
317.00 5.08
318.00 4.86
319.00 4.63
320.00 4.42
321.00 4.20
322.00 3.99
323.00 3.79
324.00 3.59
325.00 3.39
326.00 3.20
327.00 3.02
328.00 2.84
329.00 2.66
330.00 2.49
331.00 2.33
332.00 2.17
333.00 2.02
334.00 1.87
335.00 1.72
336.00 1.59
337.00 1.45
338.00 1.33
339.00 1.21
340.00 1.09
341.00 0.98
342.00 0.88
343.00 0.78
344.00 0.69
345.00 0.60
346.00 0.52
347.00 0.44
348.00 0.37
349.00 0.31
350.00 0.25
351.00 0.20
352.00 0.16
353.00 0.12
354.00 0.08
355.00 0.05
356.00 0.03
357.00 0.01
358.00 0.00
359.00 0.00
VERTICAL 360
0.00 27.09
1.00 18.05
2.00 12.83
3.00 9.15
4.00 6.39
5.00 4.27
6.00 2.66
7.00 1.47
8.00 0.64
9.00 0.16
10.00 0.00
11.00 0.15
12.00 0.63
13.00 1.43
14.00 2.59
15.00 4.15
16.00 6.16
17.00 8.75
18.00 12.15
19.00 16.87
20.00 24.73
21.00 42.28
22.00 25.74
23.00 22.35
24.00 21.55
25.00 22.33
26.00 24.63
27.00 29.16
28.00 37.99
29.00 33.12
30.00 27.76
31.00 25.40
32.00 24.59
33.00 24.88
34.00 26.11
35.00 28.30
36.00 31.75
37.00 37.16
38.00 41.64
39.00 36.73
40.00 33.30
41.00 31.86
42.00 31.95
43.00 33.67
44.00 37.95
45.00 48.18
46.00 39.40
47.00 33.45
48.00 30.36
49.00 28.52
50.00 27.35
51.00 26.54
52.00 25.95
53.00 25.58
54.00 25.52
55.00 25.88
56.00 26.84
57.00 28.64
58.00 31.68
59.00 37.00
60.00 44.68
61.00 38.33
62.00 33.88
63.00 31.65
64.00 30.52
65.00 29.99
66.00 29.68
67.00 29.33
68.00 28.79
69.00 28.19
70.00 27.76
71.00 27.63
72.00 27.82
73.00 28.28
74.00 28.95
75.00 29.87
76.00 31.11
77.00 32.74
78.00 34.72
79.00 37.00
80.00 39.81
81.00 43.32
82.00 42.60
83.00 37.61
84.00 33.81
85.00 31.27
86.00 29.60
87.00 28.53
88.00 27.89
89.00 27.56
90.00 27.48
91.00 27.63
92.00 27.99
93.00 28.58
94.00 29.45
95.00 30.62
96.00 32.10
97.00 33.88
98.00 36.04
99.00 38.79
100.00 42.75
101.00 49.65
102.00 73.29
103.00 50.82
104.00 46.69
105.00 44.94
106.00 43.88
107.00 42.83
108.00 41.70
109.00 40.60
110.00 39.55
111.00 38.54
112.00 37.65
113.00 37.04
114.00 36.82
115.00 37.08
116.00 37.79
117.00 38.86
118.00 40.10
119.00 41.27
120.00 42.19
121.00 42.92
122.00 43.82
123.00 45.46
124.00 48.79
125.00 57.15
126.00 58.21
127.00 48.71
128.00 44.88
129.00 42.89
130.00 41.78
131.00 41.06
132.00 40.49
133.00 40.05
134.00 39.83
135.00 40.04
136.00 40.93
137.00 42.88
138.00 46.13
139.00 47.87
140.00 44.28
141.00 40.90
142.00 38.88
143.00 37.89
144.00 37.58
145.00 37.63
146.00 37.67
147.00 37.38
148.00 36.71
149.00 35.82
150.00 34.96
151.00 34.31
152.00 34.00
153.00 34.11
154.00 34.71
155.00 35.90
156.00 37.80
157.00 40.53
158.00 44.08
159.00 47.21
160.00 47.06
161.00 44.63
162.00 41.77
163.00 39.12
164.00 37.01
165.00 35.56
166.00 34.77
167.00 34.59
168.00 34.98
169.00 35.85
170.00 37.11
171.00 37.80
172.00 38.71
173.00 39.86
174.00 41.26
175.00 42.96
176.00 44.73
177.00 45.05
178.00 43.44
179.00 41.01
180.00 39.14
181.00 38.01
182.00 37.54
183.00 37.57
184.00 37.91
185.00 38.36
186.00 38.75
187.00 38.98
188.00 39.09
189.00 39.19
190.00 39.45
191.00 39.95
192.00 40.56
193.00 40.89
194.00 40.44
195.00 39.27
196.00 37.87
197.00 36.61
198.00 35.65
199.00 35.08
200.00 34.95
201.00 35.36
202.00 36.39
203.00 38.17
204.00 40.88
205.00 44.47
206.00 46.17
207.00 42.82
208.00 39.02
209.00 36.11
210.00 34.01
211.00 32.63
212.00 31.89
213.00 31.73
214.00 32.04
215.00 32.69
216.00 33.42
217.00 33.98
218.00 34.19
219.00 34.10
220.00 33.91
221.00 33.89
222.00 34.22
223.00 34.94
224.00 35.79
225.00 36.22
226.00 35.81
227.00 34.88
228.00 33.97
229.00 33.32
230.00 33.05
231.00 33.18
232.00 33.69
233.00 34.40
234.00 34.94
235.00 34.94
236.00 34.37
237.00 33.57
238.00 32.84
239.00 32.41
240.00 32.48
241.00 33.23
242.00 34.85
243.00 37.57
244.00 41.64
245.00 45.77
246.00 44.51
247.00 41.39
248.00 39.18
249.00 37.74
250.00 36.94
251.00 36.68
252.00 36.82
253.00 37.18
254.00 37.57
255.00 37.88
256.00 38.16
257.00 38.54
258.00 39.15
259.00 40.05
260.00 41.16
261.00 42.19
262.00 42.55
263.00 41.86
264.00 40.41
265.00 38.87
266.00 37.69
267.00 37.04
268.00 36.90
269.00 37.19
270.00 37.76
271.00 38.45
272.00 39.05
273.00 39.29
274.00 39.03
275.00 38.55
276.00 38.22
277.00 38.18
278.00 38.35
279.00 38.51
280.00 38.46
281.00 38.15
282.00 37.66
283.00 37.20
284.00 37.01
285.00 37.30
286.00 38.11
287.00 39.31
288.00 40.51
289.00 41.19
290.00 41.18
291.00 40.76
292.00 40.39
293.00 40.48
294.00 41.41
295.00 43.47
296.00 46.93
297.00 51.25
298.00 52.93
299.00 52.85
300.00 53.86
301.00 51.58
302.00 45.84
303.00 41.27
304.00 38.01
305.00 35.82
306.00 34.57
307.00 34.26
308.00 34.95
309.00 36.82
310.00 40.37
311.00 45.00
312.00 41.56
313.00 36.33
314.00 32.68
315.00 29.98
316.00 27.93
317.00 26.41
318.00 25.41
319.00 24.98
320.00 25.20
321.00 26.23
322.00 28.39
323.00 32.61
324.00 43.99
325.00 36.84
326.00 29.18
327.00 25.11
328.00 22.40
329.00 20.46
330.00 19.08
331.00 18.22
332.00 17.87
333.00 18.10
334.00 19.03
335.00 20.88
336.00 24.15
337.00 30.51
338.00 45.28
339.00 29.82
340.00 25.36
341.00 23.59
342.00 23.37
343.00 24.52
344.00 27.29
345.00 31.96
346.00 31.93
347.00 26.93
348.00 23.76
349.00 22.10
350.00 21.60
351.00 22.16
352.00 23.94
353.00 27.36
354.00 32.01
355.00 30.30
356.00 26.65
357.00 25.41
358.00 27.15
359.00 38.16
