NAME ATR4518R7_0894_X_CO_P45_03T
FREQUENCY 0894
GAIN 14.72 dBd
TILT	ELECTRICAL
COMMENT DATE 05.08.2013 +45 degrees polarized system Lever position 03T deg
HORIZONTAL 360
0.00 0.01
1.00 0.00
2.00 0.00
3.00 0.01
4.00 0.03
5.00 0.05
6.00 0.07
7.00 0.10
8.00 0.14
9.00 0.19
10.00 0.24
11.00 0.29
12.00 0.36
13.00 0.43
14.00 0.50
15.00 0.58
16.00 0.67
17.00 0.76
18.00 0.86
19.00 0.97
20.00 1.08
21.00 1.20
22.00 1.33
23.00 1.46
24.00 1.59
25.00 1.74
26.00 1.89
27.00 2.04
28.00 2.20
29.00 2.37
30.00 2.54
31.00 2.72
32.00 2.91
33.00 3.10
34.00 3.30
35.00 3.50
36.00 3.71
37.00 3.92
38.00 4.14
39.00 4.37
40.00 4.61
41.00 4.85
42.00 5.09
43.00 5.34
44.00 5.60
45.00 5.86
46.00 6.13
47.00 6.41
48.00 6.69
49.00 6.97
50.00 7.27
51.00 7.57
52.00 7.87
53.00 8.18
54.00 8.50
55.00 8.82
56.00 9.15
57.00 9.48
58.00 9.83
59.00 10.17
60.00 10.52
61.00 10.88
62.00 11.25
63.00 11.62
64.00 12.00
65.00 12.38
66.00 12.78
67.00 13.17
68.00 13.58
69.00 13.99
70.00 14.41
71.00 14.84
72.00 15.27
73.00 15.71
74.00 16.16
75.00 16.61
76.00 17.08
77.00 17.55
78.00 18.03
79.00 18.52
80.00 19.01
81.00 19.52
82.00 20.04
83.00 20.56
84.00 21.10
85.00 21.64
86.00 22.19
87.00 22.76
88.00 23.33
89.00 23.92
90.00 24.51
91.00 25.11
92.00 25.72
93.00 26.34
94.00 26.96
95.00 27.59
96.00 28.21
97.00 28.83
98.00 29.44
99.00 30.04
100.00 30.61
101.00 31.15
102.00 31.64
103.00 32.08
104.00 32.46
105.00 32.78
106.00 33.02
107.00 33.18
108.00 33.29
109.00 33.32
110.00 33.30
111.00 33.24
112.00 33.14
113.00 33.02
114.00 32.88
115.00 32.74
116.00 32.59
117.00 32.44
118.00 32.30
119.00 32.16
120.00 32.03
121.00 31.92
122.00 31.83
123.00 31.74
124.00 31.67
125.00 31.61
126.00 31.58
127.00 31.55
128.00 31.55
129.00 31.56
130.00 31.59
131.00 31.64
132.00 31.70
133.00 31.79
134.00 31.90
135.00 32.02
136.00 32.17
137.00 32.34
138.00 32.53
139.00 32.75
140.00 33.00
141.00 33.27
142.00 33.58
143.00 33.91
144.00 34.28
145.00 34.70
146.00 35.14
147.00 35.65
148.00 36.19
149.00 36.80
150.00 37.48
151.00 38.23
152.00 39.07
153.00 40.01
154.00 41.07
155.00 42.25
156.00 43.59
157.00 45.05
158.00 46.56
159.00 47.82
160.00 48.45
161.00 48.00
162.00 46.81
163.00 45.31
164.00 43.82
165.00 42.46
166.00 41.24
167.00 40.15
168.00 39.19
169.00 38.33
170.00 37.56
171.00 36.88
172.00 36.26
173.00 35.71
174.00 35.21
175.00 34.77
176.00 34.36
177.00 34.00
178.00 33.68
179.00 33.40
180.00 33.15
181.00 32.93
182.00 32.74
183.00 32.58
184.00 32.45
185.00 32.35
186.00 32.27
187.00 32.22
188.00 32.19
189.00 32.18
190.00 32.20
191.00 32.24
192.00 32.31
193.00 32.40
194.00 32.51
195.00 32.64
196.00 32.79
197.00 32.96
198.00 33.16
199.00 33.38
200.00 33.61
201.00 33.88
202.00 34.15
203.00 34.45
204.00 34.78
205.00 35.12
206.00 35.49
207.00 35.87
208.00 36.28
209.00 36.71
210.00 37.15
211.00 37.62
212.00 38.11
213.00 38.62
214.00 39.15
215.00 39.70
216.00 40.27
217.00 40.86
218.00 41.46
219.00 42.10
220.00 42.73
221.00 43.38
222.00 44.04
223.00 44.66
224.00 45.28
225.00 45.82
226.00 46.28
227.00 46.59
228.00 46.72
229.00 46.63
230.00 46.33
231.00 45.83
232.00 45.20
233.00 44.47
234.00 43.69
235.00 42.87
236.00 42.05
237.00 41.23
238.00 40.43
239.00 39.65
240.00 38.90
241.00 38.16
242.00 37.45
243.00 36.77
244.00 36.10
245.00 35.46
246.00 34.82
247.00 34.22
248.00 33.62
249.00 33.04
250.00 32.47
251.00 31.90
252.00 31.35
253.00 30.81
254.00 30.28
255.00 29.75
256.00 29.22
257.00 28.71
258.00 28.19
259.00 27.69
260.00 27.18
261.00 26.68
262.00 26.18
263.00 25.69
264.00 25.20
265.00 24.71
266.00 24.23
267.00 23.75
268.00 23.28
269.00 22.81
270.00 22.34
271.00 21.88
272.00 21.42
273.00 20.97
274.00 20.52
275.00 20.08
276.00 19.64
277.00 19.21
278.00 18.78
279.00 18.36
280.00 17.94
281.00 17.53
282.00 17.12
283.00 16.72
284.00 16.32
285.00 15.93
286.00 15.55
287.00 15.17
288.00 14.79
289.00 14.42
290.00 14.05
291.00 13.69
292.00 13.33
293.00 12.98
294.00 12.63
295.00 12.29
296.00 11.95
297.00 11.61
298.00 11.28
299.00 10.95
300.00 10.63
301.00 10.31
302.00 9.99
303.00 9.68
304.00 9.38
305.00 9.07
306.00 8.77
307.00 8.48
308.00 8.19
309.00 7.90
310.00 7.62
311.00 7.34
312.00 7.07
313.00 6.80
314.00 6.53
315.00 6.28
316.00 6.02
317.00 5.77
318.00 5.52
319.00 5.28
320.00 5.04
321.00 4.81
322.00 4.58
323.00 4.36
324.00 4.14
325.00 3.93
326.00 3.72
327.00 3.52
328.00 3.32
329.00 3.13
330.00 2.94
331.00 2.76
332.00 2.58
333.00 2.41
334.00 2.25
335.00 2.09
336.00 1.93
337.00 1.79
338.00 1.64
339.00 1.51
340.00 1.38
341.00 1.25
342.00 1.13
343.00 1.02
344.00 0.91
345.00 0.81
346.00 0.71
347.00 0.62
348.00 0.54
349.00 0.46
350.00 0.39
351.00 0.32
352.00 0.26
353.00 0.21
354.00 0.16
355.00 0.12
356.00 0.09
357.00 0.06
358.00 0.04
359.00 0.02
VERTICAL 360
0.00 1.85
1.00 0.84
2.00 0.24
3.00 0.00
4.00 0.14
5.00 0.67
6.00 1.63
7.00 3.07
8.00 5.06
9.00 7.73
10.00 11.31
11.00 16.34
12.00 24.60
13.00 32.61
14.00 24.77
15.00 22.82
16.00 23.77
17.00 27.71
18.00 34.32
19.00 27.49
20.00 22.68
21.00 20.29
22.00 19.27
23.00 19.22
24.00 20.06
25.00 21.90
26.00 25.03
27.00 29.25
28.00 30.12
29.00 27.61
30.00 26.33
31.00 26.65
32.00 28.49
33.00 32.30
34.00 36.05
35.00 29.25
36.00 23.50
37.00 19.69
38.00 17.16
39.00 15.61
40.00 14.85
41.00 14.72
42.00 15.02
43.00 15.56
44.00 16.23
45.00 17.08
46.00 18.28
47.00 20.01
48.00 22.38
49.00 25.35
50.00 28.79
51.00 32.92
52.00 39.51
53.00 44.88
54.00 36.18
55.00 32.25
56.00 30.58
57.00 30.27
58.00 30.85
59.00 31.72
60.00 32.31
61.00 32.83
62.00 34.06
63.00 36.89
64.00 42.72
65.00 46.59
66.00 38.99
67.00 34.88
68.00 32.93
69.00 32.55
70.00 33.18
71.00 33.52
72.00 32.82
73.00 32.17
74.00 32.32
75.00 33.28
76.00 34.37
77.00 33.02
78.00 29.61
79.00 26.92
80.00 25.53
81.00 25.39
82.00 26.55
83.00 29.05
84.00 30.36
85.00 29.01
86.00 27.12
87.00 25.80
88.00 25.59
89.00 26.44
90.00 28.20
91.00 30.86
92.00 34.51
93.00 36.78
94.00 32.60
95.00 29.65
96.00 28.44
97.00 28.52
98.00 29.73
99.00 32.07
100.00 35.49
101.00 39.06
102.00 38.26
103.00 35.15
104.00 33.37
105.00 33.06
106.00 33.87
107.00 35.28
108.00 36.17
109.00 35.50
110.00 34.31
111.00 33.93
112.00 34.75
113.00 36.68
114.00 38.86
115.00 38.92
116.00 37.05
117.00 35.76
118.00 35.86
119.00 37.33
120.00 39.76
121.00 42.35
122.00 43.34
123.00 41.32
124.00 38.97
125.00 37.75
126.00 37.45
127.00 37.53
128.00 37.73
129.00 38.00
130.00 37.95
131.00 37.28
132.00 36.46
133.00 36.12
134.00 36.64
135.00 38.44
136.00 42.36
137.00 51.31
138.00 50.48
139.00 43.97
140.00 41.56
141.00 40.41
142.00 39.63
143.00 39.29
144.00 39.72
145.00 40.93
146.00 41.92
147.00 41.53
148.00 40.75
149.00 40.69
150.00 41.25
151.00 41.72
152.00 41.41
153.00 39.86
154.00 37.79
155.00 36.39
156.00 36.27
157.00 37.59
158.00 40.18
159.00 43.59
160.00 48.26
161.00 52.67
162.00 46.94
163.00 44.23
164.00 45.27
165.00 49.24
166.00 47.78
167.00 44.54
168.00 44.33
169.00 46.26
170.00 45.87
171.00 41.66
172.00 38.01
173.00 35.44
174.00 33.78
175.00 32.88
176.00 32.61
177.00 32.83
178.00 33.17
179.00 33.68
180.00 34.32
181.00 35.25
182.00 36.79
183.00 39.26
184.00 42.83
185.00 45.40
186.00 43.73
187.00 41.21
188.00 39.30
189.00 37.88
190.00 36.86
191.00 36.20
192.00 35.84
193.00 35.88
194.00 36.49
195.00 37.78
196.00 39.53
197.00 40.76
198.00 40.46
199.00 39.57
200.00 39.39
201.00 40.45
202.00 42.88
203.00 46.24
204.00 48.20
205.00 47.67
206.00 47.39
207.00 49.02
208.00 55.56
209.00 51.41
210.00 41.92
211.00 36.68
212.00 33.45
213.00 31.60
214.00 30.87
215.00 31.13
216.00 32.20
217.00 33.92
218.00 36.06
219.00 38.06
220.00 38.18
221.00 35.96
222.00 33.63
223.00 32.22
224.00 31.79
225.00 32.18
226.00 33.06
227.00 33.81
228.00 33.76
229.00 32.97
230.00 32.12
231.00 31.80
232.00 32.35
233.00 34.04
234.00 37.21
235.00 41.77
236.00 43.08
237.00 40.00
238.00 37.63
239.00 36.38
240.00 36.33
241.00 37.85
242.00 41.59
243.00 46.59
244.00 44.39
245.00 41.96
246.00 41.83
247.00 42.29
248.00 40.86
249.00 38.68
250.00 37.65
251.00 38.15
252.00 39.30
253.00 38.61
254.00 36.60
255.00 35.31
256.00 34.99
257.00 35.39
258.00 36.31
259.00 36.82
260.00 35.60
261.00 33.75
262.00 32.48
263.00 31.85
264.00 31.68
265.00 31.83
266.00 31.77
267.00 30.76
268.00 29.14
269.00 27.79
270.00 27.05
271.00 26.90
272.00 27.27
273.00 27.86
274.00 28.15
275.00 27.83
276.00 27.22
277.00 26.74
278.00 26.55
279.00 26.52
280.00 26.37
281.00 25.98
282.00 25.60
283.00 25.52
284.00 25.88
285.00 26.66
286.00 27.67
287.00 28.37
288.00 28.32
289.00 28.00
290.00 28.16
291.00 29.18
292.00 31.36
293.00 35.34
294.00 41.34
295.00 40.54
296.00 37.75
297.00 37.90
298.00 40.39
299.00 41.91
300.00 38.42
301.00 35.28
302.00 33.92
303.00 34.23
304.00 35.79
305.00 37.40
306.00 37.92
307.00 38.62
308.00 39.25
309.00 34.73
310.00 29.21
311.00 25.32
312.00 22.80
313.00 21.31
314.00 20.44
315.00 19.77
316.00 18.92
317.00 17.91
318.00 17.05
319.00 16.63
320.00 16.80
321.00 17.56
322.00 18.76
323.00 20.10
324.00 21.17
325.00 21.95
326.00 22.86
327.00 24.37
328.00 26.64
329.00 29.43
330.00 31.95
331.00 33.24
332.00 33.19
333.00 32.65
334.00 32.71
335.00 34.19
336.00 37.41
337.00 35.23
338.00 29.30
339.00 25.30
340.00 22.70
341.00 20.98
342.00 19.89
343.00 19.39
344.00 19.62
345.00 20.82
346.00 23.52
347.00 28.82
348.00 32.16
349.00 26.02
350.00 22.86
351.00 22.13
352.00 23.65
353.00 26.98
354.00 22.49
355.00 15.90
356.00 11.25
357.00 7.83
358.00 5.25
359.00 3.29
