NAME ATR4518R7_0847_X_CO_M45_06T
FREQUENCY 0847
GAIN 14.69 dBd
TILT	ELECTRICAL
COMMENT DATE 05.08.2013 -45 degrees polarized system Lever position 06T deg
HORIZONTAL 360
0.00 0.00
1.00 0.01
2.00 0.02
3.00 0.04
4.00 0.06
5.00 0.09
6.00 0.13
7.00 0.18
8.00 0.23
9.00 0.28
10.00 0.35
11.00 0.41
12.00 0.49
13.00 0.57
14.00 0.65
15.00 0.75
16.00 0.85
17.00 0.95
18.00 1.07
19.00 1.18
20.00 1.31
21.00 1.44
22.00 1.58
23.00 1.72
24.00 1.87
25.00 2.02
26.00 2.19
27.00 2.36
28.00 2.53
29.00 2.71
30.00 2.90
31.00 3.09
32.00 3.29
33.00 3.50
34.00 3.71
35.00 3.93
36.00 4.15
37.00 4.38
38.00 4.62
39.00 4.86
40.00 5.11
41.00 5.36
42.00 5.62
43.00 5.89
44.00 6.16
45.00 6.44
46.00 6.72
47.00 7.01
48.00 7.31
49.00 7.61
50.00 7.91
51.00 8.22
52.00 8.54
53.00 8.86
54.00 9.19
55.00 9.52
56.00 9.86
57.00 10.19
58.00 10.54
59.00 10.89
60.00 11.24
61.00 11.60
62.00 11.97
63.00 12.33
64.00 12.71
65.00 13.09
66.00 13.46
67.00 13.85
68.00 14.24
69.00 14.64
70.00 15.04
71.00 15.44
72.00 15.85
73.00 16.26
74.00 16.68
75.00 17.11
76.00 17.54
77.00 17.97
78.00 18.41
79.00 18.86
80.00 19.32
81.00 19.78
82.00 20.25
83.00 20.72
84.00 21.21
85.00 21.70
86.00 22.20
87.00 22.70
88.00 23.22
89.00 23.74
90.00 24.27
91.00 24.81
92.00 25.35
93.00 25.90
94.00 26.45
95.00 27.01
96.00 27.57
97.00 28.13
98.00 28.68
99.00 29.23
100.00 29.77
101.00 30.30
102.00 30.82
103.00 31.31
104.00 31.79
105.00 32.24
106.00 32.67
107.00 33.08
108.00 33.46
109.00 33.82
110.00 34.16
111.00 34.47
112.00 34.78
113.00 35.07
114.00 35.36
115.00 35.64
116.00 35.93
117.00 36.21
118.00 36.51
119.00 36.81
120.00 37.13
121.00 37.45
122.00 37.79
123.00 38.15
124.00 38.51
125.00 38.88
126.00 39.25
127.00 39.62
128.00 39.98
129.00 40.32
130.00 40.63
131.00 40.89
132.00 41.11
133.00 41.26
134.00 41.36
135.00 41.39
136.00 41.38
137.00 41.29
138.00 41.18
139.00 41.03
140.00 40.86
141.00 40.69
142.00 40.51
143.00 40.35
144.00 40.20
145.00 40.06
146.00 39.96
147.00 39.88
148.00 39.83
149.00 39.81
150.00 39.82
151.00 39.88
152.00 39.97
153.00 40.09
154.00 40.25
155.00 40.46
156.00 40.70
157.00 41.00
158.00 41.34
159.00 41.71
160.00 42.14
161.00 42.59
162.00 43.08
163.00 43.59
164.00 44.12
165.00 44.64
166.00 45.10
167.00 45.48
168.00 45.73
169.00 45.82
170.00 45.73
171.00 45.46
172.00 45.04
173.00 44.54
174.00 43.95
175.00 43.35
176.00 42.76
177.00 42.19
178.00 41.63
179.00 41.12
180.00 40.65
181.00 40.22
182.00 39.83
183.00 39.48
184.00 39.18
185.00 38.92
186.00 38.69
187.00 38.51
188.00 38.37
189.00 38.26
190.00 38.19
191.00 38.16
192.00 38.16
193.00 38.21
194.00 38.29
195.00 38.42
196.00 38.59
197.00 38.80
198.00 39.05
199.00 39.35
200.00 39.69
201.00 40.09
202.00 40.54
203.00 41.04
204.00 41.61
205.00 42.22
206.00 42.90
207.00 43.63
208.00 44.37
209.00 45.12
210.00 45.77
211.00 46.30
212.00 46.59
213.00 46.52
214.00 46.16
215.00 45.53
216.00 44.72
217.00 43.85
218.00 42.97
219.00 42.12
220.00 41.31
221.00 40.53
222.00 39.82
223.00 39.15
224.00 38.53
225.00 37.95
226.00 37.41
227.00 36.90
228.00 36.42
229.00 35.98
230.00 35.55
231.00 35.14
232.00 34.75
233.00 34.36
234.00 33.99
235.00 33.62
236.00 33.25
237.00 32.88
238.00 32.51
239.00 32.13
240.00 31.75
241.00 31.36
242.00 30.96
243.00 30.54
244.00 30.12
245.00 29.69
246.00 29.25
247.00 28.81
248.00 28.36
249.00 27.90
250.00 27.44
251.00 26.97
252.00 26.51
253.00 26.04
254.00 25.57
255.00 25.11
256.00 24.65
257.00 24.20
258.00 23.74
259.00 23.30
260.00 22.86
261.00 22.42
262.00 22.00
263.00 21.58
264.00 21.16
265.00 20.76
266.00 20.35
267.00 19.96
268.00 19.57
269.00 19.19
270.00 18.82
271.00 18.45
272.00 18.09
273.00 17.73
274.00 17.38
275.00 17.03
276.00 16.69
277.00 16.36
278.00 16.03
279.00 15.70
280.00 15.38
281.00 15.06
282.00 14.74
283.00 14.43
284.00 14.12
285.00 13.81
286.00 13.51
287.00 13.20
288.00 12.91
289.00 12.61
290.00 12.31
291.00 12.02
292.00 11.73
293.00 11.44
294.00 11.15
295.00 10.86
296.00 10.58
297.00 10.30
298.00 10.01
299.00 9.73
300.00 9.46
301.00 9.18
302.00 8.91
303.00 8.63
304.00 8.36
305.00 8.09
306.00 7.83
307.00 7.57
308.00 7.30
309.00 7.05
310.00 6.79
311.00 6.54
312.00 6.29
313.00 6.05
314.00 5.81
315.00 5.57
316.00 5.33
317.00 5.10
318.00 4.88
319.00 4.66
320.00 4.44
321.00 4.22
322.00 4.01
323.00 3.81
324.00 3.61
325.00 3.41
326.00 3.22
327.00 3.04
328.00 2.86
329.00 2.68
330.00 2.51
331.00 2.35
332.00 2.19
333.00 2.03
334.00 1.88
335.00 1.74
336.00 1.60
337.00 1.47
338.00 1.34
339.00 1.22
340.00 1.10
341.00 0.99
342.00 0.89
343.00 0.79
344.00 0.69
345.00 0.61
346.00 0.53
347.00 0.45
348.00 0.38
349.00 0.31
350.00 0.26
351.00 0.20
352.00 0.16
353.00 0.12
354.00 0.08
355.00 0.05
356.00 0.03
357.00 0.01
358.00 0.00
359.00 0.00
VERTICAL 360
0.00 6.28
1.00 4.11
2.00 2.48
3.00 1.30
4.00 0.51
5.00 0.08
6.00 0.00
7.00 0.24
8.00 0.83
9.00 1.77
10.00 3.12
11.00 4.93
12.00 7.31
13.00 10.46
14.00 14.78
15.00 21.30
16.00 32.12
17.00 26.81
18.00 23.48
19.00 23.27
20.00 25.37
21.00 31.03
22.00 43.54
23.00 28.61
24.00 23.63
25.00 21.12
26.00 19.87
27.00 19.51
28.00 19.89
29.00 21.02
30.00 23.02
31.00 26.15
32.00 31.02
33.00 39.47
34.00 43.24
35.00 37.73
36.00 36.84
37.00 38.86
38.00 39.43
39.00 33.54
40.00 28.65
41.00 25.27
42.00 22.91
43.00 21.27
44.00 20.17
45.00 19.49
46.00 19.13
47.00 19.05
48.00 19.21
49.00 19.66
50.00 20.48
51.00 21.75
52.00 23.57
53.00 26.03
54.00 29.27
55.00 33.53
56.00 39.93
57.00 46.35
58.00 37.17
59.00 32.20
60.00 29.46
61.00 28.00
62.00 27.45
63.00 27.68
64.00 28.76
65.00 30.58
66.00 32.17
67.00 32.05
68.00 31.28
69.00 31.30
70.00 32.45
71.00 34.81
72.00 38.17
73.00 39.35
74.00 36.46
75.00 34.18
76.00 33.35
77.00 33.49
78.00 33.53
79.00 32.22
80.00 30.02
81.00 28.20
82.00 27.27
83.00 27.28
84.00 27.93
85.00 28.56
86.00 28.54
87.00 27.91
88.00 27.13
89.00 26.63
90.00 26.75
91.00 27.62
92.00 29.04
93.00 30.26
94.00 30.43
95.00 29.74
96.00 28.87
97.00 28.29
98.00 28.30
99.00 29.01
100.00 30.30
101.00 31.81
102.00 33.03
103.00 33.60
104.00 33.78
105.00 34.19
106.00 35.23
107.00 36.87
108.00 38.99
109.00 41.44
110.00 42.16
111.00 39.52
112.00 36.90
113.00 35.25
114.00 34.27
115.00 33.82
116.00 34.12
117.00 35.42
118.00 37.37
119.00 37.91
120.00 36.02
121.00 34.02
122.00 32.92
123.00 32.76
124.00 33.41
125.00 34.45
126.00 35.02
127.00 34.48
128.00 33.37
129.00 32.55
130.00 32.41
131.00 33.04
132.00 34.32
133.00 35.82
134.00 36.96
135.00 37.34
136.00 37.25
137.00 37.35
138.00 37.98
139.00 38.98
140.00 39.76
141.00 39.67
142.00 38.58
143.00 37.07
144.00 35.97
145.00 35.79
146.00 36.60
147.00 38.20
148.00 40.10
149.00 41.16
150.00 40.62
151.00 39.58
152.00 39.03
153.00 38.97
154.00 38.86
155.00 38.42
156.00 37.90
157.00 37.48
158.00 37.29
159.00 37.54
160.00 38.55
161.00 40.21
162.00 41.59
163.00 41.84
164.00 41.83
165.00 42.12
166.00 41.82
167.00 40.53
168.00 39.32
169.00 38.86
170.00 39.09
171.00 39.61
172.00 39.94
173.00 40.13
174.00 40.59
175.00 41.33
176.00 42.22
177.00 42.19
178.00 40.97
179.00 39.76
180.00 39.40
181.00 40.03
182.00 41.37
183.00 42.55
184.00 42.75
185.00 42.59
186.00 42.40
187.00 42.37
188.00 42.57
189.00 42.72
190.00 42.43
191.00 41.86
192.00 41.58
193.00 41.87
194.00 42.76
195.00 44.06
196.00 45.44
197.00 46.53
198.00 47.38
199.00 48.59
200.00 50.98
201.00 56.14
202.00 59.80
203.00 51.87
204.00 47.85
205.00 46.00
206.00 44.89
207.00 43.30
208.00 41.25
209.00 39.54
210.00 38.58
211.00 38.47
212.00 39.29
213.00 41.27
214.00 45.02
215.00 52.28
216.00 57.76
217.00 50.14
218.00 46.43
219.00 43.75
220.00 41.81
221.00 40.95
222.00 41.20
223.00 42.34
224.00 43.78
225.00 43.61
226.00 40.58
227.00 37.38
228.00 35.43
229.00 34.84
230.00 35.40
231.00 36.56
232.00 37.36
233.00 37.16
234.00 36.06
235.00 34.70
236.00 33.86
237.00 34.02
238.00 35.11
239.00 36.38
240.00 36.89
241.00 37.17
242.00 38.20
243.00 40.22
244.00 42.98
245.00 46.01
246.00 46.80
247.00 44.22
248.00 42.11
249.00 41.28
250.00 41.32
251.00 41.70
252.00 42.02
253.00 41.79
254.00 41.04
255.00 40.62
256.00 41.05
257.00 42.14
258.00 43.08
259.00 43.34
260.00 43.24
261.00 43.18
262.00 43.18
263.00 43.07
264.00 42.56
265.00 41.70
266.00 40.79
267.00 40.21
268.00 40.21
269.00 40.46
270.00 39.81
271.00 38.47
272.00 38.00
273.00 39.04
274.00 39.76
275.00 37.25
276.00 34.55
277.00 33.09
278.00 32.51
279.00 32.27
280.00 32.27
281.00 32.64
282.00 33.17
283.00 33.19
284.00 32.59
285.00 31.93
286.00 31.62
287.00 31.91
288.00 33.15
289.00 35.75
290.00 39.87
291.00 42.56
292.00 41.00
293.00 39.89
294.00 40.46
295.00 43.62
296.00 54.37
297.00 43.62
298.00 37.13
299.00 34.24
300.00 33.24
301.00 33.54
302.00 34.73
303.00 36.41
304.00 38.16
305.00 39.94
306.00 42.09
307.00 42.28
308.00 37.39
309.00 32.53
310.00 28.86
311.00 26.08
312.00 23.89
313.00 22.14
314.00 20.77
315.00 19.76
316.00 19.12
317.00 18.86
318.00 18.94
319.00 19.34
320.00 20.02
321.00 21.04
322.00 22.53
323.00 24.74
324.00 28.06
325.00 32.50
326.00 33.43
327.00 30.44
328.00 28.65
329.00 28.35
330.00 29.24
331.00 31.06
332.00 33.27
333.00 34.74
334.00 34.66
335.00 33.49
336.00 32.02
337.00 30.95
338.00 30.92
339.00 32.39
340.00 34.51
341.00 31.59
342.00 26.76
343.00 23.34
344.00 21.17
345.00 20.02
346.00 19.80
347.00 20.55
348.00 22.46
349.00 25.91
350.00 30.18
351.00 28.70
352.00 25.48
353.00 24.38
354.00 25.97
355.00 34.51
356.00 28.09
357.00 18.35
358.00 12.92
359.00 9.12
