NAME ATR4518R7_0947_X_CO_M45_10T
FREQUENCY 0947
GAIN 15.10 dBd
TILT	ELECTRICAL
COMMENT DATE 05.08.2013 -45 degrees polarized system Lever position 10T deg
HORIZONTAL 360
0.00 0.03
1.00 0.01
2.00 0.00
3.00 0.00
4.00 0.01
5.00 0.02
6.00 0.04
7.00 0.07
8.00 0.10
9.00 0.14
10.00 0.19
11.00 0.25
12.00 0.31
13.00 0.38
14.00 0.46
15.00 0.54
16.00 0.63
17.00 0.73
18.00 0.84
19.00 0.96
20.00 1.08
21.00 1.21
22.00 1.35
23.00 1.49
24.00 1.64
25.00 1.80
26.00 1.97
27.00 2.15
28.00 2.33
29.00 2.52
30.00 2.72
31.00 2.93
32.00 3.15
33.00 3.37
34.00 3.60
35.00 3.84
36.00 4.08
37.00 4.34
38.00 4.60
39.00 4.88
40.00 5.16
41.00 5.44
42.00 5.74
43.00 6.05
44.00 6.36
45.00 6.68
46.00 7.02
47.00 7.36
48.00 7.71
49.00 8.07
50.00 8.44
51.00 8.82
52.00 9.21
53.00 9.60
54.00 10.01
55.00 10.44
56.00 10.87
57.00 11.31
58.00 11.77
59.00 12.24
60.00 12.73
61.00 13.22
62.00 13.74
63.00 14.26
64.00 14.81
65.00 15.37
66.00 15.95
67.00 16.55
68.00 17.17
69.00 17.80
70.00 18.46
71.00 19.15
72.00 19.86
73.00 20.59
74.00 21.34
75.00 22.12
76.00 22.93
77.00 23.75
78.00 24.60
79.00 25.45
80.00 26.30
81.00 27.14
82.00 27.94
83.00 28.68
84.00 29.33
85.00 29.86
86.00 30.25
87.00 30.51
88.00 30.63
89.00 30.63
90.00 30.56
91.00 30.43
92.00 30.28
93.00 30.12
94.00 29.96
95.00 29.82
96.00 29.71
97.00 29.63
98.00 29.57
99.00 29.56
100.00 29.58
101.00 29.63
102.00 29.72
103.00 29.85
104.00 30.01
105.00 30.21
106.00 30.44
107.00 30.71
108.00 31.02
109.00 31.36
110.00 31.74
111.00 32.16
112.00 32.62
113.00 33.12
114.00 33.65
115.00 34.24
116.00 34.86
117.00 35.53
118.00 36.25
119.00 37.01
120.00 37.83
121.00 38.71
122.00 39.64
123.00 40.63
124.00 41.70
125.00 42.81
126.00 44.02
127.00 45.29
128.00 46.62
129.00 48.03
130.00 49.45
131.00 50.81
132.00 51.98
133.00 52.74
134.00 52.86
135.00 52.35
136.00 51.38
137.00 50.17
138.00 48.89
139.00 47.60
140.00 46.35
141.00 45.16
142.00 44.01
143.00 42.93
144.00 41.91
145.00 40.94
146.00 40.02
147.00 39.15
148.00 38.34
149.00 37.56
150.00 36.83
151.00 36.15
152.00 35.50
153.00 34.89
154.00 34.32
155.00 33.78
156.00 33.27
157.00 32.79
158.00 32.35
159.00 31.93
160.00 31.54
161.00 31.17
162.00 30.83
163.00 30.51
164.00 30.21
165.00 29.94
166.00 29.69
167.00 29.45
168.00 29.24
169.00 29.05
170.00 28.87
171.00 28.71
172.00 28.56
173.00 28.44
174.00 28.32
175.00 28.23
176.00 28.15
177.00 28.08
178.00 28.03
179.00 27.99
180.00 27.96
181.00 27.95
182.00 27.95
183.00 27.96
184.00 27.99
185.00 28.02
186.00 28.07
187.00 28.14
188.00 28.22
189.00 28.30
190.00 28.41
191.00 28.52
192.00 28.65
193.00 28.80
194.00 28.96
195.00 29.13
196.00 29.32
197.00 29.53
198.00 29.75
199.00 30.00
200.00 30.27
201.00 30.55
202.00 30.87
203.00 31.21
204.00 31.57
205.00 31.97
206.00 32.40
207.00 32.88
208.00 33.38
209.00 33.95
210.00 34.55
211.00 35.21
212.00 35.94
213.00 36.73
214.00 37.58
215.00 38.48
216.00 39.43
217.00 40.36
218.00 41.19
219.00 41.76
220.00 41.94
221.00 41.67
222.00 40.99
223.00 40.06
224.00 39.03
225.00 38.00
226.00 36.99
227.00 36.04
228.00 35.17
229.00 34.35
230.00 33.60
231.00 32.91
232.00 32.27
233.00 31.67
234.00 31.12
235.00 30.62
236.00 30.14
237.00 29.70
238.00 29.30
239.00 28.91
240.00 28.56
241.00 28.22
242.00 27.91
243.00 27.61
244.00 27.33
245.00 27.07
246.00 26.81
247.00 26.57
248.00 26.33
249.00 26.10
250.00 25.87
251.00 25.64
252.00 25.41
253.00 25.17
254.00 24.94
255.00 24.69
256.00 24.44
257.00 24.17
258.00 23.90
259.00 23.61
260.00 23.32
261.00 23.01
262.00 22.69
263.00 22.36
264.00 22.03
265.00 21.68
266.00 21.33
267.00 20.97
268.00 20.60
269.00 20.23
270.00 19.86
271.00 19.49
272.00 19.12
273.00 18.75
274.00 18.38
275.00 18.01
276.00 17.65
277.00 17.28
278.00 16.93
279.00 16.57
280.00 16.23
281.00 15.88
282.00 15.54
283.00 15.21
284.00 14.88
285.00 14.56
286.00 14.24
287.00 13.92
288.00 13.62
289.00 13.31
290.00 13.01
291.00 12.72
292.00 12.42
293.00 12.13
294.00 11.85
295.00 11.57
296.00 11.29
297.00 11.02
298.00 10.74
299.00 10.48
300.00 10.21
301.00 9.95
302.00 9.68
303.00 9.43
304.00 9.17
305.00 8.92
306.00 8.66
307.00 8.41
308.00 8.17
309.00 7.92
310.00 7.67
311.00 7.43
312.00 7.19
313.00 6.95
314.00 6.71
315.00 6.48
316.00 6.25
317.00 6.02
318.00 5.79
319.00 5.57
320.00 5.35
321.00 5.13
322.00 4.91
323.00 4.70
324.00 4.49
325.00 4.28
326.00 4.08
327.00 3.88
328.00 3.68
329.00 3.49
330.00 3.30
331.00 3.11
332.00 2.93
333.00 2.76
334.00 2.59
335.00 2.42
336.00 2.26
337.00 2.10
338.00 1.95
339.00 1.80
340.00 1.66
341.00 1.52
342.00 1.39
343.00 1.26
344.00 1.14
345.00 1.02
346.00 0.91
347.00 0.81
348.00 0.71
349.00 0.62
350.00 0.54
351.00 0.46
352.00 0.38
353.00 0.32
354.00 0.25
355.00 0.20
356.00 0.15
357.00 0.11
358.00 0.08
359.00 0.05
VERTICAL 360
0.00 21.71
1.00 18.88
2.00 14.54
3.00 10.52
4.00 7.28
5.00 4.77
6.00 2.89
7.00 1.53
8.00 0.62
9.00 0.12
10.00 0.00
11.00 0.28
12.00 0.96
13.00 2.10
14.00 3.72
15.00 5.92
16.00 8.82
17.00 12.69
18.00 18.09
19.00 25.51
20.00 25.81
21.00 22.50
22.00 21.49
23.00 22.13
24.00 24.25
25.00 28.31
26.00 36.68
27.00 40.75
28.00 32.67
29.00 30.24
30.00 29.99
31.00 31.02
32.00 32.48
33.00 32.89
34.00 31.91
35.00 30.87
36.00 30.61
37.00 31.46
38.00 33.54
39.00 35.31
40.00 32.72
41.00 29.18
42.00 26.96
43.00 25.98
44.00 25.80
45.00 25.90
46.00 26.09
47.00 26.75
48.00 28.53
49.00 32.50
50.00 38.48
51.00 32.91
52.00 28.45
53.00 26.48
54.00 25.72
55.00 25.22
56.00 24.43
57.00 23.49
58.00 22.79
59.00 22.64
60.00 23.04
61.00 23.69
62.00 24.08
63.00 24.04
64.00 23.84
65.00 23.92
66.00 24.61
67.00 26.05
68.00 28.12
69.00 30.64
70.00 33.90
71.00 40.00
72.00 51.69
73.00 36.69
74.00 32.57
75.00 31.70
76.00 33.32
77.00 38.93
78.00 45.64
79.00 33.85
80.00 28.93
81.00 26.68
82.00 26.47
83.00 28.28
84.00 32.60
85.00 36.62
86.00 30.66
87.00 27.14
88.00 25.94
89.00 26.87
90.00 29.76
91.00 34.43
92.00 34.16
93.00 29.59
94.00 26.92
95.00 26.02
96.00 26.64
97.00 28.01
98.00 29.22
99.00 29.62
100.00 28.03
101.00 26.40
102.00 26.08
103.00 27.16
104.00 29.49
105.00 32.56
106.00 33.21
107.00 31.02
108.00 29.83
109.00 30.40
110.00 32.56
111.00 35.68
112.00 37.35
113.00 36.03
114.00 35.09
115.00 36.01
116.00 38.15
117.00 38.15
118.00 36.11
119.00 34.84
120.00 34.75
121.00 35.37
122.00 35.24
123.00 33.64
124.00 32.10
125.00 31.44
126.00 31.76
127.00 32.98
128.00 34.60
129.00 35.74
130.00 36.54
131.00 38.12
132.00 41.41
133.00 49.23
134.00 51.16
135.00 40.69
136.00 36.74
137.00 35.02
138.00 34.28
139.00 33.86
140.00 33.58
141.00 33.58
142.00 34.10
143.00 35.36
144.00 37.37
145.00 39.60
146.00 41.14
147.00 41.82
148.00 43.00
149.00 46.88
150.00 54.75
151.00 46.41
152.00 42.50
153.00 41.13
154.00 39.72
155.00 37.31
156.00 34.85
157.00 33.01
158.00 31.98
159.00 31.74
160.00 32.23
161.00 33.36
162.00 34.78
163.00 35.19
164.00 33.22
165.00 30.35
166.00 28.13
167.00 26.93
168.00 26.72
169.00 27.23
170.00 27.96
171.00 28.32
172.00 28.26
173.00 27.99
174.00 27.71
175.00 27.38
176.00 26.96
177.00 26.56
178.00 26.39
179.00 26.56
180.00 27.16
181.00 28.27
182.00 29.93
183.00 32.14
184.00 34.71
185.00 36.80
186.00 37.26
187.00 36.50
188.00 35.49
189.00 34.55
190.00 33.76
191.00 33.09
192.00 32.53
193.00 32.20
194.00 32.16
195.00 32.42
196.00 33.10
197.00 34.28
198.00 36.11
199.00 38.53
200.00 39.97
201.00 38.81
202.00 37.44
203.00 37.11
204.00 37.53
205.00 38.02
206.00 38.01
207.00 37.39
208.00 36.56
209.00 35.74
210.00 34.81
211.00 33.61
212.00 32.27
213.00 31.03
214.00 30.14
215.00 29.74
216.00 29.79
217.00 30.13
218.00 30.58
219.00 31.10
220.00 31.73
221.00 32.49
222.00 33.13
223.00 33.26
224.00 32.99
225.00 32.73
226.00 32.62
227.00 32.43
228.00 31.89
229.00 31.11
230.00 30.44
231.00 30.11
232.00 30.10
233.00 30.22
234.00 30.19
235.00 29.94
236.00 29.66
237.00 29.53
238.00 29.61
239.00 29.80
240.00 29.99
241.00 30.17
242.00 30.39
243.00 30.69
244.00 31.02
245.00 31.27
246.00 31.38
247.00 31.47
248.00 31.82
249.00 32.63
250.00 33.87
251.00 35.20
252.00 36.16
253.00 36.53
254.00 36.62
255.00 36.89
256.00 37.15
257.00 36.45
258.00 34.79
259.00 33.16
260.00 32.25
261.00 32.23
262.00 32.79
263.00 33.16
264.00 32.56
265.00 31.10
266.00 29.68
267.00 29.01
268.00 29.32
269.00 30.31
270.00 31.38
271.00 31.98
272.00 31.94
273.00 31.62
274.00 31.82
275.00 32.80
276.00 33.88
277.00 34.41
278.00 34.78
279.00 35.02
280.00 35.03
281.00 35.34
282.00 36.07
283.00 37.23
284.00 39.84
285.00 42.73
286.00 39.06
287.00 36.06
288.00 35.48
289.00 36.98
290.00 41.63
291.00 58.58
292.00 39.74
293.00 34.76
294.00 33.16
295.00 33.58
296.00 35.10
297.00 34.84
298.00 32.14
299.00 30.28
300.00 30.28
301.00 32.52
302.00 38.41
303.00 55.96
304.00 38.00
305.00 34.02
306.00 33.41
307.00 34.78
308.00 34.87
309.00 32.11
310.00 30.13
311.00 29.85
312.00 31.37
313.00 35.16
314.00 42.15
315.00 41.93
316.00 38.61
317.00 38.52
318.00 39.67
319.00 39.81
320.00 39.83
321.00 40.53
322.00 36.43
323.00 30.75
324.00 27.02
325.00 25.05
326.00 24.49
327.00 25.07
328.00 26.50
329.00 28.33
330.00 29.54
331.00 28.25
332.00 24.92
333.00 21.66
334.00 19.27
335.00 17.87
336.00 17.40
337.00 17.82
338.00 19.10
339.00 21.22
340.00 24.11
341.00 27.09
342.00 28.27
343.00 27.53
344.00 26.87
345.00 27.32
346.00 29.67
347.00 35.34
348.00 32.24
349.00 25.12
350.00 21.09
351.00 18.83
352.00 17.94
353.00 18.31
354.00 20.13
355.00 23.95
356.00 30.40
357.00 28.97
358.00 24.60
359.00 22.77
