NAME ATR4518R7_0947_X_CO_M45_03T
FREQUENCY 0947
GAIN 15.23 dBd
TILT	ELECTRICAL
COMMENT DATE 05.08.2013 -45 degrees polarized system Lever position 03T deg
HORIZONTAL 360
0.00 0.02
1.00 0.01
2.00 0.00
3.00 0.00
4.00 0.01
5.00 0.02
6.00 0.04
7.00 0.07
8.00 0.10
9.00 0.14
10.00 0.19
11.00 0.25
12.00 0.31
13.00 0.38
14.00 0.45
15.00 0.54
16.00 0.63
17.00 0.72
18.00 0.83
19.00 0.94
20.00 1.05
21.00 1.18
22.00 1.31
23.00 1.45
24.00 1.60
25.00 1.75
26.00 1.91
27.00 2.08
28.00 2.25
29.00 2.43
30.00 2.62
31.00 2.82
32.00 3.02
33.00 3.23
34.00 3.45
35.00 3.67
36.00 3.91
37.00 4.14
38.00 4.39
39.00 4.64
40.00 4.90
41.00 5.17
42.00 5.45
43.00 5.73
44.00 6.02
45.00 6.31
46.00 6.62
47.00 6.93
48.00 7.25
49.00 7.58
50.00 7.91
51.00 8.25
52.00 8.60
53.00 8.96
54.00 9.33
55.00 9.70
56.00 10.09
57.00 10.48
58.00 10.88
59.00 11.29
60.00 11.71
61.00 12.14
62.00 12.58
63.00 13.03
64.00 13.50
65.00 13.97
66.00 14.45
67.00 14.94
68.00 15.45
69.00 15.97
70.00 16.50
71.00 17.04
72.00 17.60
73.00 18.17
74.00 18.75
75.00 19.34
76.00 19.95
77.00 20.57
78.00 21.19
79.00 21.83
80.00 22.47
81.00 23.12
82.00 23.76
83.00 24.41
84.00 25.04
85.00 25.66
86.00 26.26
87.00 26.84
88.00 27.37
89.00 27.87
90.00 28.33
91.00 28.73
92.00 29.09
93.00 29.40
94.00 29.67
95.00 29.90
96.00 30.09
97.00 30.27
98.00 30.43
99.00 30.58
100.00 30.73
101.00 30.88
102.00 31.05
103.00 31.22
104.00 31.41
105.00 31.62
106.00 31.85
107.00 32.10
108.00 32.37
109.00 32.67
110.00 33.00
111.00 33.35
112.00 33.73
113.00 34.14
114.00 34.57
115.00 35.03
116.00 35.53
117.00 36.05
118.00 36.60
119.00 37.17
120.00 37.78
121.00 38.41
122.00 39.07
123.00 39.74
124.00 40.43
125.00 41.13
126.00 41.84
127.00 42.53
128.00 43.20
129.00 43.84
130.00 44.41
131.00 44.90
132.00 45.27
133.00 45.51
134.00 45.60
135.00 45.56
136.00 45.38
137.00 45.08
138.00 44.69
139.00 44.22
140.00 43.72
141.00 43.18
142.00 42.61
143.00 42.05
144.00 41.49
145.00 40.94
146.00 40.40
147.00 39.87
148.00 39.37
149.00 38.88
150.00 38.42
151.00 37.97
152.00 37.56
153.00 37.16
154.00 36.80
155.00 36.45
156.00 36.13
157.00 35.83
158.00 35.56
159.00 35.31
160.00 35.08
161.00 34.87
162.00 34.70
163.00 34.54
164.00 34.40
165.00 34.28
166.00 34.19
167.00 34.12
168.00 34.07
169.00 34.04
170.00 34.04
171.00 34.06
172.00 34.09
173.00 34.15
174.00 34.24
175.00 34.34
176.00 34.47
177.00 34.62
178.00 34.80
179.00 35.00
180.00 35.23
181.00 35.48
182.00 35.76
183.00 36.06
184.00 36.41
185.00 36.78
186.00 37.18
187.00 37.62
188.00 38.10
189.00 38.63
190.00 39.19
191.00 39.80
192.00 40.46
193.00 41.16
194.00 41.91
195.00 42.70
196.00 43.50
197.00 44.29
198.00 45.00
199.00 45.57
200.00 45.90
201.00 45.92
202.00 45.63
203.00 45.09
204.00 44.38
205.00 43.59
206.00 42.76
207.00 41.96
208.00 41.18
209.00 40.44
210.00 39.75
211.00 39.10
212.00 38.50
213.00 37.94
214.00 37.42
215.00 36.93
216.00 36.47
217.00 36.04
218.00 35.65
219.00 35.28
220.00 34.92
221.00 34.60
222.00 34.28
223.00 33.99
224.00 33.71
225.00 33.45
226.00 33.20
227.00 32.96
228.00 32.73
229.00 32.51
230.00 32.29
231.00 32.08
232.00 31.88
233.00 31.68
234.00 31.48
235.00 31.28
236.00 31.09
237.00 30.89
238.00 30.69
239.00 30.49
240.00 30.28
241.00 30.08
242.00 29.86
243.00 29.64
244.00 29.41
245.00 29.17
246.00 28.93
247.00 28.67
248.00 28.41
249.00 28.14
250.00 27.86
251.00 27.57
252.00 27.27
253.00 26.97
254.00 26.65
255.00 26.33
256.00 26.00
257.00 25.66
258.00 25.32
259.00 24.97
260.00 24.62
261.00 24.26
262.00 23.90
263.00 23.54
264.00 23.17
265.00 22.81
266.00 22.44
267.00 22.07
268.00 21.70
269.00 21.34
270.00 20.97
271.00 20.61
272.00 20.24
273.00 19.88
274.00 19.53
275.00 19.17
276.00 18.82
277.00 18.47
278.00 18.12
279.00 17.78
280.00 17.43
281.00 17.10
282.00 16.76
283.00 16.43
284.00 16.10
285.00 15.77
286.00 15.44
287.00 15.12
288.00 14.80
289.00 14.49
290.00 14.17
291.00 13.85
292.00 13.54
293.00 13.23
294.00 12.93
295.00 12.62
296.00 12.32
297.00 12.01
298.00 11.71
299.00 11.42
300.00 11.12
301.00 10.82
302.00 10.53
303.00 10.23
304.00 9.95
305.00 9.66
306.00 9.37
307.00 9.09
308.00 8.80
309.00 8.52
310.00 8.25
311.00 7.97
312.00 7.70
313.00 7.43
314.00 7.16
315.00 6.90
316.00 6.64
317.00 6.38
318.00 6.12
319.00 5.88
320.00 5.63
321.00 5.39
322.00 5.15
323.00 4.91
324.00 4.68
325.00 4.46
326.00 4.23
327.00 4.02
328.00 3.81
329.00 3.60
330.00 3.40
331.00 3.20
332.00 3.01
333.00 2.82
334.00 2.64
335.00 2.47
336.00 2.29
337.00 2.13
338.00 1.97
339.00 1.82
340.00 1.67
341.00 1.53
342.00 1.39
343.00 1.26
344.00 1.14
345.00 1.02
346.00 0.91
347.00 0.80
348.00 0.71
349.00 0.61
350.00 0.53
351.00 0.45
352.00 0.37
353.00 0.31
354.00 0.25
355.00 0.19
356.00 0.15
357.00 0.11
358.00 0.07
359.00 0.04
VERTICAL 360
0.00 1.95
1.00 0.88
2.00 0.24
3.00 0.00
4.00 0.18
5.00 0.78
6.00 1.82
7.00 3.33
8.00 5.38
9.00 8.11
10.00 11.73
11.00 16.55
12.00 21.69
13.00 22.55
14.00 21.61
15.00 22.29
16.00 25.22
17.00 32.19
18.00 33.79
19.00 26.08
20.00 22.76
21.00 21.51
22.00 21.70
23.00 23.21
24.00 26.25
25.00 31.58
26.00 37.54
27.00 31.96
28.00 28.15
29.00 26.64
30.00 26.86
31.00 28.49
32.00 29.50
33.00 26.52
34.00 22.62
35.00 19.59
36.00 17.40
37.00 15.93
38.00 15.13
39.00 14.93
40.00 15.22
41.00 15.85
42.00 16.67
43.00 17.74
44.00 19.30
45.00 21.77
46.00 25.77
47.00 32.61
48.00 42.81
49.00 36.27
50.00 33.25
51.00 31.83
52.00 30.82
53.00 30.40
54.00 31.03
55.00 32.82
56.00 35.38
57.00 37.60
58.00 38.84
59.00 40.23
60.00 42.82
61.00 41.14
62.00 37.34
63.00 36.10
64.00 37.00
65.00 39.40
66.00 44.80
67.00 44.65
68.00 36.21
69.00 32.52
70.00 31.40
71.00 32.46
72.00 36.47
73.00 38.55
74.00 32.01
75.00 28.48
76.00 27.17
77.00 27.51
78.00 29.83
79.00 33.82
80.00 31.62
81.00 27.88
82.00 25.83
83.00 25.40
84.00 27.35
85.00 29.24
86.00 29.39
87.00 28.01
88.00 26.20
89.00 25.27
90.00 25.73
91.00 26.87
92.00 27.93
93.00 28.37
94.00 27.50
95.00 26.47
96.00 26.57
97.00 28.15
98.00 31.76
99.00 38.41
100.00 41.47
101.00 36.12
102.00 33.20
103.00 32.49
104.00 34.07
105.00 38.37
106.00 42.66
107.00 37.55
108.00 33.77
109.00 32.51
110.00 33.59
111.00 37.50
112.00 48.61
113.00 43.13
114.00 36.35
115.00 34.35
116.00 35.24
117.00 39.01
118.00 46.78
119.00 48.94
120.00 43.23
121.00 41.48
122.00 42.78
123.00 44.59
124.00 41.69
125.00 38.96
126.00 37.45
127.00 36.02
128.00 34.16
129.00 32.27
130.00 30.91
131.00 30.32
132.00 30.41
133.00 30.96
134.00 31.75
135.00 32.87
136.00 34.82
137.00 38.46
138.00 45.28
139.00 60.96
140.00 51.64
141.00 47.40
142.00 44.92
143.00 43.22
144.00 42.70
145.00 44.56
146.00 50.61
147.00 49.29
148.00 44.35
149.00 43.10
150.00 43.40
151.00 43.71
152.00 43.44
153.00 43.11
154.00 43.36
155.00 42.96
156.00 41.36
157.00 40.71
158.00 41.04
159.00 39.92
160.00 37.89
161.00 36.83
162.00 36.68
163.00 36.43
164.00 35.08
165.00 33.02
166.00 31.22
167.00 29.88
168.00 28.77
169.00 27.76
170.00 26.94
171.00 26.49
172.00 26.65
173.00 27.41
174.00 28.72
175.00 30.59
176.00 33.06
177.00 36.06
178.00 37.88
179.00 36.42
180.00 33.87
181.00 32.04
182.00 31.09
183.00 30.89
184.00 31.32
185.00 32.26
186.00 33.91
187.00 36.79
188.00 41.72
189.00 47.16
190.00 44.12
191.00 41.60
192.00 40.72
193.00 40.42
194.00 40.31
195.00 40.53
196.00 41.39
197.00 43.19
198.00 45.77
199.00 47.20
200.00 45.41
201.00 42.88
202.00 41.14
203.00 40.36
204.00 40.37
205.00 40.65
206.00 40.52
207.00 39.81
208.00 39.15
209.00 39.10
210.00 39.45
211.00 39.27
212.00 38.34
213.00 37.28
214.00 36.28
215.00 35.11
216.00 33.79
217.00 32.65
218.00 31.96
219.00 31.69
220.00 31.52
221.00 31.13
222.00 30.51
223.00 30.03
224.00 30.16
225.00 31.12
226.00 32.67
227.00 34.17
228.00 35.00
229.00 35.20
230.00 35.56
231.00 36.96
232.00 39.63
233.00 42.44
234.00 42.81
235.00 40.69
236.00 38.97
237.00 38.87
238.00 40.00
239.00 41.16
240.00 41.51
241.00 39.92
242.00 37.51
243.00 36.26
244.00 36.38
245.00 37.51
246.00 38.60
247.00 37.49
248.00 35.38
249.00 34.25
250.00 34.17
251.00 35.07
252.00 37.29
253.00 39.04
254.00 36.76
255.00 34.63
256.00 34.07
257.00 34.62
258.00 35.86
259.00 36.47
260.00 35.69
261.00 35.67
262.00 37.86
263.00 43.35
264.00 47.90
265.00 39.60
266.00 35.95
267.00 35.90
268.00 39.69
269.00 46.72
270.00 39.73
271.00 34.54
272.00 31.79
273.00 31.52
274.00 34.55
275.00 44.40
276.00 40.29
277.00 34.78
278.00 32.70
279.00 32.23
280.00 33.95
281.00 39.87
282.00 47.58
283.00 38.16
284.00 35.32
285.00 35.17
286.00 37.69
287.00 44.73
288.00 42.41
289.00 37.14
290.00 35.23
291.00 34.82
292.00 35.66
293.00 38.19
294.00 43.05
295.00 52.10
296.00 45.66
297.00 39.68
298.00 37.37
299.00 37.18
300.00 38.30
301.00 40.30
302.00 42.86
303.00 43.72
304.00 41.32
305.00 38.56
306.00 36.95
307.00 36.81
308.00 38.04
309.00 40.25
310.00 43.17
311.00 49.38
312.00 48.30
313.00 35.84
314.00 29.57
315.00 25.67
316.00 23.19
317.00 21.62
318.00 20.54
319.00 19.63
320.00 18.70
321.00 17.87
322.00 17.36
323.00 17.32
324.00 17.82
325.00 18.88
326.00 20.46
327.00 22.48
328.00 24.81
329.00 27.44
330.00 30.39
331.00 33.63
332.00 37.09
333.00 40.03
334.00 40.27
335.00 38.15
336.00 35.91
337.00 34.11
338.00 31.80
339.00 28.65
340.00 25.55
341.00 23.03
342.00 21.18
343.00 20.03
344.00 19.61
345.00 20.09
346.00 21.72
347.00 25.09
348.00 31.38
349.00 32.31
350.00 26.45
351.00 23.70
352.00 23.20
353.00 24.64
354.00 23.95
355.00 17.69
356.00 12.35
357.00 8.46
358.00 5.61
359.00 3.49
