NAME ATR4518R7_2535_X_CO_P45_01T_yL
FREQUENCY 2535
GAIN 15.71 dBd
TILT	ELECTRICAL
COMMENT DATE 05.08.2013 +45 degrees polarized system Lever position 01T deg
HORIZONTAL 360
0.00 0.01
1.00 0.00
2.00 0.01
3.00 0.02
4.00 0.05
5.00 0.08
6.00 0.13
7.00 0.19
8.00 0.25
9.00 0.32
10.00 0.40
11.00 0.48
12.00 0.57
13.00 0.66
14.00 0.75
15.00 0.86
16.00 0.96
17.00 1.08
18.00 1.20
19.00 1.34
20.00 1.48
21.00 1.63
22.00 1.79
23.00 1.97
24.00 2.16
25.00 2.36
26.00 2.56
27.00 2.78
28.00 3.01
29.00 3.24
30.00 3.48
31.00 3.72
32.00 3.96
33.00 4.20
34.00 4.44
35.00 4.67
36.00 4.90
37.00 5.12
38.00 5.33
39.00 5.54
40.00 5.75
41.00 5.95
42.00 6.14
43.00 6.34
44.00 6.54
45.00 6.74
46.00 6.95
47.00 7.16
48.00 7.38
49.00 7.61
50.00 7.85
51.00 8.10
52.00 8.35
53.00 8.63
54.00 8.90
55.00 9.19
56.00 9.49
57.00 9.80
58.00 10.12
59.00 10.45
60.00 10.78
61.00 11.12
62.00 11.46
63.00 11.81
64.00 12.15
65.00 12.50
66.00 12.85
67.00 13.19
68.00 13.53
69.00 13.87
70.00 14.20
71.00 14.53
72.00 14.84
73.00 15.15
74.00 15.45
75.00 15.73
76.00 16.01
77.00 16.28
78.00 16.54
79.00 16.79
80.00 17.03
81.00 17.27
82.00 17.51
83.00 17.74
84.00 17.97
85.00 18.21
86.00 18.46
87.00 18.72
88.00 18.99
89.00 19.28
90.00 19.58
91.00 19.89
92.00 20.23
93.00 20.58
94.00 20.95
95.00 21.34
96.00 21.73
97.00 22.14
98.00 22.55
99.00 22.97
100.00 23.39
101.00 23.81
102.00 24.23
103.00 24.65
104.00 25.09
105.00 25.53
106.00 25.99
107.00 26.48
108.00 27.02
109.00 27.59
110.00 28.23
111.00 28.94
112.00 29.74
113.00 30.64
114.00 31.66
115.00 32.81
116.00 34.13
117.00 35.65
118.00 37.41
119.00 39.49
120.00 41.97
121.00 44.96
122.00 48.38
123.00 50.97
124.00 50.34
125.00 48.17
126.00 46.32
127.00 45.01
128.00 44.13
129.00 43.61
130.00 43.36
131.00 43.33
132.00 43.44
133.00 43.62
134.00 43.78
135.00 43.76
136.00 43.43
137.00 42.76
138.00 41.79
139.00 40.65
140.00 39.46
141.00 38.30
142.00 37.23
143.00 36.26
144.00 35.40
145.00 34.66
146.00 34.03
147.00 33.52
148.00 33.13
149.00 32.84
150.00 32.67
151.00 32.62
152.00 32.67
153.00 32.83
154.00 33.09
155.00 33.46
156.00 33.91
157.00 34.42
158.00 34.95
159.00 35.45
160.00 35.83
161.00 36.02
162.00 35.98
163.00 35.72
164.00 35.29
165.00 34.76
166.00 34.21
167.00 33.69
168.00 33.22
169.00 32.83
170.00 32.52
171.00 32.30
172.00 32.16
173.00 32.11
174.00 32.14
175.00 32.25
176.00 32.46
177.00 32.76
178.00 33.17
179.00 33.68
180.00 34.34
181.00 35.17
182.00 36.20
183.00 37.51
184.00 39.20
185.00 41.47
186.00 44.65
187.00 49.35
188.00 52.59
189.00 47.71
190.00 43.41
191.00 40.48
192.00 38.37
193.00 36.79
194.00 35.61
195.00 34.74
196.00 34.14
197.00 33.77
198.00 33.63
199.00 33.71
200.00 34.03
201.00 34.62
202.00 35.52
203.00 36.82
204.00 38.67
205.00 41.40
206.00 45.74
207.00 52.98
208.00 49.00
209.00 42.89
210.00 39.18
211.00 36.65
212.00 34.79
213.00 33.40
214.00 32.34
215.00 31.55
216.00 30.99
217.00 30.64
218.00 30.48
219.00 30.51
220.00 30.71
221.00 31.11
222.00 31.72
223.00 32.57
224.00 33.70
225.00 35.20
226.00 37.21
227.00 40.03
228.00 44.44
229.00 53.68
230.00 52.46
231.00 44.08
232.00 39.94
233.00 37.27
234.00 35.36
235.00 33.91
236.00 32.78
237.00 31.88
238.00 31.17
239.00 30.58
240.00 30.11
241.00 29.71
242.00 29.38
243.00 29.09
244.00 28.82
245.00 28.58
246.00 28.33
247.00 28.09
248.00 27.85
249.00 27.60
250.00 27.36
251.00 27.13
252.00 26.90
253.00 26.69
254.00 26.49
255.00 26.32
256.00 26.18
257.00 26.07
258.00 25.99
259.00 25.93
260.00 25.90
261.00 25.90
262.00 25.91
263.00 25.92
264.00 25.92
265.00 25.90
266.00 25.84
267.00 25.71
268.00 25.51
269.00 25.22
270.00 24.86
271.00 24.41
272.00 23.91
273.00 23.36
274.00 22.78
275.00 22.19
276.00 21.60
277.00 21.01
278.00 20.45
279.00 19.90
280.00 19.38
281.00 18.88
282.00 18.40
283.00 17.94
284.00 17.51
285.00 17.09
286.00 16.68
287.00 16.30
288.00 15.92
289.00 15.56
290.00 15.20
291.00 14.86
292.00 14.52
293.00 14.19
294.00 13.87
295.00 13.55
296.00 13.24
297.00 12.94
298.00 12.64
299.00 12.34
300.00 12.05
301.00 11.76
302.00 11.48
303.00 11.19
304.00 10.90
305.00 10.61
306.00 10.32
307.00 10.02
308.00 9.71
309.00 9.40
310.00 9.07
311.00 8.74
312.00 8.41
313.00 8.07
314.00 7.72
315.00 7.38
316.00 7.03
317.00 6.69
318.00 6.35
319.00 6.02
320.00 5.70
321.00 5.39
322.00 5.09
323.00 4.80
324.00 4.53
325.00 4.27
326.00 4.02
327.00 3.79
328.00 3.57
329.00 3.36
330.00 3.17
331.00 2.99
332.00 2.82
333.00 2.66
334.00 2.52
335.00 2.38
336.00 2.24
337.00 2.12
338.00 2.00
339.00 1.88
340.00 1.77
341.00 1.66
342.00 1.56
343.00 1.45
344.00 1.35
345.00 1.24
346.00 1.13
347.00 1.03
348.00 0.92
349.00 0.81
350.00 0.71
351.00 0.60
352.00 0.50
353.00 0.41
354.00 0.32
355.00 0.25
356.00 0.18
357.00 0.12
358.00 0.07
359.00 0.04
VERTICAL 360
0.00 0.80
1.00 0.00
2.00 0.48
3.00 2.38
4.00 6.20
5.00 13.70
6.00 22.26
7.00 13.69
8.00 12.00
9.00 13.55
10.00 16.41
11.00 15.24
12.00 13.14
13.00 13.30
14.00 15.98
15.00 20.21
16.00 18.68
17.00 15.85
18.00 15.55
19.00 18.33
20.00 28.18
21.00 25.12
22.00 18.17
23.00 16.40
24.00 17.03
25.00 19.27
26.00 22.46
27.00 25.64
28.00 25.87
29.00 22.37
30.00 19.39
31.00 17.93
32.00 17.88
33.00 19.15
34.00 21.89
35.00 26.30
36.00 27.24
37.00 23.01
38.00 20.37
39.00 19.58
40.00 20.61
41.00 24.11
42.00 33.15
43.00 32.09
44.00 25.58
45.00 23.62
46.00 23.49
47.00 24.49
48.00 26.74
49.00 30.53
50.00 32.77
51.00 30.26
52.00 28.69
53.00 28.85
54.00 30.12
55.00 31.98
56.00 33.81
57.00 34.67
58.00 35.90
59.00 40.51
60.00 38.76
61.00 31.91
62.00 28.32
63.00 26.22
64.00 24.84
65.00 23.95
66.00 23.52
67.00 23.43
68.00 23.53
69.00 23.63
70.00 23.75
71.00 23.97
72.00 24.32
73.00 24.68
74.00 24.96
75.00 25.24
76.00 25.71
77.00 26.56
78.00 27.75
79.00 29.07
80.00 30.23
81.00 31.25
82.00 32.78
83.00 35.08
84.00 35.54
85.00 32.50
86.00 28.82
87.00 26.15
88.00 25.23
89.00 26.47
90.00 30.40
91.00 37.63
92.00 43.71
93.00 41.46
94.00 35.31
95.00 32.19
96.00 32.05
97.00 33.98
98.00 35.80
99.00 34.70
100.00 32.90
101.00 32.42
102.00 33.60
103.00 35.88
104.00 37.34
105.00 36.41
106.00 34.67
107.00 33.88
108.00 34.39
109.00 35.45
110.00 35.63
111.00 34.72
112.00 33.81
113.00 33.61
114.00 34.07
115.00 34.49
116.00 34.05
117.00 32.93
118.00 31.96
119.00 31.77
120.00 32.40
121.00 33.48
122.00 34.54
123.00 35.28
124.00 35.66
125.00 35.89
126.00 36.42
127.00 37.54
128.00 39.17
129.00 40.45
130.00 39.95
131.00 38.38
132.00 37.67
133.00 38.10
134.00 38.91
135.00 40.32
136.00 44.38
137.00 52.40
138.00 45.43
139.00 40.34
140.00 37.24
141.00 35.73
142.00 35.63
143.00 36.19
144.00 36.48
145.00 36.59
146.00 37.57
147.00 40.51
148.00 45.82
149.00 45.96
150.00 42.19
151.00 40.32
152.00 40.46
153.00 40.81
154.00 37.83
155.00 34.72
156.00 32.87
157.00 31.95
158.00 32.05
159.00 33.40
160.00 35.61
161.00 37.46
162.00 38.84
163.00 39.88
164.00 39.75
165.00 39.92
166.00 39.83
167.00 37.35
168.00 35.51
169.00 35.78
170.00 37.74
171.00 39.56
172.00 39.87
173.00 40.28
174.00 41.66
175.00 42.44
176.00 40.63
177.00 38.25
178.00 36.45
179.00 35.65
180.00 36.16
181.00 37.57
182.00 37.60
183.00 37.06
184.00 38.13
185.00 40.51
186.00 40.78
187.00 38.03
188.00 35.20
189.00 33.42
190.00 32.87
191.00 33.25
192.00 33.69
193.00 33.40
194.00 32.90
195.00 32.99
196.00 33.41
197.00 33.28
198.00 33.03
199.00 33.84
200.00 35.91
201.00 38.51
202.00 39.90
203.00 38.84
204.00 37.85
205.00 38.94
206.00 41.15
207.00 39.93
208.00 37.25
209.00 35.75
210.00 36.29
211.00 40.58
212.00 49.59
213.00 40.67
214.00 38.44
215.00 39.98
216.00 44.16
217.00 53.36
218.00 44.87
219.00 39.25
220.00 38.58
221.00 42.66
222.00 51.08
223.00 42.25
224.00 38.16
225.00 35.04
226.00 32.59
227.00 31.50
228.00 31.72
229.00 32.38
230.00 32.32
231.00 32.08
232.00 32.82
233.00 35.01
234.00 38.25
235.00 39.46
236.00 37.80
237.00 36.79
238.00 37.46
239.00 40.36
240.00 47.18
241.00 61.91
242.00 48.96
243.00 46.07
244.00 46.13
245.00 50.74
246.00 51.11
247.00 41.10
248.00 36.34
249.00 33.94
250.00 33.19
251.00 33.87
252.00 35.62
253.00 37.23
254.00 37.03
255.00 36.07
256.00 36.02
257.00 37.26
258.00 39.33
259.00 40.52
260.00 39.75
261.00 38.45
262.00 37.39
263.00 36.08
264.00 34.20
265.00 32.69
266.00 32.69
267.00 35.22
268.00 43.55
269.00 43.54
270.00 33.40
271.00 28.82
272.00 26.48
273.00 25.80
274.00 26.33
275.00 27.75
276.00 30.22
277.00 34.28
278.00 38.89
279.00 37.64
280.00 32.46
281.00 28.18
282.00 25.45
283.00 23.91
284.00 23.09
285.00 22.61
286.00 22.17
287.00 21.50
288.00 20.55
289.00 19.42
290.00 18.36
291.00 17.54
292.00 16.98
293.00 16.58
294.00 16.26
295.00 16.03
296.00 15.98
297.00 16.21
298.00 16.85
299.00 18.11
300.00 20.33
301.00 24.30
302.00 32.83
303.00 34.51
304.00 26.24
305.00 22.98
306.00 21.60
307.00 21.53
308.00 22.67
309.00 24.80
310.00 26.15
311.00 24.23
312.00 21.70
313.00 20.52
314.00 21.25
315.00 24.53
316.00 29.62
317.00 25.83
318.00 22.17
319.00 20.89
320.00 21.39
321.00 24.37
322.00 35.87
323.00 27.77
324.00 20.30
325.00 17.25
326.00 16.18
327.00 16.37
328.00 17.53
329.00 19.48
330.00 21.53
331.00 22.05
332.00 20.51
333.00 17.68
334.00 15.03
335.00 13.62
336.00 13.89
337.00 16.36
338.00 23.26
339.00 32.04
340.00 19.92
341.00 17.38
342.00 18.54
343.00 24.41
344.00 33.06
345.00 21.63
346.00 18.98
347.00 19.90
348.00 24.25
349.00 27.35
350.00 22.62
351.00 20.87
352.00 22.22
353.00 27.19
354.00 41.13
355.00 29.23
356.00 18.79
357.00 11.45
358.00 6.31
359.00 2.86
