NAME ATR4518R7_0806_X_CO_M45_04T
FREQUENCY 0806
GAIN 14.28 dBd
TILT	ELECTRICAL
COMMENT DATE 05.08.2013 -45 degrees polarized system Lever position 04T deg
HORIZONTAL 360
0.00 0.02
1.00 0.03
2.00 0.06
3.00 0.08
4.00 0.12
5.00 0.16
6.00 0.21
7.00 0.26
8.00 0.31
9.00 0.38
10.00 0.45
11.00 0.52
12.00 0.60
13.00 0.69
14.00 0.79
15.00 0.88
16.00 0.99
17.00 1.10
18.00 1.22
19.00 1.34
20.00 1.47
21.00 1.61
22.00 1.75
23.00 1.90
24.00 2.05
25.00 2.21
26.00 2.37
27.00 2.55
28.00 2.72
29.00 2.91
30.00 3.10
31.00 3.29
32.00 3.49
33.00 3.70
34.00 3.91
35.00 4.13
36.00 4.36
37.00 4.59
38.00 4.82
39.00 5.07
40.00 5.31
41.00 5.57
42.00 5.82
43.00 6.09
44.00 6.36
45.00 6.63
46.00 6.91
47.00 7.19
48.00 7.48
49.00 7.77
50.00 8.07
51.00 8.37
52.00 8.67
53.00 8.98
54.00 9.30
55.00 9.61
56.00 9.93
57.00 10.26
58.00 10.58
59.00 10.91
60.00 11.24
61.00 11.57
62.00 11.91
63.00 12.24
64.00 12.58
65.00 12.92
66.00 13.26
67.00 13.60
68.00 13.93
69.00 14.28
70.00 14.62
71.00 14.95
72.00 15.29
73.00 15.63
74.00 15.97
75.00 16.30
76.00 16.63
77.00 16.97
78.00 17.29
79.00 17.62
80.00 17.95
81.00 18.27
82.00 18.59
83.00 18.90
84.00 19.21
85.00 19.52
86.00 19.83
87.00 20.13
88.00 20.42
89.00 20.71
90.00 20.99
91.00 21.27
92.00 21.55
93.00 21.81
94.00 22.07
95.00 22.33
96.00 22.58
97.00 22.82
98.00 23.06
99.00 23.29
100.00 23.52
101.00 23.74
102.00 23.96
103.00 24.18
104.00 24.39
105.00 24.60
106.00 24.81
107.00 25.02
108.00 25.23
109.00 25.44
110.00 25.66
111.00 25.88
112.00 26.10
113.00 26.33
114.00 26.57
115.00 26.81
116.00 27.07
117.00 27.33
118.00 27.61
119.00 27.89
120.00 28.19
121.00 28.51
122.00 28.84
123.00 29.18
124.00 29.55
125.00 29.93
126.00 30.33
127.00 30.74
128.00 31.19
129.00 31.64
130.00 32.13
131.00 32.63
132.00 33.16
133.00 33.71
134.00 34.27
135.00 34.86
136.00 35.46
137.00 36.07
138.00 36.68
139.00 37.28
140.00 37.87
141.00 38.41
142.00 38.90
143.00 39.31
144.00 39.63
145.00 39.85
146.00 39.96
147.00 39.98
148.00 39.90
149.00 39.76
150.00 39.57
151.00 39.35
152.00 39.12
153.00 38.88
154.00 38.65
155.00 38.43
156.00 38.23
157.00 38.04
158.00 37.89
159.00 37.75
160.00 37.63
161.00 37.55
162.00 37.48
163.00 37.44
164.00 37.42
165.00 37.41
166.00 37.44
167.00 37.48
168.00 37.53
169.00 37.60
170.00 37.69
171.00 37.80
172.00 37.91
173.00 38.03
174.00 38.16
175.00 38.30
176.00 38.45
177.00 38.59
178.00 38.74
179.00 38.89
180.00 39.03
181.00 39.16
182.00 39.30
183.00 39.42
184.00 39.52
185.00 39.62
186.00 39.70
187.00 39.77
188.00 39.81
189.00 39.85
190.00 39.87
191.00 39.87
192.00 39.85
193.00 39.83
194.00 39.79
195.00 39.73
196.00 39.66
197.00 39.58
198.00 39.49
199.00 39.39
200.00 39.28
201.00 39.16
202.00 39.03
203.00 38.90
204.00 38.76
205.00 38.62
206.00 38.47
207.00 38.32
208.00 38.16
209.00 38.00
210.00 37.84
211.00 37.68
212.00 37.52
213.00 37.35
214.00 37.19
215.00 37.02
216.00 36.84
217.00 36.67
218.00 36.49
219.00 36.30
220.00 36.11
221.00 35.92
222.00 35.70
223.00 35.48
224.00 35.25
225.00 34.99
226.00 34.73
227.00 34.44
228.00 34.14
229.00 33.81
230.00 33.46
231.00 33.09
232.00 32.70
233.00 32.30
234.00 31.87
235.00 31.43
236.00 30.98
237.00 30.51
238.00 30.04
239.00 29.56
240.00 29.08
241.00 28.59
242.00 28.10
243.00 27.62
244.00 27.13
245.00 26.65
246.00 26.17
247.00 25.70
248.00 25.24
249.00 24.78
250.00 24.33
251.00 23.88
252.00 23.45
253.00 23.02
254.00 22.60
255.00 22.19
256.00 21.78
257.00 21.39
258.00 21.00
259.00 20.62
260.00 20.24
261.00 19.88
262.00 19.52
263.00 19.17
264.00 18.83
265.00 18.49
266.00 18.16
267.00 17.83
268.00 17.51
269.00 17.20
270.00 16.88
271.00 16.58
272.00 16.28
273.00 15.98
274.00 15.69
275.00 15.40
276.00 15.11
277.00 14.83
278.00 14.55
279.00 14.27
280.00 13.99
281.00 13.71
282.00 13.44
283.00 13.17
284.00 12.89
285.00 12.62
286.00 12.35
287.00 12.09
288.00 11.82
289.00 11.55
290.00 11.28
291.00 11.01
292.00 10.75
293.00 10.48
294.00 10.22
295.00 9.95
296.00 9.69
297.00 9.42
298.00 9.16
299.00 8.90
300.00 8.64
301.00 8.38
302.00 8.12
303.00 7.87
304.00 7.62
305.00 7.36
306.00 7.11
307.00 6.86
308.00 6.62
309.00 6.38
310.00 6.14
311.00 5.90
312.00 5.67
313.00 5.44
314.00 5.21
315.00 4.99
316.00 4.77
317.00 4.55
318.00 4.34
319.00 4.13
320.00 3.93
321.00 3.73
322.00 3.54
323.00 3.35
324.00 3.16
325.00 2.98
326.00 2.81
327.00 2.64
328.00 2.47
329.00 2.31
330.00 2.16
331.00 2.01
332.00 1.86
333.00 1.72
334.00 1.59
335.00 1.46
336.00 1.33
337.00 1.21
338.00 1.10
339.00 0.99
340.00 0.89
341.00 0.79
342.00 0.70
343.00 0.61
344.00 0.53
345.00 0.46
346.00 0.39
347.00 0.33
348.00 0.27
349.00 0.22
350.00 0.17
351.00 0.13
352.00 0.09
353.00 0.06
354.00 0.04
355.00 0.02
356.00 0.01
357.00 0.00
358.00 0.00
359.00 0.01
VERTICAL 360
0.00 2.71
1.00 1.53
2.00 0.70
3.00 0.20
4.00 0.00
5.00 0.10
6.00 0.50
7.00 1.20
8.00 2.22
9.00 3.60
10.00 5.40
11.00 7.70
12.00 10.67
13.00 14.64
14.00 20.39
15.00 31.39
16.00 33.90
17.00 27.05
18.00 26.15
19.00 28.29
20.00 34.86
21.00 35.28
22.00 27.00
23.00 22.95
24.00 20.69
25.00 19.49
26.00 19.06
27.00 19.26
28.00 20.07
29.00 21.55
30.00 23.83
31.00 27.29
32.00 32.91
33.00 43.29
34.00 37.64
35.00 33.13
36.00 31.73
37.00 32.08
38.00 33.42
39.00 33.10
40.00 29.56
41.00 25.80
42.00 22.83
43.00 20.57
44.00 18.87
45.00 17.63
46.00 16.78
47.00 16.27
48.00 16.08
49.00 16.21
50.00 16.63
51.00 17.36
52.00 18.38
53.00 19.70
54.00 21.31
55.00 23.20
56.00 25.38
57.00 27.81
58.00 30.35
59.00 32.42
60.00 33.03
61.00 32.18
62.00 30.92
63.00 29.93
64.00 29.41
65.00 29.38
66.00 29.85
67.00 30.76
68.00 32.00
69.00 33.33
70.00 34.35
71.00 34.70
72.00 34.44
73.00 34.00
74.00 33.76
75.00 33.92
76.00 34.44
77.00 34.95
78.00 34.73
79.00 33.51
80.00 31.86
81.00 30.35
82.00 29.17
83.00 28.33
84.00 27.79
85.00 27.49
86.00 27.38
87.00 27.41
88.00 27.55
89.00 27.77
90.00 28.09
91.00 28.50
92.00 29.03
93.00 29.64
94.00 30.29
95.00 30.93
96.00 31.57
97.00 32.27
98.00 33.11
99.00 34.15
100.00 35.38
101.00 36.70
102.00 37.90
103.00 38.78
104.00 39.31
105.00 39.62
106.00 39.86
107.00 40.08
108.00 40.23
109.00 40.20
110.00 39.97
111.00 39.57
112.00 39.14
113.00 38.85
114.00 38.83
115.00 39.18
116.00 40.00
117.00 41.33
118.00 43.31
119.00 46.20
120.00 50.63
121.00 57.10
122.00 54.26
123.00 48.94
124.00 45.67
125.00 43.47
126.00 41.88
127.00 40.72
128.00 39.96
129.00 39.63
130.00 39.78
131.00 40.44
132.00 41.66
133.00 43.48
134.00 46.04
135.00 49.72
136.00 55.35
137.00 59.63
138.00 54.26
139.00 50.68
140.00 48.80
141.00 47.85
142.00 47.12
143.00 45.97
144.00 44.13
145.00 41.85
146.00 39.57
147.00 37.56
148.00 35.97
149.00 34.85
150.00 34.23
151.00 34.13
152.00 34.54
153.00 35.45
154.00 36.75
155.00 37.94
156.00 38.00
157.00 36.60
158.00 34.72
159.00 33.08
160.00 31.91
161.00 31.24
162.00 31.11
163.00 31.56
164.00 32.67
165.00 34.56
166.00 37.15
167.00 38.89
168.00 37.25
169.00 34.51
170.00 32.47
171.00 31.26
172.00 30.77
173.00 31.96
174.00 33.64
175.00 35.89
176.00 38.67
177.00 39.55
178.00 39.54
179.00 38.45
180.00 37.42
181.00 36.65
182.00 36.47
183.00 36.97
184.00 38.21
185.00 40.33
186.00 43.27
187.00 44.61
188.00 41.41
189.00 37.68
190.00 34.81
191.00 32.69
192.00 31.15
193.00 30.07
194.00 29.36
195.00 28.96
196.00 28.81
197.00 28.84
198.00 29.03
199.00 29.36
200.00 29.85
201.00 30.55
202.00 31.50
203.00 32.79
204.00 34.43
205.00 36.38
206.00 38.17
207.00 38.75
208.00 37.81
209.00 36.44
210.00 35.40
211.00 34.90
212.00 34.96
213.00 35.56
214.00 36.72
215.00 38.48
216.00 41.00
217.00 44.55
218.00 48.32
219.00 46.79
220.00 42.88
221.00 40.06
222.00 38.22
223.00 37.07
224.00 36.43
225.00 36.18
226.00 36.27
227.00 36.65
228.00 37.31
229.00 38.18
230.00 39.13
231.00 39.97
232.00 40.53
233.00 40.66
234.00 40.38
235.00 39.87
236.00 39.44
237.00 39.42
238.00 40.10
239.00 41.75
240.00 44.93
241.00 51.15
242.00 55.83
243.00 47.05
244.00 42.42
245.00 39.58
246.00 37.73
247.00 36.67
248.00 36.30
249.00 36.63
250.00 37.58
251.00 38.93
252.00 40.19
253.00 40.78
254.00 40.75
255.00 40.59
256.00 40.47
257.00 40.26
258.00 39.71
259.00 38.81
260.00 37.75
261.00 36.72
262.00 35.89
263.00 35.38
264.00 35.26
265.00 35.54
266.00 36.14
267.00 36.90
268.00 37.53
269.00 37.72
270.00 37.26
271.00 36.25
272.00 35.01
273.00 33.84
274.00 32.95
275.00 32.40
276.00 32.20
277.00 32.32
278.00 32.69
279.00 33.26
280.00 33.93
281.00 34.59
282.00 35.07
283.00 35.30
284.00 35.28
285.00 35.15
286.00 35.00
287.00 34.83
288.00 34.57
289.00 34.07
290.00 33.33
291.00 32.43
292.00 31.56
293.00 30.90
294.00 30.59
295.00 30.70
296.00 31.33
297.00 32.57
298.00 34.66
299.00 38.20
300.00 45.67
301.00 50.50
302.00 38.56
303.00 33.25
304.00 29.68
305.00 26.93
306.00 24.72
307.00 22.92
308.00 21.48
309.00 20.36
310.00 19.55
311.00 19.04
312.00 18.82
313.00 18.87
314.00 19.20
315.00 19.81
316.00 20.72
317.00 21.94
318.00 23.48
319.00 25.38
320.00 27.67
321.00 30.40
322.00 33.45
323.00 36.19
324.00 37.35
325.00 37.23
326.00 37.32
327.00 38.46
328.00 40.87
329.00 42.18
330.00 38.50
331.00 34.64
332.00 32.16
333.00 30.93
334.00 30.92
335.00 32.26
336.00 34.92
337.00 35.03
338.00 30.49
339.00 26.64
340.00 24.08
341.00 22.56
342.00 21.89
343.00 22.03
344.00 22.99
345.00 24.85
346.00 27.40
347.00 28.69
348.00 26.81
349.00 24.51
350.00 23.32
351.00 23.65
352.00 26.43
353.00 35.24
354.00 25.11
355.00 17.34
356.00 12.51
357.00 9.02
358.00 6.36
359.00 4.30
