NAME ATR4518R7_1880_X_CO_P45_03T_yL
FREQUENCY 1880
GAIN 14.88 dBd
TILT	ELECTRICAL
COMMENT DATE 05.08.2013 +45 degrees polarized system Lever position 03T deg
HORIZONTAL 360
0.00 0.12
1.00 0.09
2.00 0.06
3.00 0.04
4.00 0.02
5.00 0.01
6.00 0.00
7.00 0.00
8.00 0.00
9.00 0.02
10.00 0.04
11.00 0.07
12.00 0.10
13.00 0.15
14.00 0.20
15.00 0.26
16.00 0.33
17.00 0.41
18.00 0.50
19.00 0.60
20.00 0.70
21.00 0.82
22.00 0.94
23.00 1.07
24.00 1.20
25.00 1.34
26.00 1.49
27.00 1.65
28.00 1.81
29.00 1.98
30.00 2.15
31.00 2.32
32.00 2.51
33.00 2.69
34.00 2.88
35.00 3.08
36.00 3.28
37.00 3.48
38.00 3.69
39.00 3.90
40.00 4.12
41.00 4.33
42.00 4.56
43.00 4.78
44.00 5.01
45.00 5.24
46.00 5.47
47.00 5.71
48.00 5.95
49.00 6.19
50.00 6.43
51.00 6.68
52.00 6.92
53.00 7.17
54.00 7.42
55.00 7.68
56.00 7.94
57.00 8.19
58.00 8.45
59.00 8.72
60.00 8.98
61.00 9.25
62.00 9.52
63.00 9.79
64.00 10.07
65.00 10.35
66.00 10.63
67.00 10.91
68.00 11.20
69.00 11.48
70.00 11.78
71.00 12.06
72.00 12.36
73.00 12.65
74.00 12.95
75.00 13.24
76.00 13.54
77.00 13.84
78.00 14.13
79.00 14.43
80.00 14.73
81.00 15.03
82.00 15.33
83.00 15.63
84.00 15.94
85.00 16.25
86.00 16.56
87.00 16.89
88.00 17.22
89.00 17.57
90.00 17.92
91.00 18.30
92.00 18.68
93.00 19.09
94.00 19.52
95.00 19.98
96.00 20.45
97.00 20.96
98.00 21.48
99.00 22.04
100.00 22.63
101.00 23.24
102.00 23.87
103.00 24.53
104.00 25.20
105.00 25.89
106.00 26.57
107.00 27.23
108.00 27.88
109.00 28.47
110.00 29.02
111.00 29.51
112.00 29.93
113.00 30.29
114.00 30.59
115.00 30.85
116.00 31.09
117.00 31.31
118.00 31.52
119.00 31.73
120.00 31.95
121.00 32.16
122.00 32.38
123.00 32.57
124.00 32.74
125.00 32.87
126.00 32.94
127.00 32.96
128.00 32.93
129.00 32.83
130.00 32.69
131.00 32.51
132.00 32.32
133.00 32.11
134.00 31.91
135.00 31.72
136.00 31.56
137.00 31.41
138.00 31.30
139.00 31.21
140.00 31.15
141.00 31.13
142.00 31.14
143.00 31.18
144.00 31.25
145.00 31.37
146.00 31.51
147.00 31.70
148.00 31.93
149.00 32.20
150.00 32.52
151.00 32.87
152.00 33.27
153.00 33.71
154.00 34.17
155.00 34.65
156.00 35.12
157.00 35.56
158.00 35.93
159.00 36.21
160.00 36.37
161.00 36.43
162.00 36.38
163.00 36.27
164.00 36.14
165.00 36.01
166.00 35.93
167.00 35.93
168.00 36.01
169.00 36.22
170.00 36.56
171.00 37.06
172.00 37.77
173.00 38.71
174.00 39.95
175.00 41.61
176.00 43.90
177.00 47.27
178.00 53.18
179.00 75.73
180.00 53.21
181.00 47.31
182.00 43.97
183.00 41.73
184.00 40.12
185.00 38.95
186.00 38.12
187.00 37.56
188.00 37.24
189.00 37.17
190.00 37.31
191.00 37.70
192.00 38.35
193.00 39.31
194.00 40.66
195.00 42.48
196.00 44.86
197.00 47.43
198.00 47.99
199.00 45.47
200.00 42.47
201.00 39.98
202.00 38.00
203.00 36.42
204.00 35.15
205.00 34.14
206.00 33.33
207.00 32.71
208.00 32.26
209.00 31.95
210.00 31.79
211.00 31.78
212.00 31.91
213.00 32.19
214.00 32.64
215.00 33.27
216.00 34.11
217.00 35.23
218.00 36.68
219.00 38.63
220.00 41.37
221.00 45.58
222.00 52.96
223.00 50.91
224.00 44.17
225.00 40.18
226.00 37.46
227.00 35.42
228.00 33.82
229.00 32.53
230.00 31.48
231.00 30.60
232.00 29.87
233.00 29.27
234.00 28.77
235.00 28.37
236.00 28.05
237.00 27.80
238.00 27.62
239.00 27.50
240.00 27.43
241.00 27.40
242.00 27.41
243.00 27.45
244.00 27.50
245.00 27.56
246.00 27.62
247.00 27.65
248.00 27.64
249.00 27.59
250.00 27.48
251.00 27.32
252.00 27.09
253.00 26.80
254.00 26.47
255.00 26.10
256.00 25.71
257.00 25.30
258.00 24.89
259.00 24.47
260.00 24.07
261.00 23.67
262.00 23.28
263.00 22.90
264.00 22.54
265.00 22.18
266.00 21.84
267.00 21.50
268.00 21.17
269.00 20.84
270.00 20.52
271.00 20.20
272.00 19.88
273.00 19.57
274.00 19.25
275.00 18.93
276.00 18.61
277.00 18.29
278.00 17.97
279.00 17.66
280.00 17.34
281.00 17.03
282.00 16.71
283.00 16.40
284.00 16.10
285.00 15.80
286.00 15.50
287.00 15.20
288.00 14.91
289.00 14.63
290.00 14.34
291.00 14.06
292.00 13.79
293.00 13.52
294.00 13.25
295.00 12.99
296.00 12.72
297.00 12.47
298.00 12.21
299.00 11.96
300.00 11.71
301.00 11.46
302.00 11.21
303.00 10.96
304.00 10.72
305.00 10.48
306.00 10.23
307.00 9.99
308.00 9.74
309.00 9.49
310.00 9.24
311.00 8.99
312.00 8.74
313.00 8.48
314.00 8.22
315.00 7.96
316.00 7.69
317.00 7.42
318.00 7.15
319.00 6.87
320.00 6.59
321.00 6.32
322.00 6.04
323.00 5.76
324.00 5.48
325.00 5.21
326.00 4.93
327.00 4.66
328.00 4.40
329.00 4.14
330.00 3.89
331.00 3.65
332.00 3.41
333.00 3.18
334.00 2.96
335.00 2.75
336.00 2.55
337.00 2.36
338.00 2.17
339.00 2.00
340.00 1.83
341.00 1.68
342.00 1.53
343.00 1.40
344.00 1.27
345.00 1.15
346.00 1.04
347.00 0.94
348.00 0.84
349.00 0.75
350.00 0.67
351.00 0.60
352.00 0.53
353.00 0.46
354.00 0.40
355.00 0.34
356.00 0.29
357.00 0.24
358.00 0.20
359.00 0.16
VERTICAL 360
0.00 3.49
1.00 1.55
2.00 0.41
3.00 0.00
4.00 0.32
5.00 1.42
6.00 3.45
7.00 6.81
8.00 12.69
9.00 30.75
10.00 17.61
11.00 12.82
12.00 11.79
13.00 12.96
14.00 16.57
15.00 25.40
16.00 26.17
17.00 18.51
18.00 15.97
19.00 15.55
20.00 16.64
21.00 19.18
22.00 22.81
23.00 23.07
24.00 19.73
25.00 17.50
26.00 16.80
27.00 17.54
28.00 19.89
29.00 24.56
30.00 31.46
31.00 26.63
32.00 22.22
33.00 19.90
34.00 18.57
35.00 17.78
36.00 17.39
37.00 17.41
38.00 17.80
39.00 18.49
40.00 19.24
41.00 19.70
42.00 19.61
43.00 19.21
44.00 18.99
45.00 19.27
46.00 20.08
47.00 21.22
48.00 22.41
49.00 23.54
50.00 24.85
51.00 26.89
52.00 30.72
53.00 39.08
54.00 37.00
55.00 30.69
56.00 28.25
57.00 27.58
58.00 27.76
59.00 28.11
60.00 28.20
61.00 28.14
62.00 28.32
63.00 28.98
64.00 30.16
65.00 31.60
66.00 32.89
67.00 33.70
68.00 34.12
69.00 34.55
70.00 35.34
71.00 36.54
72.00 37.94
73.00 39.55
74.00 41.85
75.00 44.93
76.00 45.76
77.00 43.52
78.00 41.59
79.00 40.11
80.00 38.49
81.00 36.73
82.00 35.20
83.00 34.16
84.00 33.77
85.00 33.97
86.00 34.54
87.00 35.25
88.00 36.30
89.00 38.35
90.00 42.55
91.00 50.63
92.00 47.17
93.00 43.31
94.00 43.33
95.00 45.31
96.00 44.12
97.00 41.45
98.00 40.84
99.00 42.10
100.00 42.97
101.00 41.64
102.00 40.36
103.00 39.93
104.00 39.93
105.00 40.17
106.00 40.62
107.00 40.88
108.00 40.68
109.00 40.29
110.00 39.90
111.00 39.50
112.00 39.30
113.00 39.43
114.00 39.70
115.00 39.84
116.00 39.81
117.00 39.91
118.00 40.58
119.00 42.15
120.00 44.34
121.00 45.88
122.00 46.44
123.00 47.47
124.00 48.82
125.00 48.31
126.00 45.69
127.00 42.40
128.00 39.46
129.00 37.50
130.00 36.52
131.00 36.07
132.00 35.51
133.00 34.82
134.00 34.68
135.00 35.66
136.00 38.22
137.00 42.96
138.00 48.42
139.00 44.36
140.00 40.62
141.00 38.93
142.00 38.71
143.00 39.62
144.00 41.43
145.00 44.00
146.00 46.50
147.00 47.01
148.00 47.79
149.00 51.57
150.00 47.09
151.00 41.43
152.00 39.01
153.00 38.35
154.00 37.79
155.00 36.67
156.00 36.08
157.00 36.58
158.00 37.26
159.00 36.72
160.00 35.67
161.00 34.98
162.00 34.34
163.00 33.63
164.00 33.27
165.00 33.47
166.00 33.84
167.00 33.85
168.00 33.83
169.00 34.50
170.00 36.38
171.00 39.80
172.00 44.40
173.00 44.28
174.00 40.32
175.00 37.67
176.00 36.67
177.00 37.56
178.00 40.99
179.00 45.59
180.00 42.76
181.00 40.18
182.00 39.89
183.00 40.60
184.00 41.33
185.00 42.74
186.00 46.34
187.00 55.35
188.00 57.34
189.00 47.91
190.00 44.32
191.00 43.81
192.00 45.82
193.00 44.18
194.00 40.06
195.00 38.53
196.00 39.16
197.00 39.26
198.00 37.28
199.00 36.16
200.00 37.06
201.00 40.03
202.00 44.30
203.00 48.01
204.00 54.07
205.00 50.92
206.00 42.62
207.00 38.51
208.00 36.73
209.00 36.94
210.00 39.13
211.00 40.43
212.00 37.01
213.00 34.09
214.00 32.80
215.00 32.71
216.00 33.33
217.00 34.24
218.00 35.14
219.00 35.90
220.00 36.57
221.00 37.27
222.00 38.03
223.00 38.81
224.00 39.74
225.00 41.43
226.00 44.30
227.00 44.99
228.00 41.51
229.00 39.26
230.00 39.19
231.00 41.60
232.00 48.31
233.00 56.16
234.00 44.99
235.00 40.94
236.00 38.75
237.00 37.68
238.00 37.74
239.00 39.09
240.00 41.92
241.00 47.08
242.00 62.55
243.00 49.78
244.00 43.24
245.00 40.32
246.00 39.36
247.00 40.04
248.00 41.71
249.00 41.57
250.00 39.23
251.00 37.72
252.00 37.69
253.00 38.62
254.00 39.16
255.00 38.38
256.00 37.20
257.00 36.55
258.00 36.82
259.00 38.30
260.00 41.38
261.00 46.83
262.00 58.87
263.00 53.49
264.00 45.25
265.00 40.55
266.00 37.53
267.00 35.69
268.00 34.77
269.00 34.53
270.00 34.77
271.00 35.30
272.00 35.88
273.00 36.19
274.00 36.03
275.00 35.67
276.00 35.60
277.00 36.02
278.00 36.48
279.00 36.07
280.00 34.71
281.00 33.17
282.00 31.81
283.00 30.56
284.00 29.29
285.00 28.08
286.00 27.18
287.00 26.79
288.00 27.01
289.00 27.78
290.00 28.97
291.00 30.40
292.00 31.93
293.00 33.56
294.00 35.60
295.00 38.88
296.00 41.33
297.00 35.60
298.00 30.78
299.00 27.96
300.00 26.48
301.00 25.88
302.00 25.73
303.00 25.66
304.00 25.60
305.00 25.83
306.00 26.91
307.00 29.63
308.00 34.96
309.00 34.12
310.00 28.58
311.00 25.63
312.00 24.27
313.00 23.87
314.00 24.06
315.00 24.71
316.00 25.84
317.00 27.59
318.00 29.77
319.00 30.45
320.00 28.09
321.00 25.10
322.00 22.59
323.00 20.54
324.00 18.85
325.00 17.55
326.00 16.75
327.00 16.61
328.00 17.35
329.00 19.25
330.00 23.01
331.00 31.40
332.00 33.98
333.00 24.85
334.00 21.32
335.00 19.77
336.00 19.59
337.00 20.93
338.00 24.95
339.00 41.91
340.00 26.31
341.00 20.10
342.00 17.67
343.00 17.41
344.00 19.27
345.00 24.70
346.00 44.63
347.00 23.22
348.00 18.65
349.00 17.27
350.00 18.13
351.00 21.76
352.00 32.43
353.00 30.46
354.00 24.79
355.00 27.19
356.00 32.74
357.00 17.27
358.00 10.62
359.00 6.39
