NAME ATR4518R7_0880_X_CO_P45_04T
FREQUENCY 0880
GAIN 14.66 dBd
TILT	ELECTRICAL
COMMENT DATE 05.08.2013 +45 degrees polarized system Lever position 04T deg
HORIZONTAL 360
0.00 0.01
1.00 0.00
2.00 0.00
3.00 0.01
4.00 0.02
5.00 0.04
6.00 0.07
7.00 0.10
8.00 0.14
9.00 0.18
10.00 0.23
11.00 0.29
12.00 0.35
13.00 0.42
14.00 0.50
15.00 0.58
16.00 0.67
17.00 0.76
18.00 0.87
19.00 0.97
20.00 1.09
21.00 1.21
22.00 1.34
23.00 1.47
24.00 1.61
25.00 1.76
26.00 1.91
27.00 2.07
28.00 2.23
29.00 2.41
30.00 2.58
31.00 2.77
32.00 2.96
33.00 3.15
34.00 3.36
35.00 3.57
36.00 3.78
37.00 4.00
38.00 4.23
39.00 4.46
40.00 4.70
41.00 4.95
42.00 5.19
43.00 5.45
44.00 5.71
45.00 5.98
46.00 6.25
47.00 6.53
48.00 6.82
49.00 7.11
50.00 7.40
51.00 7.70
52.00 8.01
53.00 8.32
54.00 8.64
55.00 8.95
56.00 9.28
57.00 9.61
58.00 9.95
59.00 10.29
60.00 10.63
61.00 10.98
62.00 11.34
63.00 11.70
64.00 12.06
65.00 12.43
66.00 12.80
67.00 13.18
68.00 13.56
69.00 13.95
70.00 14.34
71.00 14.74
72.00 15.15
73.00 15.55
74.00 15.97
75.00 16.39
76.00 16.81
77.00 17.24
78.00 17.67
79.00 18.11
80.00 18.56
81.00 19.00
82.00 19.46
83.00 19.91
84.00 20.38
85.00 20.83
86.00 21.30
87.00 21.76
88.00 22.22
89.00 22.67
90.00 23.12
91.00 23.56
92.00 23.99
93.00 24.40
94.00 24.79
95.00 25.16
96.00 25.50
97.00 25.82
98.00 26.10
99.00 26.35
100.00 26.56
101.00 26.74
102.00 26.88
103.00 27.00
104.00 27.08
105.00 27.14
106.00 27.18
107.00 27.20
108.00 27.20
109.00 27.20
110.00 27.18
111.00 27.17
112.00 27.15
113.00 27.13
114.00 27.12
115.00 27.11
116.00 27.10
117.00 27.11
118.00 27.12
119.00 27.14
120.00 27.18
121.00 27.22
122.00 27.28
123.00 27.35
124.00 27.43
125.00 27.52
126.00 27.63
127.00 27.75
128.00 27.89
129.00 28.04
130.00 28.21
131.00 28.39
132.00 28.59
133.00 28.81
134.00 29.05
135.00 29.30
136.00 29.58
137.00 29.88
138.00 30.19
139.00 30.54
140.00 30.91
141.00 31.31
142.00 31.73
143.00 32.19
144.00 32.69
145.00 33.22
146.00 33.80
147.00 34.43
148.00 35.11
149.00 35.86
150.00 36.68
151.00 37.58
152.00 38.58
153.00 39.69
154.00 40.94
155.00 42.33
156.00 43.87
157.00 45.50
158.00 46.99
159.00 47.90
160.00 47.73
161.00 46.64
162.00 45.17
163.00 43.67
164.00 42.29
165.00 41.06
166.00 39.98
167.00 39.03
168.00 38.17
169.00 37.42
170.00 36.74
171.00 36.14
172.00 35.59
173.00 35.10
174.00 34.66
175.00 34.27
176.00 33.91
177.00 33.59
178.00 33.30
179.00 33.05
180.00 32.82
181.00 32.62
182.00 32.45
183.00 32.30
184.00 32.18
185.00 32.07
186.00 32.00
187.00 31.93
188.00 31.89
189.00 31.87
190.00 31.87
191.00 31.88
192.00 31.91
193.00 31.95
194.00 32.01
195.00 32.08
196.00 32.17
197.00 32.27
198.00 32.38
199.00 32.50
200.00 32.63
201.00 32.77
202.00 32.91
203.00 33.07
204.00 33.22
205.00 33.38
206.00 33.54
207.00 33.70
208.00 33.86
209.00 34.01
210.00 34.15
211.00 34.29
212.00 34.41
213.00 34.53
214.00 34.63
215.00 34.72
216.00 34.79
217.00 34.84
218.00 34.88
219.00 34.91
220.00 34.91
221.00 34.90
222.00 34.87
223.00 34.83
224.00 34.78
225.00 34.71
226.00 34.62
227.00 34.53
228.00 34.42
229.00 34.30
230.00 34.17
231.00 34.03
232.00 33.88
233.00 33.73
234.00 33.56
235.00 33.39
236.00 33.21
237.00 33.02
238.00 32.82
239.00 32.62
240.00 32.41
241.00 32.20
242.00 31.97
243.00 31.74
244.00 31.50
245.00 31.26
246.00 31.00
247.00 30.74
248.00 30.47
249.00 30.19
250.00 29.90
251.00 29.60
252.00 29.29
253.00 28.97
254.00 28.64
255.00 28.29
256.00 27.94
257.00 27.57
258.00 27.20
259.00 26.81
260.00 26.41
261.00 26.00
262.00 25.59
263.00 25.17
264.00 24.74
265.00 24.31
266.00 23.88
267.00 23.44
268.00 22.99
269.00 22.55
270.00 22.11
271.00 21.67
272.00 21.23
273.00 20.79
274.00 20.35
275.00 19.92
276.00 19.49
277.00 19.07
278.00 18.65
279.00 18.23
280.00 17.82
281.00 17.41
282.00 17.01
283.00 16.62
284.00 16.22
285.00 15.84
286.00 15.46
287.00 15.08
288.00 14.71
289.00 14.35
290.00 13.98
291.00 13.62
292.00 13.27
293.00 12.93
294.00 12.59
295.00 12.25
296.00 11.91
297.00 11.58
298.00 11.26
299.00 10.94
300.00 10.62
301.00 10.31
302.00 10.00
303.00 9.69
304.00 9.39
305.00 9.09
306.00 8.80
307.00 8.51
308.00 8.22
309.00 7.94
310.00 7.66
311.00 7.39
312.00 7.12
313.00 6.85
314.00 6.59
315.00 6.33
316.00 6.08
317.00 5.83
318.00 5.58
319.00 5.34
320.00 5.10
321.00 4.87
322.00 4.64
323.00 4.42
324.00 4.20
325.00 3.99
326.00 3.78
327.00 3.58
328.00 3.38
329.00 3.19
330.00 3.00
331.00 2.82
332.00 2.64
333.00 2.47
334.00 2.30
335.00 2.14
336.00 1.99
337.00 1.84
338.00 1.69
339.00 1.55
340.00 1.42
341.00 1.29
342.00 1.17
343.00 1.06
344.00 0.95
345.00 0.84
346.00 0.74
347.00 0.65
348.00 0.57
349.00 0.49
350.00 0.41
351.00 0.34
352.00 0.28
353.00 0.23
354.00 0.18
355.00 0.13
356.00 0.10
357.00 0.07
358.00 0.04
359.00 0.02
VERTICAL 360
0.00 2.51
1.00 1.33
2.00 0.54
3.00 0.09
4.00 0.00
5.00 0.28
6.00 0.92
7.00 1.97
8.00 3.45
9.00 5.42
10.00 8.00
11.00 11.41
12.00 16.07
13.00 22.90
14.00 28.51
15.00 25.10
16.00 23.79
17.00 24.87
18.00 27.86
19.00 30.29
20.00 27.20
21.00 23.66
22.00 21.42
23.00 20.28
24.00 20.12
25.00 20.94
26.00 22.86
27.00 26.11
28.00 30.72
29.00 33.67
30.00 31.82
31.00 29.96
32.00 29.25
33.00 29.92
34.00 32.92
35.00 39.21
36.00 30.90
37.00 24.45
38.00 20.63
39.00 18.23
40.00 16.76
41.00 15.96
42.00 15.60
43.00 15.56
44.00 15.76
45.00 16.22
46.00 16.99
47.00 18.12
48.00 19.60
49.00 21.36
50.00 23.31
51.00 25.39
52.00 27.69
53.00 30.42
54.00 34.05
55.00 39.40
56.00 43.55
57.00 39.07
58.00 35.36
59.00 33.13
60.00 32.09
61.00 32.09
62.00 32.92
63.00 34.47
64.00 37.37
65.00 42.89
66.00 40.05
67.00 34.45
68.00 31.89
69.00 31.26
70.00 31.99
71.00 33.58
72.00 35.03
73.00 35.04
74.00 34.02
75.00 33.10
76.00 32.55
77.00 32.04
78.00 30.97
79.00 29.27
80.00 27.67
81.00 26.85
82.00 27.03
83.00 28.11
84.00 29.53
85.00 29.89
86.00 28.83
87.00 27.21
88.00 25.91
89.00 25.39
90.00 25.72
91.00 26.56
92.00 27.40
93.00 27.94
94.00 28.14
95.00 28.15
96.00 28.24
97.00 28.65
98.00 29.40
99.00 30.26
100.00 30.88
101.00 30.97
102.00 30.70
103.00 30.52
104.00 30.85
105.00 31.78
106.00 33.18
107.00 34.27
108.00 34.05
109.00 32.98
110.00 32.21
111.00 32.19
112.00 33.08
113.00 35.00
114.00 37.75
115.00 39.21
116.00 37.97
117.00 36.74
118.00 36.40
119.00 36.69
120.00 37.63
121.00 39.59
122.00 42.19
123.00 43.31
124.00 43.12
125.00 43.05
126.00 41.85
127.00 40.02
128.00 39.20
129.00 39.72
130.00 41.22
131.00 42.83
132.00 43.47
133.00 43.48
134.00 44.33
135.00 47.09
136.00 47.89
137.00 42.89
138.00 39.23
139.00 37.16
140.00 36.04
141.00 35.54
142.00 35.52
143.00 35.87
144.00 36.44
145.00 37.05
146.00 37.70
147.00 38.55
148.00 39.82
149.00 41.47
150.00 42.73
151.00 42.83
152.00 41.93
153.00 40.22
154.00 38.26
155.00 36.88
156.00 36.43
157.00 36.82
158.00 37.73
159.00 38.87
160.00 40.08
161.00 40.81
162.00 40.42
163.00 39.75
164.00 39.84
165.00 40.95
166.00 42.90
167.00 45.05
168.00 44.21
169.00 40.39
170.00 37.26
171.00 35.45
172.00 34.65
173.00 34.39
174.00 34.19
175.00 33.65
176.00 32.85
177.00 32.28
178.00 32.06
179.00 32.30
180.00 32.92
181.00 33.72
182.00 34.54
183.00 35.42
184.00 36.62
185.00 38.37
186.00 40.19
187.00 40.46
188.00 39.08
189.00 37.61
190.00 36.46
191.00 35.44
192.00 34.41
193.00 33.47
194.00 32.81
195.00 32.59
196.00 32.84
197.00 33.55
198.00 34.74
199.00 36.52
200.00 39.10
201.00 42.75
202.00 46.11
203.00 43.54
204.00 39.63
205.00 37.21
206.00 36.13
207.00 36.13
208.00 37.07
209.00 38.97
210.00 42.18
211.00 47.86
212.00 57.61
213.00 49.98
214.00 46.19
215.00 45.57
216.00 47.17
217.00 50.55
218.00 52.80
219.00 50.92
220.00 48.20
221.00 44.99
222.00 41.34
223.00 38.10
224.00 35.76
225.00 34.38
226.00 33.76
227.00 33.53
228.00 33.17
229.00 32.25
230.00 30.95
231.00 29.88
232.00 29.61
233.00 30.42
234.00 32.42
235.00 35.50
236.00 39.11
237.00 42.03
238.00 42.30
239.00 40.42
240.00 39.07
241.00 39.21
242.00 41.22
243.00 46.29
244.00 55.10
245.00 47.18
246.00 43.85
247.00 42.23
248.00 39.82
249.00 37.72
250.00 37.20
251.00 38.51
252.00 41.35
253.00 43.30
254.00 41.58
255.00 39.51
256.00 39.24
257.00 42.07
258.00 51.73
259.00 43.63
260.00 38.56
261.00 37.23
262.00 37.61
263.00 38.66
264.00 40.33
265.00 41.01
266.00 37.91
267.00 35.26
268.00 34.47
269.00 34.92
270.00 35.58
271.00 36.36
272.00 37.44
273.00 36.32
274.00 33.40
275.00 31.55
276.00 31.04
277.00 31.37
278.00 31.99
279.00 32.68
280.00 33.07
281.00 32.73
282.00 32.09
283.00 31.84
284.00 32.07
285.00 32.38
286.00 32.31
287.00 31.78
288.00 31.28
289.00 31.37
290.00 32.37
291.00 34.26
292.00 36.80
293.00 39.38
294.00 40.98
295.00 41.71
296.00 43.90
297.00 52.08
298.00 49.30
299.00 41.47
300.00 38.49
301.00 37.33
302.00 36.88
303.00 36.67
304.00 36.86
305.00 38.14
306.00 41.34
307.00 41.57
308.00 35.37
309.00 30.92
310.00 27.99
311.00 25.92
312.00 24.25
313.00 22.71
314.00 21.16
315.00 19.70
316.00 18.52
317.00 17.74
318.00 17.39
319.00 17.47
320.00 17.88
321.00 18.48
322.00 19.10
323.00 19.71
324.00 20.47
325.00 21.64
326.00 23.44
327.00 26.12
328.00 29.87
329.00 34.36
330.00 36.60
331.00 35.61
332.00 34.05
333.00 32.63
334.00 31.96
335.00 32.43
336.00 33.42
337.00 32.62
338.00 29.86
339.00 27.14
340.00 24.96
341.00 23.23
342.00 21.96
343.00 21.26
344.00 21.37
345.00 22.59
346.00 25.41
347.00 30.74
348.00 32.75
349.00 27.16
350.00 24.06
351.00 22.97
352.00 23.59
353.00 25.36
354.00 23.07
355.00 17.24
356.00 12.50
357.00 8.93
358.00 6.20
359.00 4.10
