NAME ATR4518R7_2535_X_CO_M45_05T_yyR
FREQUENCY 2535
GAIN 15.65 dBd
TILT	ELECTRICAL
COMMENT DATE 05.08.2013 -45 degrees polarized system Lever position 05T deg
HORIZONTAL 360
0.00 0.00
1.00 0.01
2.00 0.03
3.00 0.06
4.00 0.10
5.00 0.15
6.00 0.21
7.00 0.28
8.00 0.36
9.00 0.45
10.00 0.55
11.00 0.66
12.00 0.78
13.00 0.90
14.00 1.03
15.00 1.17
16.00 1.32
17.00 1.47
18.00 1.62
19.00 1.78
20.00 1.95
21.00 2.12
22.00 2.30
23.00 2.48
24.00 2.67
25.00 2.87
26.00 3.07
27.00 3.29
28.00 3.51
29.00 3.74
30.00 3.98
31.00 4.23
32.00 4.50
33.00 4.77
34.00 5.06
35.00 5.35
36.00 5.66
37.00 5.97
38.00 6.30
39.00 6.64
40.00 6.99
41.00 7.34
42.00 7.71
43.00 8.09
44.00 8.47
45.00 8.87
46.00 9.28
47.00 9.69
48.00 10.12
49.00 10.56
50.00 11.01
51.00 11.48
52.00 11.96
53.00 12.45
54.00 12.96
55.00 13.48
56.00 14.01
57.00 14.56
58.00 15.12
59.00 15.68
60.00 16.26
61.00 16.83
62.00 17.40
63.00 17.96
64.00 18.51
65.00 19.04
66.00 19.56
67.00 20.05
68.00 20.53
69.00 21.00
70.00 21.46
71.00 21.91
72.00 22.38
73.00 22.86
74.00 23.37
75.00 23.91
76.00 24.51
77.00 25.16
78.00 25.87
79.00 26.67
80.00 27.55
81.00 28.52
82.00 29.57
83.00 30.69
84.00 31.82
85.00 32.87
86.00 33.68
87.00 34.12
88.00 34.10
89.00 33.72
90.00 33.15
91.00 32.53
92.00 31.95
93.00 31.47
94.00 31.11
95.00 30.87
96.00 30.77
97.00 30.78
98.00 30.93
99.00 31.21
100.00 31.61
101.00 32.13
102.00 32.77
103.00 33.52
104.00 34.34
105.00 35.18
106.00 35.97
107.00 36.61
108.00 36.98
109.00 37.04
110.00 36.84
111.00 36.48
112.00 36.07
113.00 35.70
114.00 35.41
115.00 35.24
116.00 35.21
117.00 35.33
118.00 35.61
119.00 36.06
120.00 36.70
121.00 37.56
122.00 38.67
123.00 40.10
124.00 41.92
125.00 44.29
126.00 47.40
127.00 51.10
128.00 52.39
129.00 49.45
130.00 46.41
131.00 44.16
132.00 42.54
133.00 41.39
134.00 40.59
135.00 40.08
136.00 39.81
137.00 39.75
138.00 39.85
139.00 40.08
140.00 40.34
141.00 40.52
142.00 40.50
143.00 40.13
144.00 39.43
145.00 38.49
146.00 37.43
147.00 36.37
148.00 35.38
149.00 34.50
150.00 33.74
151.00 33.11
152.00 32.61
153.00 32.24
154.00 32.01
155.00 31.91
156.00 31.94
157.00 32.12
158.00 32.44
159.00 32.92
160.00 33.56
161.00 34.39
162.00 35.41
163.00 36.64
164.00 38.03
165.00 39.50
166.00 40.75
167.00 41.32
168.00 40.95
169.00 39.97
170.00 38.83
171.00 37.78
172.00 36.94
173.00 36.31
174.00 35.90
175.00 35.71
176.00 35.72
177.00 35.93
178.00 36.34
179.00 36.96
180.00 37.79
181.00 38.82
182.00 40.02
183.00 41.32
184.00 42.52
185.00 43.30
186.00 43.41
187.00 42.94
188.00 42.23
189.00 41.56
190.00 41.07
191.00 40.83
192.00 40.89
193.00 41.28
194.00 42.05
195.00 43.26
196.00 45.02
197.00 47.34
198.00 49.46
199.00 48.91
200.00 46.02
201.00 43.13
202.00 40.80
203.00 38.97
204.00 37.52
205.00 36.40
206.00 35.53
207.00 34.88
208.00 34.42
209.00 34.13
210.00 33.98
211.00 33.95
212.00 34.02
213.00 34.15
214.00 34.28
215.00 34.37
216.00 34.35
217.00 34.18
218.00 33.83
219.00 33.34
220.00 32.76
221.00 32.14
222.00 31.53
223.00 30.95
224.00 30.45
225.00 30.01
226.00 29.66
227.00 29.39
228.00 29.21
229.00 29.10
230.00 29.07
231.00 29.10
232.00 29.20
233.00 29.34
234.00 29.51
235.00 29.72
236.00 29.93
237.00 30.14
238.00 30.33
239.00 30.50
240.00 30.64
241.00 30.75
242.00 30.85
243.00 30.93
244.00 31.00
245.00 31.07
246.00 31.15
247.00 31.23
248.00 31.32
249.00 31.41
250.00 31.48
251.00 31.52
252.00 31.53
253.00 31.50
254.00 31.41
255.00 31.27
256.00 31.10
257.00 30.90
258.00 30.68
259.00 30.46
260.00 30.26
261.00 30.07
262.00 29.91
263.00 29.78
264.00 29.67
265.00 29.57
266.00 29.48
267.00 29.39
268.00 29.27
269.00 29.10
270.00 28.88
271.00 28.58
272.00 28.20
273.00 27.76
274.00 27.24
275.00 26.67
276.00 26.07
277.00 25.43
278.00 24.79
279.00 24.15
280.00 23.51
281.00 22.88
282.00 22.26
283.00 21.66
284.00 21.07
285.00 20.49
286.00 19.92
287.00 19.36
288.00 18.81
289.00 18.27
290.00 17.74
291.00 17.21
292.00 16.69
293.00 16.18
294.00 15.67
295.00 15.17
296.00 14.67
297.00 14.19
298.00 13.70
299.00 13.23
300.00 12.76
301.00 12.30
302.00 11.84
303.00 11.40
304.00 10.96
305.00 10.53
306.00 10.11
307.00 9.69
308.00 9.29
309.00 8.89
310.00 8.50
311.00 8.11
312.00 7.73
313.00 7.37
314.00 7.00
315.00 6.65
316.00 6.31
317.00 5.97
318.00 5.65
319.00 5.33
320.00 5.02
321.00 4.73
322.00 4.44
323.00 4.17
324.00 3.90
325.00 3.65
326.00 3.41
327.00 3.18
328.00 2.96
329.00 2.76
330.00 2.56
331.00 2.38
332.00 2.21
333.00 2.05
334.00 1.90
335.00 1.76
336.00 1.63
337.00 1.50
338.00 1.39
339.00 1.28
340.00 1.18
341.00 1.08
342.00 0.99
343.00 0.90
344.00 0.81
345.00 0.73
346.00 0.66
347.00 0.58
348.00 0.51
349.00 0.44
350.00 0.37
351.00 0.30
352.00 0.25
353.00 0.19
354.00 0.14
355.00 0.10
356.00 0.06
357.00 0.03
358.00 0.01
359.00 0.00
VERTICAL 360
0.00 13.04
1.00 8.83
2.00 4.98
3.00 2.19
4.00 0.53
5.00 0.00
6.00 0.66
7.00 2.74
8.00 6.99
9.00 16.70
10.00 19.46
11.00 11.80
12.00 10.77
13.00 12.94
14.00 16.39
15.00 14.75
16.00 11.82
17.00 11.18
18.00 12.97
19.00 18.24
20.00 27.43
21.00 20.99
22.00 17.97
23.00 19.20
24.00 24.44
25.00 25.34
26.00 18.91
27.00 15.80
28.00 14.93
29.00 15.85
30.00 18.62
31.00 23.12
32.00 27.21
33.00 29.11
34.00 29.32
35.00 24.69
36.00 20.75
37.00 18.93
38.00 18.84
39.00 20.31
40.00 23.72
41.00 30.36
42.00 30.00
43.00 23.62
44.00 21.21
45.00 21.58
46.00 24.71
47.00 32.79
48.00 46.17
49.00 30.67
50.00 27.24
51.00 26.42
52.00 28.08
53.00 33.52
54.00 35.10
55.00 29.47
56.00 27.88
57.00 28.78
58.00 30.52
59.00 31.42
60.00 31.18
61.00 30.96
62.00 31.87
63.00 34.48
64.00 39.47
65.00 47.78
66.00 52.01
67.00 50.31
68.00 41.81
69.00 35.96
70.00 33.06
71.00 32.11
72.00 32.31
73.00 32.41
74.00 31.47
75.00 30.30
76.00 30.13
77.00 31.49
78.00 34.45
79.00 38.65
80.00 40.26
81.00 38.97
82.00 38.81
83.00 35.46
84.00 31.32
85.00 28.54
86.00 26.85
87.00 27.12
88.00 31.19
89.00 43.52
90.00 37.24
91.00 34.64
92.00 32.61
93.00 29.56
94.00 29.33
95.00 32.06
96.00 35.84
97.00 36.29
98.00 34.45
99.00 33.71
100.00 35.25
101.00 38.51
102.00 40.19
103.00 38.36
104.00 36.37
105.00 36.51
106.00 39.25
107.00 43.61
108.00 45.49
109.00 44.09
110.00 44.05
111.00 45.17
112.00 42.40
113.00 39.65
114.00 39.48
115.00 41.86
116.00 46.74
117.00 44.98
118.00 40.07
119.00 38.22
120.00 38.01
121.00 38.70
122.00 41.55
123.00 49.22
124.00 43.41
125.00 38.15
126.00 37.44
127.00 39.76
128.00 42.58
129.00 41.25
130.00 40.08
131.00 40.75
132.00 41.68
133.00 43.26
134.00 48.31
135.00 49.77
136.00 45.15
137.00 44.03
138.00 43.87
139.00 44.30
140.00 45.73
141.00 46.10
142.00 45.26
143.00 42.58
144.00 39.85
145.00 39.18
146.00 38.80
147.00 36.87
148.00 35.75
149.00 36.90
150.00 40.48
151.00 43.71
152.00 41.63
153.00 39.82
154.00 40.28
155.00 42.52
156.00 44.73
157.00 45.65
158.00 47.01
159.00 45.08
160.00 41.38
161.00 40.37
162.00 41.49
163.00 42.57
164.00 42.63
165.00 41.88
166.00 40.78
167.00 41.35
168.00 45.45
169.00 52.56
170.00 47.71
171.00 46.06
172.00 47.31
173.00 43.68
174.00 39.91
175.00 37.79
176.00 35.73
177.00 34.05
178.00 33.06
179.00 33.48
180.00 35.56
181.00 39.47
182.00 42.60
183.00 41.84
184.00 40.67
185.00 41.58
186.00 43.50
187.00 41.85
188.00 40.18
189.00 38.48
190.00 36.41
191.00 36.63
192.00 40.26
193.00 43.42
194.00 40.85
195.00 39.00
196.00 37.57
197.00 37.17
198.00 39.93
199.00 46.77
200.00 40.83
201.00 36.40
202.00 35.51
203.00 35.81
204.00 35.80
205.00 35.37
206.00 35.52
207.00 36.93
208.00 38.22
209.00 36.83
210.00 34.49
211.00 32.57
212.00 31.23
213.00 30.80
214.00 31.98
215.00 35.15
216.00 37.02
217.00 35.25
218.00 34.61
219.00 34.85
220.00 35.01
221.00 35.68
222.00 36.85
223.00 38.42
224.00 39.55
225.00 38.40
226.00 37.79
227.00 38.97
228.00 39.35
229.00 37.90
230.00 37.16
231.00 37.85
232.00 39.70
233.00 42.02
234.00 42.53
235.00 40.24
236.00 38.07
237.00 36.20
238.00 34.68
239.00 34.49
240.00 36.05
241.00 38.62
242.00 39.74
243.00 38.59
244.00 37.59
245.00 37.45
246.00 37.22
247.00 36.68
248.00 36.31
249.00 36.10
250.00 36.24
251.00 36.73
252.00 36.67
253.00 35.81
254.00 35.15
255.00 35.69
256.00 37.87
257.00 41.16
258.00 42.89
259.00 41.59
260.00 39.29
261.00 37.49
262.00 37.10
263.00 39.32
264.00 48.88
265.00 45.23
266.00 36.98
267.00 33.82
268.00 32.49
269.00 31.96
270.00 31.47
271.00 31.33
272.00 32.87
273.00 37.90
274.00 49.52
275.00 43.15
276.00 38.22
277.00 35.78
278.00 35.06
279.00 36.17
280.00 37.62
281.00 36.24
282.00 32.87
283.00 30.06
284.00 28.54
285.00 28.21
286.00 28.69
287.00 29.48
288.00 30.40
289.00 31.63
290.00 33.51
291.00 35.69
292.00 35.16
293.00 31.35
294.00 27.42
295.00 24.01
296.00 21.09
297.00 18.72
298.00 16.98
299.00 15.82
300.00 15.12
301.00 14.72
302.00 14.56
303.00 14.79
304.00 15.63
305.00 17.39
306.00 20.45
307.00 25.83
308.00 32.31
309.00 26.02
310.00 21.00
311.00 18.61
312.00 17.95
313.00 18.90
314.00 21.51
315.00 24.42
316.00 23.12
317.00 20.45
318.00 19.40
319.00 20.12
320.00 22.91
321.00 30.10
322.00 36.95
323.00 24.83
324.00 21.12
325.00 20.58
326.00 23.07
327.00 29.48
328.00 27.40
329.00 21.67
330.00 19.39
331.00 19.21
332.00 21.21
333.00 26.37
334.00 26.04
335.00 19.88
336.00 17.33
337.00 17.60
338.00 20.94
339.00 30.64
340.00 27.89
341.00 21.42
342.00 20.19
343.00 22.29
344.00 26.49
345.00 23.83
346.00 19.97
347.00 18.92
348.00 20.02
349.00 23.07
350.00 27.89
351.00 31.68
352.00 32.42
353.00 32.25
354.00 27.37
355.00 22.26
356.00 19.20
357.00 17.64
358.00 16.94
359.00 15.68
