NAME ATR4518R7_1950_X_CO_P45_08T_yyR
FREQUENCY 1950
GAIN 14.85 dBd
TILT	ELECTRICAL
COMMENT DATE 05.08.2013 +45 degrees polarized system Lever position 08T deg
HORIZONTAL 360
0.00 0.08
1.00 0.05
2.00 0.03
3.00 0.01
4.00 0.00
5.00 0.00
6.00 0.01
7.00 0.02
8.00 0.04
9.00 0.07
10.00 0.11
11.00 0.16
12.00 0.22
13.00 0.28
14.00 0.36
15.00 0.44
16.00 0.54
17.00 0.64
18.00 0.76
19.00 0.88
20.00 1.02
21.00 1.17
22.00 1.33
23.00 1.50
24.00 1.68
25.00 1.87
26.00 2.07
27.00 2.28
28.00 2.50
29.00 2.73
30.00 2.97
31.00 3.22
32.00 3.48
33.00 3.74
34.00 4.01
35.00 4.29
36.00 4.58
37.00 4.87
38.00 5.16
39.00 5.46
40.00 5.76
41.00 6.06
42.00 6.36
43.00 6.66
44.00 6.97
45.00 7.27
46.00 7.57
47.00 7.87
48.00 8.17
49.00 8.46
50.00 8.76
51.00 9.05
52.00 9.34
53.00 9.63
54.00 9.91
55.00 10.20
56.00 10.48
57.00 10.77
58.00 11.05
59.00 11.33
60.00 11.61
61.00 11.88
62.00 12.16
63.00 12.43
64.00 12.70
65.00 12.96
66.00 13.22
67.00 13.47
68.00 13.72
69.00 13.96
70.00 14.20
71.00 14.43
72.00 14.65
73.00 14.87
74.00 15.09
75.00 15.30
76.00 15.51
77.00 15.72
78.00 15.93
79.00 16.14
80.00 16.36
81.00 16.58
82.00 16.81
83.00 17.05
84.00 17.29
85.00 17.55
86.00 17.82
87.00 18.11
88.00 18.41
89.00 18.72
90.00 19.05
91.00 19.39
92.00 19.75
93.00 20.12
94.00 20.50
95.00 20.90
96.00 21.31
97.00 21.73
98.00 22.16
99.00 22.60
100.00 23.05
101.00 23.51
102.00 23.97
103.00 24.44
104.00 24.92
105.00 25.42
106.00 25.93
107.00 26.46
108.00 27.03
109.00 27.62
110.00 28.26
111.00 28.96
112.00 29.72
113.00 30.56
114.00 31.49
115.00 32.54
116.00 33.71
117.00 35.01
118.00 36.42
119.00 37.81
120.00 38.93
121.00 39.37
122.00 38.92
123.00 37.83
124.00 36.52
125.00 35.23
126.00 34.06
127.00 33.04
128.00 32.17
129.00 31.44
130.00 30.83
131.00 30.33
132.00 29.95
133.00 29.65
134.00 29.46
135.00 29.35
136.00 29.34
137.00 29.41
138.00 29.57
139.00 29.83
140.00 30.18
141.00 30.63
142.00 31.20
143.00 31.88
144.00 32.71
145.00 33.70
146.00 34.88
147.00 36.29
148.00 38.00
149.00 40.10
150.00 42.68
151.00 45.64
152.00 47.70
153.00 46.68
154.00 44.15
155.00 41.85
156.00 40.06
157.00 38.68
158.00 37.63
159.00 36.84
160.00 36.27
161.00 35.88
162.00 35.66
163.00 35.60
164.00 35.67
165.00 35.89
166.00 36.26
167.00 36.76
168.00 37.42
169.00 38.24
170.00 39.21
171.00 40.34
172.00 41.56
173.00 42.74
174.00 43.61
175.00 43.82
176.00 43.29
177.00 42.28
178.00 41.11
179.00 39.99
180.00 39.00
181.00 38.15
182.00 37.45
183.00 36.90
184.00 36.48
185.00 36.18
186.00 35.99
187.00 35.91
188.00 35.94
189.00 36.06
190.00 36.26
191.00 36.54
192.00 36.88
193.00 37.25
194.00 37.61
195.00 37.90
196.00 38.08
197.00 38.06
198.00 37.83
199.00 37.39
200.00 36.80
201.00 36.09
202.00 35.35
203.00 34.60
204.00 33.88
205.00 33.20
206.00 32.57
207.00 32.01
208.00 31.50
209.00 31.05
210.00 30.66
211.00 30.32
212.00 30.04
213.00 29.81
214.00 29.63
215.00 29.50
216.00 29.41
217.00 29.36
218.00 29.35
219.00 29.38
220.00 29.44
221.00 29.54
222.00 29.65
223.00 29.79
224.00 29.94
225.00 30.10
226.00 30.25
227.00 30.39
228.00 30.50
229.00 30.59
230.00 30.62
231.00 30.61
232.00 30.55
233.00 30.43
234.00 30.27
235.00 30.06
236.00 29.82
237.00 29.56
238.00 29.28
239.00 29.00
240.00 28.72
241.00 28.44
242.00 28.18
243.00 27.93
244.00 27.69
245.00 27.47
246.00 27.26
247.00 27.07
248.00 26.89
249.00 26.73
250.00 26.58
251.00 26.43
252.00 26.29
253.00 26.16
254.00 26.02
255.00 25.89
256.00 25.74
257.00 25.59
258.00 25.42
259.00 25.25
260.00 25.05
261.00 24.84
262.00 24.60
263.00 24.35
264.00 24.07
265.00 23.77
266.00 23.45
267.00 23.11
268.00 22.76
269.00 22.39
270.00 22.00
271.00 21.61
272.00 21.21
273.00 20.80
274.00 20.39
275.00 19.97
276.00 19.56
277.00 19.15
278.00 18.74
279.00 18.34
280.00 17.94
281.00 17.55
282.00 17.16
283.00 16.78
284.00 16.41
285.00 16.05
286.00 15.70
287.00 15.35
288.00 15.02
289.00 14.69
290.00 14.36
291.00 14.05
292.00 13.74
293.00 13.43
294.00 13.13
295.00 12.83
296.00 12.54
297.00 12.26
298.00 11.97
299.00 11.69
300.00 11.41
301.00 11.13
302.00 10.85
303.00 10.58
304.00 10.30
305.00 10.02
306.00 9.75
307.00 9.47
308.00 9.20
309.00 8.92
310.00 8.65
311.00 8.37
312.00 8.10
313.00 7.82
314.00 7.55
315.00 7.28
316.00 7.01
317.00 6.74
318.00 6.47
319.00 6.21
320.00 5.95
321.00 5.70
322.00 5.44
323.00 5.20
324.00 4.95
325.00 4.71
326.00 4.48
327.00 4.25
328.00 4.03
329.00 3.81
330.00 3.60
331.00 3.39
332.00 3.19
333.00 3.00
334.00 2.82
335.00 2.64
336.00 2.46
337.00 2.30
338.00 2.13
339.00 1.98
340.00 1.83
341.00 1.69
342.00 1.55
343.00 1.43
344.00 1.30
345.00 1.19
346.00 1.07
347.00 0.97
348.00 0.86
349.00 0.77
350.00 0.68
351.00 0.60
352.00 0.52
353.00 0.44
354.00 0.37
355.00 0.31
356.00 0.25
357.00 0.20
358.00 0.15
359.00 0.11
VERTICAL 360
0.00 23.51
1.00 18.61
2.00 13.56
3.00 9.14
4.00 5.63
5.00 3.04
6.00 1.29
7.00 0.29
8.00 0.00
9.00 0.39
10.00 1.53
11.00 3.61
12.00 7.04
13.00 13.04
14.00 25.31
15.00 19.07
16.00 14.75
17.00 14.53
18.00 17.19
19.00 25.45
20.00 30.39
21.00 19.22
22.00 16.10
23.00 15.63
24.00 17.21
25.00 21.31
26.00 28.35
27.00 24.90
28.00 19.96
29.00 18.00
30.00 17.92
31.00 19.57
32.00 23.51
33.00 31.88
34.00 31.15
35.00 24.58
36.00 22.07
37.00 21.27
38.00 21.38
39.00 22.19
40.00 24.01
41.00 27.77
42.00 34.35
43.00 33.24
44.00 28.74
45.00 27.31
46.00 27.53
47.00 28.28
48.00 28.87
49.00 29.74
50.00 31.81
51.00 34.80
52.00 35.51
53.00 33.95
54.00 33.04
55.00 32.75
56.00 32.64
57.00 32.75
58.00 32.72
59.00 31.80
60.00 30.14
61.00 28.70
62.00 28.00
63.00 28.17
64.00 29.07
65.00 30.34
66.00 31.51
67.00 32.32
68.00 32.98
69.00 33.66
70.00 34.22
71.00 34.22
72.00 33.60
73.00 32.83
74.00 32.33
75.00 32.31
76.00 32.66
77.00 33.00
78.00 32.77
79.00 31.66
80.00 30.03
81.00 28.52
82.00 27.39
83.00 26.67
84.00 26.33
85.00 26.41
86.00 27.04
87.00 28.33
88.00 30.16
89.00 31.93
90.00 33.31
91.00 34.44
92.00 33.80
93.00 31.38
94.00 29.59
95.00 29.04
96.00 29.42
97.00 30.38
98.00 31.81
99.00 33.55
100.00 35.00
101.00 36.01
102.00 37.25
103.00 38.90
104.00 40.76
105.00 43.51
106.00 47.97
107.00 51.70
108.00 52.83
109.00 54.27
110.00 52.27
111.00 51.24
112.00 53.27
113.00 52.57
114.00 49.08
115.00 47.82
116.00 48.18
117.00 48.77
118.00 48.72
119.00 47.87
120.00 45.95
121.00 43.48
122.00 41.14
123.00 39.07
124.00 37.23
125.00 35.65
126.00 34.49
127.00 33.98
128.00 34.40
129.00 35.97
130.00 38.94
131.00 43.99
132.00 56.77
133.00 50.71
134.00 43.40
135.00 41.38
136.00 42.32
137.00 45.26
138.00 46.28
139.00 44.62
140.00 44.35
141.00 45.63
142.00 47.03
143.00 46.83
144.00 45.69
145.00 45.03
146.00 45.14
147.00 46.03
148.00 48.28
149.00 51.66
150.00 51.28
151.00 47.69
152.00 42.82
153.00 38.39
154.00 35.65
155.00 34.47
156.00 34.27
157.00 34.61
158.00 35.83
159.00 38.74
160.00 41.23
161.00 38.45
162.00 36.46
163.00 37.20
164.00 41.03
165.00 47.69
166.00 43.95
167.00 39.44
168.00 37.68
169.00 37.16
170.00 36.57
171.00 35.84
172.00 36.18
173.00 38.69
174.00 43.97
175.00 47.74
176.00 45.44
177.00 43.83
178.00 42.51
179.00 42.60
180.00 45.61
181.00 48.97
182.00 46.22
183.00 46.71
184.00 51.01
185.00 44.38
186.00 39.96
187.00 38.93
188.00 39.41
189.00 39.84
190.00 40.91
191.00 43.59
192.00 41.83
193.00 37.42
194.00 35.30
195.00 34.73
196.00 34.80
197.00 35.35
198.00 36.53
199.00 37.21
200.00 36.31
201.00 35.51
202.00 35.83
203.00 37.18
204.00 39.80
205.00 46.81
206.00 49.69
207.00 39.11
208.00 35.46
209.00 34.34
210.00 34.58
211.00 35.28
212.00 35.56
213.00 35.07
214.00 34.23
215.00 33.57
216.00 33.29
217.00 33.29
218.00 33.35
219.00 33.32
220.00 33.37
221.00 33.86
222.00 35.08
223.00 37.01
224.00 39.11
225.00 40.72
226.00 42.53
227.00 45.04
228.00 44.87
229.00 41.76
230.00 39.74
231.00 39.20
232.00 39.46
233.00 39.39
234.00 38.41
235.00 37.19
236.00 36.27
237.00 35.87
238.00 36.16
239.00 37.16
240.00 38.76
241.00 40.78
242.00 43.24
243.00 46.44
244.00 50.55
245.00 47.17
246.00 41.09
247.00 37.77
248.00 36.41
249.00 36.32
250.00 36.77
251.00 37.02
252.00 36.70
253.00 36.12
254.00 35.70
255.00 35.65
256.00 36.00
257.00 36.84
258.00 38.16
259.00 39.40
260.00 39.45
261.00 37.88
262.00 35.65
263.00 33.87
264.00 32.99
265.00 33.07
266.00 34.01
267.00 35.52
268.00 37.14
269.00 38.38
270.00 38.40
271.00 36.81
272.00 35.16
273.00 34.70
274.00 35.69
275.00 37.89
276.00 40.40
277.00 41.45
278.00 40.43
279.00 38.42
280.00 36.10
281.00 33.82
282.00 31.94
283.00 30.64
284.00 29.86
285.00 29.35
286.00 28.75
287.00 27.96
288.00 27.23
289.00 26.87
290.00 27.08
291.00 28.01
292.00 29.92
293.00 32.98
294.00 36.26
295.00 36.55
296.00 34.11
297.00 31.23
298.00 28.59
299.00 26.52
300.00 25.13
301.00 24.42
302.00 24.38
303.00 24.83
304.00 25.52
305.00 26.22
306.00 27.02
307.00 28.37
308.00 31.24
309.00 38.30
310.00 38.30
311.00 29.54
312.00 25.42
313.00 23.19
314.00 22.13
315.00 22.12
316.00 23.30
317.00 25.82
318.00 27.71
319.00 24.74
320.00 21.06
321.00 18.79
322.00 17.84
323.00 18.19
324.00 19.93
325.00 22.10
326.00 20.62
327.00 17.02
328.00 14.51
329.00 13.22
330.00 12.93
331.00 13.49
332.00 14.89
333.00 17.18
334.00 20.27
335.00 22.95
336.00 23.37
337.00 23.29
338.00 25.18
339.00 32.15
340.00 36.89
341.00 25.68
342.00 22.18
343.00 21.45
344.00 22.96
345.00 27.65
346.00 37.65
347.00 28.61
348.00 23.72
349.00 22.41
350.00 23.73
351.00 28.13
352.00 29.04
353.00 22.77
354.00 19.39
355.00 18.15
356.00 18.52
357.00 20.38
358.00 23.58
359.00 26.03
