NAME ATR4518R7_2655_X_CO_P45_03T_yL
FREQUENCY 2655
GAIN 15.98 dBd
TILT	ELECTRICAL
COMMENT DATE 05.08.2013 +45 degrees polarized system Lever position 03T deg
HORIZONTAL 360
0.00 0.02
1.00 0.04
2.00 0.07
3.00 0.11
4.00 0.15
5.00 0.20
6.00 0.24
7.00 0.30
8.00 0.35
9.00 0.41
10.00 0.47
11.00 0.54
12.00 0.60
13.00 0.67
14.00 0.75
15.00 0.84
16.00 0.93
17.00 1.04
18.00 1.16
19.00 1.29
20.00 1.43
21.00 1.58
22.00 1.74
23.00 1.91
24.00 2.10
25.00 2.29
26.00 2.48
27.00 2.69
28.00 2.90
29.00 3.11
30.00 3.33
31.00 3.54
32.00 3.74
33.00 3.96
34.00 4.17
35.00 4.37
36.00 4.59
37.00 4.79
38.00 4.99
39.00 5.20
40.00 5.41
41.00 5.62
42.00 5.83
43.00 6.05
44.00 6.27
45.00 6.49
46.00 6.72
47.00 6.95
48.00 7.19
49.00 7.43
50.00 7.66
51.00 7.89
52.00 8.11
53.00 8.34
54.00 8.56
55.00 8.76
56.00 8.97
57.00 9.16
58.00 9.35
59.00 9.54
60.00 9.71
61.00 9.88
62.00 10.05
63.00 10.21
64.00 10.37
65.00 10.55
66.00 10.73
67.00 10.91
68.00 11.11
69.00 11.32
70.00 11.54
71.00 11.77
72.00 12.03
73.00 12.30
74.00 12.59
75.00 12.90
76.00 13.24
77.00 13.59
78.00 13.96
79.00 14.37
80.00 14.80
81.00 15.25
82.00 15.75
83.00 16.26
84.00 16.82
85.00 17.41
86.00 18.03
87.00 18.70
88.00 19.39
89.00 20.12
90.00 20.88
91.00 21.67
92.00 22.50
93.00 23.32
94.00 24.17
95.00 25.02
96.00 25.86
97.00 26.67
98.00 27.46
99.00 28.23
100.00 28.98
101.00 29.73
102.00 30.48
103.00 31.30
104.00 32.19
105.00 33.18
106.00 34.33
107.00 35.68
108.00 37.28
109.00 39.16
110.00 41.30
111.00 43.35
112.00 44.33
113.00 43.53
114.00 41.82
115.00 40.11
116.00 38.68
117.00 37.56
118.00 36.71
119.00 36.09
120.00 35.66
121.00 35.40
122.00 35.29
123.00 35.30
124.00 35.43
125.00 35.67
126.00 36.01
127.00 36.44
128.00 36.96
129.00 37.59
130.00 38.33
131.00 39.18
132.00 40.16
133.00 41.21
134.00 42.21
135.00 42.92
136.00 43.02
137.00 42.36
138.00 41.21
139.00 39.89
140.00 38.63
141.00 37.51
142.00 36.57
143.00 35.81
144.00 35.22
145.00 34.79
146.00 34.50
147.00 34.32
148.00 34.24
149.00 34.21
150.00 34.17
151.00 34.09
152.00 33.90
153.00 33.58
154.00 33.13
155.00 32.59
156.00 31.99
157.00 31.41
158.00 30.86
159.00 30.38
160.00 30.00
161.00 29.73
162.00 29.58
163.00 29.56
164.00 29.67
165.00 29.92
166.00 30.31
167.00 30.86
168.00 31.56
169.00 32.42
170.00 33.42
171.00 34.50
172.00 35.53
173.00 36.28
174.00 36.50
175.00 36.14
176.00 35.39
177.00 34.49
178.00 33.63
179.00 32.90
180.00 32.33
181.00 31.94
182.00 31.73
183.00 31.72
184.00 31.90
185.00 32.28
186.00 32.91
187.00 33.80
188.00 35.03
189.00 36.70
190.00 38.98
191.00 42.14
192.00 45.98
193.00 46.39
194.00 42.57
195.00 39.23
196.00 36.79
197.00 35.00
198.00 33.68
199.00 32.72
200.00 32.06
201.00 31.66
202.00 31.51
203.00 31.59
204.00 31.91
205.00 32.49
206.00 33.35
207.00 34.55
208.00 36.11
209.00 38.01
210.00 39.85
211.00 40.42
212.00 39.01
213.00 36.79
214.00 34.72
215.00 33.00
216.00 31.62
217.00 30.53
218.00 29.69
219.00 29.07
220.00 28.64
221.00 28.38
222.00 28.29
223.00 28.35
224.00 28.58
225.00 28.95
226.00 29.49
227.00 30.19
228.00 31.08
229.00 32.17
230.00 33.49
231.00 35.10
232.00 37.03
233.00 39.33
234.00 41.88
235.00 43.90
236.00 43.84
237.00 42.01
238.00 39.92
239.00 38.09
240.00 36.55
241.00 35.23
242.00 34.08
243.00 33.05
244.00 32.11
245.00 31.22
246.00 30.39
247.00 29.61
248.00 28.88
249.00 28.20
250.00 27.57
251.00 27.00
252.00 26.48
253.00 26.03
254.00 25.63
255.00 25.29
256.00 25.01
257.00 24.80
258.00 24.64
259.00 24.53
260.00 24.49
261.00 24.49
262.00 24.54
263.00 24.63
264.00 24.76
265.00 24.91
266.00 25.06
267.00 25.19
268.00 25.29
269.00 25.32
270.00 25.28
271.00 25.14
272.00 24.89
273.00 24.57
274.00 24.17
275.00 23.74
276.00 23.26
277.00 22.77
278.00 22.29
279.00 21.82
280.00 21.38
281.00 20.95
282.00 20.54
283.00 20.15
284.00 19.79
285.00 19.43
286.00 19.09
287.00 18.75
288.00 18.41
289.00 18.08
290.00 17.74
291.00 17.40
292.00 17.07
293.00 16.73
294.00 16.40
295.00 16.09
296.00 15.77
297.00 15.48
298.00 15.18
299.00 14.89
300.00 14.62
301.00 14.35
302.00 14.08
303.00 13.81
304.00 13.53
305.00 13.23
306.00 12.92
307.00 12.57
308.00 12.20
309.00 11.80
310.00 11.38
311.00 10.94
312.00 10.47
313.00 9.99
314.00 9.51
315.00 9.05
316.00 8.60
317.00 8.15
318.00 7.72
319.00 7.31
320.00 6.92
321.00 6.54
322.00 6.19
323.00 5.85
324.00 5.53
325.00 5.24
326.00 4.95
327.00 4.69
328.00 4.43
329.00 4.19
330.00 3.94
331.00 3.72
332.00 3.50
333.00 3.28
334.00 3.07
335.00 2.87
336.00 2.66
337.00 2.47
338.00 2.28
339.00 2.08
340.00 1.90
341.00 1.72
342.00 1.55
343.00 1.38
344.00 1.22
345.00 1.06
346.00 0.92
347.00 0.78
348.00 0.65
349.00 0.53
350.00 0.42
351.00 0.32
352.00 0.23
353.00 0.17
354.00 0.11
355.00 0.06
356.00 0.03
357.00 0.01
358.00 0.00
359.00 0.00
VERTICAL 360
0.00 6.70
1.00 3.09
2.00 0.88
3.00 0.00
4.00 0.46
5.00 2.51
6.00 6.91
7.00 16.78
8.00 15.49
9.00 10.44
10.00 10.42
11.00 14.16
12.00 23.85
13.00 20.53
14.00 16.83
15.00 18.03
16.00 25.64
17.00 24.49
18.00 16.98
19.00 15.47
20.00 18.14
21.00 30.00
22.00 21.87
23.00 16.25
24.00 15.00
25.00 16.20
26.00 19.82
27.00 27.42
28.00 41.97
29.00 32.46
30.00 33.47
31.00 29.56
32.00 23.43
33.00 20.25
34.00 19.48
35.00 21.15
36.00 26.17
37.00 33.72
38.00 27.41
39.00 24.35
40.00 23.77
41.00 25.41
42.00 32.03
43.00 35.26
44.00 24.98
45.00 21.82
46.00 21.17
47.00 21.82
48.00 23.11
49.00 24.85
50.00 26.88
51.00 27.62
52.00 26.53
53.00 25.91
54.00 26.53
55.00 28.15
56.00 30.00
57.00 30.47
58.00 29.86
59.00 29.27
60.00 28.08
61.00 26.69
62.00 25.70
63.00 24.79
64.00 23.63
65.00 22.58
66.00 22.06
67.00 22.12
68.00 22.42
69.00 22.53
70.00 22.38
71.00 22.30
72.00 22.64
73.00 23.42
74.00 24.20
75.00 24.54
76.00 24.58
77.00 25.00
78.00 26.25
79.00 28.10
80.00 29.54
81.00 30.02
82.00 30.52
83.00 32.30
84.00 33.90
85.00 31.17
86.00 28.45
87.00 27.19
88.00 26.92
89.00 27.70
90.00 30.16
91.00 32.84
92.00 30.56
93.00 28.72
94.00 29.48
95.00 32.29
96.00 36.02
97.00 41.25
98.00 46.47
99.00 43.42
100.00 45.54
101.00 44.39
102.00 40.01
103.00 39.33
104.00 40.50
105.00 40.26
106.00 37.44
107.00 35.00
108.00 33.97
109.00 33.98
110.00 34.16
111.00 33.47
112.00 32.22
113.00 31.57
114.00 31.98
115.00 33.23
116.00 34.49
117.00 35.19
118.00 36.58
119.00 40.06
120.00 43.53
121.00 43.22
122.00 43.22
123.00 41.05
124.00 38.26
125.00 35.43
126.00 32.36
127.00 30.69
128.00 31.11
129.00 33.53
130.00 37.32
131.00 41.57
132.00 44.16
133.00 43.53
134.00 44.86
135.00 44.27
136.00 41.07
137.00 40.47
138.00 40.75
139.00 39.38
140.00 37.68
141.00 36.78
142.00 36.59
143.00 36.40
144.00 36.62
145.00 39.03
146.00 45.13
147.00 41.51
148.00 35.98
149.00 33.51
150.00 33.04
151.00 33.63
152.00 34.37
153.00 35.94
154.00 38.64
155.00 39.80
156.00 40.27
157.00 38.21
158.00 35.42
159.00 35.98
160.00 38.31
161.00 35.74
162.00 34.57
163.00 37.00
164.00 40.53
165.00 43.21
166.00 51.94
167.00 41.35
168.00 38.71
169.00 40.69
170.00 41.48
171.00 40.59
172.00 42.60
173.00 44.08
174.00 40.15
175.00 35.97
176.00 33.61
177.00 33.25
178.00 34.46
179.00 36.09
180.00 35.84
181.00 34.13
182.00 33.62
183.00 34.95
184.00 36.83
185.00 37.23
186.00 37.12
187.00 37.17
188.00 37.05
189.00 37.50
190.00 39.85
191.00 42.62
192.00 39.04
193.00 36.48
194.00 36.30
195.00 36.62
196.00 35.95
197.00 35.46
198.00 36.39
199.00 39.82
200.00 46.48
201.00 38.27
202.00 32.96
203.00 30.80
204.00 30.88
205.00 33.09
206.00 37.81
207.00 46.44
208.00 47.60
209.00 40.59
210.00 37.90
211.00 38.29
212.00 40.85
213.00 43.34
214.00 48.26
215.00 49.12
216.00 40.19
217.00 37.71
218.00 36.51
219.00 33.72
220.00 31.77
221.00 31.99
222.00 33.96
223.00 35.00
224.00 34.36
225.00 34.73
226.00 36.04
227.00 36.24
228.00 35.64
229.00 35.72
230.00 36.80
231.00 38.35
232.00 39.09
233.00 39.57
234.00 42.53
235.00 52.86
236.00 44.36
237.00 38.86
238.00 36.36
239.00 34.65
240.00 33.58
241.00 33.58
242.00 34.74
243.00 36.50
244.00 37.63
245.00 37.18
246.00 35.80
247.00 34.94
248.00 35.23
249.00 36.41
250.00 38.02
251.00 40.23
252.00 42.84
253.00 44.80
254.00 47.60
255.00 50.40
256.00 50.18
257.00 53.98
258.00 62.95
259.00 55.82
260.00 50.75
261.00 48.47
262.00 53.82
263.00 46.23
264.00 39.64
265.00 38.25
266.00 39.36
267.00 37.22
268.00 33.91
269.00 32.54
270.00 32.52
271.00 32.95
272.00 33.89
273.00 35.59
274.00 36.81
275.00 37.32
276.00 39.02
277.00 41.77
278.00 41.10
279.00 38.60
280.00 37.18
281.00 36.95
282.00 37.36
283.00 36.63
284.00 34.58
285.00 33.32
286.00 33.73
287.00 35.98
288.00 40.38
289.00 48.79
290.00 45.36
291.00 36.91
292.00 31.65
293.00 27.77
294.00 24.54
295.00 21.73
296.00 19.37
297.00 17.48
298.00 16.01
299.00 14.88
300.00 13.94
301.00 13.13
302.00 12.53
303.00 12.28
304.00 12.46
305.00 13.20
306.00 14.73
307.00 17.68
308.00 23.99
309.00 36.52
310.00 22.41
311.00 18.44
312.00 17.15
313.00 17.52
314.00 19.73
315.00 25.50
316.00 38.20
317.00 24.18
318.00 20.86
319.00 21.09
320.00 23.99
321.00 25.32
322.00 20.85
323.00 17.69
324.00 16.63
325.00 17.75
326.00 22.29
327.00 33.08
328.00 20.92
329.00 16.30
330.00 14.73
331.00 15.01
332.00 16.76
333.00 19.53
334.00 21.72
335.00 21.19
336.00 18.85
337.00 15.97
338.00 13.69
339.00 12.87
340.00 14.05
341.00 18.35
342.00 31.55
343.00 21.90
344.00 17.64
345.00 18.10
346.00 23.75
347.00 27.60
348.00 18.40
349.00 15.71
350.00 16.28
351.00 19.89
352.00 23.97
353.00 19.93
354.00 17.61
355.00 18.15
356.00 21.02
357.00 23.62
358.00 18.61
359.00 11.88
