NAME ATR4518R7_0832_X_CO_P45_03T
FREQUENCY 0832
GAIN 14.47 dBd
TILT	ELECTRICAL
COMMENT DATE 05.08.2013 +45 degrees polarized system Lever position 03T deg
HORIZONTAL 360
0.00 0.00
1.00 0.00
2.00 0.01
3.00 0.03
4.00 0.04
5.00 0.07
6.00 0.10
7.00 0.14
8.00 0.18
9.00 0.23
10.00 0.28
11.00 0.34
12.00 0.40
13.00 0.47
14.00 0.55
15.00 0.63
16.00 0.72
17.00 0.81
18.00 0.91
19.00 1.01
20.00 1.12
21.00 1.23
22.00 1.35
23.00 1.48
24.00 1.61
25.00 1.75
26.00 1.89
27.00 2.04
28.00 2.19
29.00 2.35
30.00 2.52
31.00 2.69
32.00 2.86
33.00 3.04
34.00 3.23
35.00 3.42
36.00 3.62
37.00 3.82
38.00 4.03
39.00 4.24
40.00 4.46
41.00 4.68
42.00 4.91
43.00 5.14
44.00 5.38
45.00 5.62
46.00 5.87
47.00 6.13
48.00 6.38
49.00 6.65
50.00 6.91
51.00 7.18
52.00 7.46
53.00 7.74
54.00 8.03
55.00 8.32
56.00 8.61
57.00 8.91
58.00 9.21
59.00 9.52
60.00 9.82
61.00 10.14
62.00 10.45
63.00 10.77
64.00 11.10
65.00 11.42
66.00 11.75
67.00 12.08
68.00 12.42
69.00 12.75
70.00 13.09
71.00 13.43
72.00 13.77
73.00 14.12
74.00 14.47
75.00 14.82
76.00 15.17
77.00 15.52
78.00 15.88
79.00 16.23
80.00 16.59
81.00 16.95
82.00 17.31
83.00 17.67
84.00 18.03
85.00 18.39
86.00 18.76
87.00 19.13
88.00 19.50
89.00 19.86
90.00 20.24
91.00 20.61
92.00 20.98
93.00 21.36
94.00 21.74
95.00 22.12
96.00 22.50
97.00 22.88
98.00 23.26
99.00 23.64
100.00 24.02
101.00 24.40
102.00 24.79
103.00 25.16
104.00 25.54
105.00 25.91
106.00 26.28
107.00 26.64
108.00 26.99
109.00 27.34
110.00 27.67
111.00 28.00
112.00 28.31
113.00 28.61
114.00 28.89
115.00 29.15
116.00 29.40
117.00 29.64
118.00 29.86
119.00 30.06
120.00 30.25
121.00 30.42
122.00 30.58
123.00 30.73
124.00 30.86
125.00 30.99
126.00 31.11
127.00 31.23
128.00 31.34
129.00 31.45
130.00 31.56
131.00 31.67
132.00 31.78
133.00 31.89
134.00 32.01
135.00 32.13
136.00 32.27
137.00 32.40
138.00 32.54
139.00 32.69
140.00 32.85
141.00 33.01
142.00 33.19
143.00 33.37
144.00 33.56
145.00 33.75
146.00 33.96
147.00 34.17
148.00 34.39
149.00 34.62
150.00 34.85
151.00 35.10
152.00 35.34
153.00 35.60
154.00 35.86
155.00 36.13
156.00 36.40
157.00 36.68
158.00 36.97
159.00 37.26
160.00 37.55
161.00 37.86
162.00 38.17
163.00 38.48
164.00 38.80
165.00 39.13
166.00 39.46
167.00 39.79
168.00 40.13
169.00 40.48
170.00 40.81
171.00 41.15
172.00 41.49
173.00 41.80
174.00 42.10
175.00 42.37
176.00 42.60
177.00 42.79
178.00 42.91
179.00 42.99
180.00 42.98
181.00 42.89
182.00 42.74
183.00 42.53
184.00 42.25
185.00 41.93
186.00 41.58
187.00 41.20
188.00 40.81
189.00 40.40
190.00 40.00
191.00 39.59
192.00 39.20
193.00 38.82
194.00 38.46
195.00 38.11
196.00 37.77
197.00 37.46
198.00 37.15
199.00 36.87
200.00 36.60
201.00 36.36
202.00 36.12
203.00 35.91
204.00 35.71
205.00 35.53
206.00 35.36
207.00 35.21
208.00 35.07
209.00 34.95
210.00 34.84
211.00 34.74
212.00 34.66
213.00 34.59
214.00 34.53
215.00 34.48
216.00 34.43
217.00 34.40
218.00 34.37
219.00 34.35
220.00 34.34
221.00 34.32
222.00 34.31
223.00 34.29
224.00 34.28
225.00 34.26
226.00 34.23
227.00 34.19
228.00 34.14
229.00 34.07
230.00 33.98
231.00 33.86
232.00 33.72
233.00 33.55
234.00 33.35
235.00 33.12
236.00 32.86
237.00 32.57
238.00 32.25
239.00 31.90
240.00 31.52
241.00 31.12
242.00 30.70
243.00 30.27
244.00 29.82
245.00 29.37
246.00 28.90
247.00 28.43
248.00 27.96
249.00 27.49
250.00 27.01
251.00 26.55
252.00 26.08
253.00 25.62
254.00 25.17
255.00 24.72
256.00 24.27
257.00 23.84
258.00 23.41
259.00 22.99
260.00 22.58
261.00 22.18
262.00 21.78
263.00 21.39
264.00 21.01
265.00 20.64
266.00 20.27
267.00 19.91
268.00 19.56
269.00 19.21
270.00 18.87
271.00 18.54
272.00 18.21
273.00 17.89
274.00 17.57
275.00 17.26
276.00 16.95
277.00 16.64
278.00 16.34
279.00 16.04
280.00 15.74
281.00 15.45
282.00 15.15
283.00 14.86
284.00 14.57
285.00 14.28
286.00 13.99
287.00 13.70
288.00 13.41
289.00 13.12
290.00 12.84
291.00 12.55
292.00 12.26
293.00 11.97
294.00 11.68
295.00 11.39
296.00 11.10
297.00 10.81
298.00 10.53
299.00 10.24
300.00 9.95
301.00 9.66
302.00 9.38
303.00 9.09
304.00 8.81
305.00 8.53
306.00 8.25
307.00 7.97
308.00 7.70
309.00 7.42
310.00 7.15
311.00 6.89
312.00 6.62
313.00 6.37
314.00 6.11
315.00 5.86
316.00 5.61
317.00 5.37
318.00 5.13
319.00 4.89
320.00 4.66
321.00 4.44
322.00 4.22
323.00 4.00
324.00 3.79
325.00 3.59
326.00 3.39
327.00 3.19
328.00 3.01
329.00 2.82
330.00 2.64
331.00 2.47
332.00 2.31
333.00 2.15
334.00 1.99
335.00 1.84
336.00 1.70
337.00 1.56
338.00 1.43
339.00 1.30
340.00 1.18
341.00 1.07
342.00 0.96
343.00 0.86
344.00 0.76
345.00 0.67
346.00 0.58
347.00 0.50
348.00 0.43
349.00 0.36
350.00 0.30
351.00 0.25
352.00 0.20
353.00 0.15
354.00 0.11
355.00 0.08
356.00 0.05
357.00 0.03
358.00 0.02
359.00 0.01
VERTICAL 360
0.00 1.60
1.00 0.71
2.00 0.18
3.00 0.00
4.00 0.17
5.00 0.68
6.00 1.54
7.00 2.80
8.00 4.52
9.00 6.79
10.00 9.82
11.00 14.05
12.00 20.74
13.00 33.82
14.00 24.70
15.00 20.96
16.00 20.28
17.00 21.57
18.00 25.17
19.00 33.20
20.00 30.04
21.00 23.47
22.00 20.23
23.00 18.57
24.00 17.93
25.00 18.10
26.00 19.02
27.00 20.73
28.00 23.28
29.00 26.40
30.00 28.24
31.00 27.29
32.00 25.91
33.00 25.40
34.00 26.01
35.00 28.00
36.00 32.21
37.00 37.73
38.00 30.54
39.00 25.00
40.00 21.50
41.00 19.14
42.00 17.56
43.00 16.60
44.00 16.15
45.00 16.16
46.00 16.57
47.00 17.28
48.00 18.20
49.00 19.22
50.00 20.26
51.00 21.36
52.00 22.65
53.00 24.30
54.00 26.54
55.00 29.52
56.00 33.06
57.00 35.59
58.00 35.71
59.00 35.36
60.00 35.66
61.00 36.27
62.00 36.29
63.00 35.32
64.00 33.94
65.00 32.84
66.00 32.40
67.00 32.80
68.00 33.89
69.00 34.87
70.00 34.52
71.00 33.24
72.00 32.08
73.00 31.32
74.00 30.87
75.00 30.71
76.00 30.86
77.00 31.14
78.00 30.94
79.00 29.93
80.00 28.66
81.00 27.71
82.00 27.28
83.00 27.36
84.00 27.82
85.00 28.51
86.00 29.17
87.00 29.47
88.00 29.28
89.00 28.87
90.00 28.56
91.00 28.38
92.00 28.20
93.00 27.95
94.00 27.77
95.00 27.90
96.00 28.44
97.00 29.32
98.00 30.32
99.00 31.08
100.00 31.36
101.00 31.21
102.00 30.93
103.00 30.83
104.00 31.14
105.00 31.90
106.00 33.03
107.00 34.33
108.00 35.44
109.00 36.02
110.00 35.90
111.00 35.29
112.00 34.68
113.00 34.36
114.00 34.43
115.00 34.84
116.00 35.51
117.00 36.41
118.00 37.43
119.00 38.29
120.00 38.74
121.00 39.00
122.00 39.64
123.00 41.23
124.00 44.44
125.00 50.43
126.00 49.94
127.00 43.36
128.00 39.34
129.00 36.68
130.00 34.75
131.00 33.25
132.00 31.99
133.00 30.92
134.00 30.04
135.00 29.42
136.00 29.16
137.00 29.35
138.00 30.11
139.00 31.58
140.00 33.96
141.00 37.44
142.00 40.54
143.00 38.86
144.00 35.72
145.00 33.50
146.00 32.12
147.00 31.34
148.00 31.01
149.00 31.06
150.00 31.43
151.00 32.07
152.00 32.94
153.00 33.97
154.00 35.17
155.00 36.60
156.00 38.48
157.00 41.08
158.00 44.83
159.00 50.36
160.00 55.46
161.00 52.41
162.00 49.76
163.00 48.83
164.00 49.37
165.00 51.97
166.00 60.80
167.00 56.77
168.00 46.97
169.00 41.98
170.00 38.79
171.00 36.71
172.00 35.46
173.00 34.92
174.00 35.84
175.00 37.85
176.00 40.21
177.00 42.98
178.00 43.92
179.00 45.62
180.00 47.71
181.00 47.56
182.00 46.19
183.00 45.59
184.00 47.11
185.00 52.63
186.00 55.22
187.00 45.79
188.00 41.23
189.00 38.60
190.00 36.93
191.00 35.73
192.00 34.81
193.00 34.12
194.00 33.74
195.00 33.73
196.00 34.14
197.00 34.98
198.00 36.27
199.00 37.96
200.00 39.86
201.00 41.53
202.00 42.31
203.00 41.89
204.00 40.73
205.00 39.67
206.00 39.38
207.00 40.29
208.00 43.01
209.00 49.01
210.00 51.41
211.00 44.39
212.00 40.91
213.00 39.17
214.00 38.18
215.00 37.43
216.00 36.68
217.00 35.91
218.00 35.15
219.00 34.38
220.00 33.58
221.00 32.78
222.00 32.11
223.00 31.74
224.00 31.82
225.00 32.43
226.00 33.53
227.00 34.89
228.00 36.03
229.00 36.54
230.00 36.48
231.00 36.26
232.00 36.08
233.00 35.81
234.00 35.04
235.00 33.69
236.00 32.20
237.00 31.03
238.00 30.38
239.00 30.26
240.00 30.55
241.00 31.12
242.00 31.82
243.00 32.48
244.00 32.85
245.00 32.78
246.00 32.43
247.00 32.15
248.00 32.23
249.00 32.71
250.00 33.47
251.00 34.28
252.00 34.86
253.00 35.05
254.00 35.00
255.00 34.98
256.00 35.24
257.00 35.89
258.00 36.91
259.00 38.08
260.00 39.09
261.00 39.69
262.00 39.84
263.00 39.72
264.00 39.72
265.00 40.23
266.00 41.53
267.00 43.53
268.00 45.21
269.00 44.90
270.00 43.61
271.00 42.75
272.00 42.58
273.00 42.83
274.00 42.98
275.00 42.33
276.00 40.66
277.00 38.52
278.00 36.52
279.00 34.93
280.00 33.82
281.00 33.23
282.00 33.14
283.00 33.55
284.00 34.45
285.00 35.83
286.00 37.70
287.00 40.05
288.00 42.77
289.00 45.31
290.00 45.90
291.00 43.67
292.00 40.62
293.00 37.98
294.00 36.05
295.00 34.87
296.00 34.44
297.00 34.82
298.00 36.08
299.00 38.42
300.00 41.93
301.00 43.41
302.00 39.03
303.00 34.43
304.00 30.63
305.00 27.39
306.00 24.60
307.00 22.24
308.00 20.28
309.00 18.74
310.00 17.58
311.00 16.77
312.00 16.30
313.00 16.13
314.00 16.21
315.00 16.52
316.00 17.00
317.00 17.65
318.00 18.48
319.00 19.53
320.00 20.89
321.00 22.68
322.00 25.06
323.00 28.20
324.00 32.07
325.00 35.37
326.00 35.93
327.00 35.90
328.00 37.53
329.00 42.44
330.00 49.95
331.00 40.34
332.00 35.73
333.00 33.26
334.00 31.48
335.00 29.69
336.00 27.78
337.00 25.97
338.00 24.47
339.00 23.36
340.00 22.65
341.00 22.39
342.00 22.67
343.00 23.68
344.00 25.85
345.00 30.23
346.00 39.43
347.00 31.81
348.00 26.15
349.00 23.60
350.00 23.03
351.00 24.69
352.00 31.18
353.00 28.95
354.00 19.04
355.00 13.53
356.00 9.69
357.00 6.81
358.00 4.59
359.00 2.87
