NAME ATR4518R7_1850_X_CO_M45_02T_yyR
FREQUENCY 1850
GAIN 15.53 dBd
TILT	ELECTRICAL
COMMENT DATE 05.08.2013 -45 degrees polarized system Lever position 02T deg
HORIZONTAL 360
0.00 0.19
1.00 0.14
2.00 0.10
3.00 0.07
4.00 0.04
5.00 0.02
6.00 0.00
7.00 0.00
8.00 0.00
9.00 0.01
10.00 0.02
11.00 0.05
12.00 0.08
13.00 0.12
14.00 0.17
15.00 0.23
16.00 0.30
17.00 0.37
18.00 0.46
19.00 0.55
20.00 0.66
21.00 0.77
22.00 0.89
23.00 1.02
24.00 1.16
25.00 1.31
26.00 1.47
27.00 1.63
28.00 1.81
29.00 1.99
30.00 2.18
31.00 2.38
32.00 2.58
33.00 2.80
34.00 3.02
35.00 3.25
36.00 3.49
37.00 3.73
38.00 3.98
39.00 4.24
40.00 4.51
41.00 4.78
42.00 5.06
43.00 5.35
44.00 5.64
45.00 5.95
46.00 6.25
47.00 6.57
48.00 6.90
49.00 7.23
50.00 7.57
51.00 7.92
52.00 8.28
53.00 8.65
54.00 9.02
55.00 9.41
56.00 9.80
57.00 10.20
58.00 10.61
59.00 11.03
60.00 11.45
61.00 11.88
62.00 12.32
63.00 12.76
64.00 13.21
65.00 13.66
66.00 14.11
67.00 14.56
68.00 15.02
69.00 15.47
70.00 15.93
71.00 16.38
72.00 16.83
73.00 17.28
74.00 17.73
75.00 18.17
76.00 18.62
77.00 19.06
78.00 19.51
79.00 19.96
80.00 20.41
81.00 20.87
82.00 21.34
83.00 21.83
84.00 22.33
85.00 22.84
86.00 23.37
87.00 23.93
88.00 24.50
89.00 25.10
90.00 25.73
91.00 26.38
92.00 27.05
93.00 27.73
94.00 28.43
95.00 29.14
96.00 29.84
97.00 30.51
98.00 31.14
99.00 31.71
100.00 32.20
101.00 32.58
102.00 32.86
103.00 33.04
104.00 33.13
105.00 33.14
106.00 33.11
107.00 33.05
108.00 32.97
109.00 32.89
110.00 32.82
111.00 32.76
112.00 32.72
113.00 32.70
114.00 32.69
115.00 32.69
116.00 32.71
117.00 32.73
118.00 32.76
119.00 32.79
120.00 32.81
121.00 32.84
122.00 32.87
123.00 32.89
124.00 32.92
125.00 32.95
126.00 33.00
127.00 33.05
128.00 33.13
129.00 33.23
130.00 33.36
131.00 33.52
132.00 33.72
133.00 33.96
134.00 34.25
135.00 34.59
136.00 34.99
137.00 35.45
138.00 35.97
139.00 36.57
140.00 37.25
141.00 38.01
142.00 38.88
143.00 39.86
144.00 40.97
145.00 42.21
146.00 43.60
147.00 45.10
148.00 46.61
149.00 47.83
150.00 48.33
151.00 47.85
152.00 46.69
153.00 45.29
154.00 43.90
155.00 42.63
156.00 41.48
157.00 40.45
158.00 39.54
159.00 38.72
160.00 38.00
161.00 37.35
162.00 36.77
163.00 36.26
164.00 35.81
165.00 35.42
166.00 35.10
167.00 34.83
168.00 34.63
169.00 34.49
170.00 34.40
171.00 34.38
172.00 34.43
173.00 34.54
174.00 34.72
175.00 34.97
176.00 35.28
177.00 35.66
178.00 36.09
179.00 36.57
180.00 37.06
181.00 37.53
182.00 37.92
183.00 38.16
184.00 38.20
185.00 37.98
186.00 37.56
187.00 36.97
188.00 36.28
189.00 35.56
190.00 34.86
191.00 34.18
192.00 33.56
193.00 33.01
194.00 32.52
195.00 32.10
196.00 31.75
197.00 31.46
198.00 31.24
199.00 31.09
200.00 30.99
201.00 30.95
202.00 30.98
203.00 31.06
204.00 31.18
205.00 31.37
206.00 31.59
207.00 31.86
208.00 32.16
209.00 32.47
210.00 32.80
211.00 33.13
212.00 33.43
213.00 33.69
214.00 33.89
215.00 34.02
216.00 34.06
217.00 34.02
218.00 33.91
219.00 33.75
220.00 33.54
221.00 33.31
222.00 33.08
223.00 32.86
224.00 32.65
225.00 32.48
226.00 32.33
227.00 32.22
228.00 32.14
229.00 32.09
230.00 32.08
231.00 32.11
232.00 32.16
233.00 32.24
234.00 32.35
235.00 32.46
236.00 32.59
237.00 32.73
238.00 32.85
239.00 32.96
240.00 33.05
241.00 33.10
242.00 33.10
243.00 33.06
244.00 32.96
245.00 32.81
246.00 32.60
247.00 32.35
248.00 32.06
249.00 31.74
250.00 31.39
251.00 31.03
252.00 30.65
253.00 30.27
254.00 29.89
255.00 29.51
256.00 29.13
257.00 28.76
258.00 28.39
259.00 28.03
260.00 27.68
261.00 27.33
262.00 26.98
263.00 26.63
264.00 26.29
265.00 25.94
266.00 25.59
267.00 25.23
268.00 24.86
269.00 24.49
270.00 24.11
271.00 23.72
272.00 23.32
273.00 22.91
274.00 22.50
275.00 22.08
276.00 21.65
277.00 21.22
278.00 20.79
279.00 20.35
280.00 19.92
281.00 19.49
282.00 19.05
283.00 18.63
284.00 18.20
285.00 17.78
286.00 17.37
287.00 16.96
288.00 16.56
289.00 16.16
290.00 15.77
291.00 15.38
292.00 15.00
293.00 14.62
294.00 14.26
295.00 13.89
296.00 13.53
297.00 13.18
298.00 12.82
299.00 12.48
300.00 12.13
301.00 11.80
302.00 11.46
303.00 11.13
304.00 10.80
305.00 10.47
306.00 10.15
307.00 9.83
308.00 9.52
309.00 9.20
310.00 8.89
311.00 8.59
312.00 8.29
313.00 8.00
314.00 7.70
315.00 7.42
316.00 7.13
317.00 6.86
318.00 6.58
319.00 6.32
320.00 6.06
321.00 5.80
322.00 5.55
323.00 5.31
324.00 5.07
325.00 4.84
326.00 4.62
327.00 4.40
328.00 4.18
329.00 3.98
330.00 3.78
331.00 3.58
332.00 3.40
333.00 3.22
334.00 3.04
335.00 2.87
336.00 2.71
337.00 2.55
338.00 2.40
339.00 2.25
340.00 2.10
341.00 1.97
342.00 1.83
343.00 1.70
344.00 1.58
345.00 1.46
346.00 1.35
347.00 1.23
348.00 1.13
349.00 1.02
350.00 0.93
351.00 0.83
352.00 0.74
353.00 0.66
354.00 0.57
355.00 0.50
356.00 0.43
357.00 0.36
358.00 0.30
359.00 0.24
VERTICAL 360
0.00 1.70
1.00 0.47
2.00 0.00
3.00 0.25
4.00 1.24
5.00 3.07
6.00 6.03
7.00 10.94
8.00 22.25
9.00 23.10
10.00 14.68
11.00 12.61
12.00 12.99
13.00 15.52
14.00 21.29
15.00 26.03
16.00 19.36
17.00 15.88
18.00 14.84
19.00 15.57
20.00 18.27
21.00 24.80
22.00 38.01
23.00 23.69
24.00 19.68
25.00 18.78
26.00 19.92
27.00 23.17
28.00 27.96
29.00 26.45
30.00 22.00
31.00 19.42
32.00 18.19
33.00 17.99
34.00 18.77
35.00 20.66
36.00 23.93
37.00 29.13
38.00 36.94
39.00 40.46
40.00 35.51
41.00 30.15
42.00 25.89
43.00 22.98
44.00 21.15
45.00 20.07
46.00 19.47
47.00 19.24
48.00 19.41
49.00 20.01
50.00 21.13
51.00 22.83
52.00 25.23
53.00 28.65
54.00 33.99
55.00 37.41
56.00 31.40
57.00 27.29
58.00 25.36
59.00 24.86
60.00 25.37
61.00 26.55
62.00 28.17
63.00 30.10
64.00 32.19
65.00 33.53
66.00 32.88
67.00 31.30
68.00 30.30
69.00 30.20
70.00 30.71
71.00 31.30
72.00 31.46
73.00 31.22
74.00 31.11
75.00 31.71
76.00 33.13
77.00 34.60
78.00 34.37
79.00 32.25
80.00 29.81
81.00 27.97
82.00 27.00
83.00 26.78
84.00 27.01
85.00 27.29
86.00 27.30
87.00 27.06
88.00 27.02
89.00 27.71
90.00 29.54
91.00 32.58
92.00 34.96
93.00 33.36
94.00 30.84
95.00 29.63
96.00 29.93
97.00 31.75
98.00 35.06
99.00 39.56
100.00 43.64
101.00 44.17
102.00 43.28
103.00 44.76
104.00 50.65
105.00 50.45
106.00 45.54
107.00 45.44
108.00 49.06
109.00 54.77
110.00 53.91
111.00 48.24
112.00 44.36
113.00 43.11
114.00 44.55
115.00 49.16
116.00 57.51
117.00 56.37
118.00 51.46
119.00 48.04
120.00 45.00
121.00 42.75
122.00 42.10
123.00 43.85
124.00 49.60
125.00 58.17
126.00 53.65
127.00 51.92
128.00 46.72
129.00 42.34
130.00 40.48
131.00 40.06
132.00 39.90
133.00 39.70
134.00 39.93
135.00 40.82
136.00 42.80
137.00 48.42
138.00 61.71
139.00 44.28
140.00 39.86
141.00 38.30
142.00 37.58
143.00 36.45
144.00 35.02
145.00 34.21
146.00 34.63
147.00 36.76
148.00 41.23
149.00 47.51
150.00 48.85
151.00 50.25
152.00 52.92
153.00 47.62
154.00 44.70
155.00 44.57
156.00 45.50
157.00 46.78
158.00 47.97
159.00 44.64
160.00 39.79
161.00 36.65
162.00 34.96
163.00 34.34
164.00 34.64
165.00 35.76
166.00 37.53
167.00 39.50
168.00 40.84
169.00 40.76
170.00 39.50
171.00 37.88
172.00 36.46
173.00 35.78
174.00 36.35
175.00 38.23
176.00 39.48
177.00 37.97
178.00 36.63
179.00 37.12
180.00 39.92
181.00 42.89
182.00 41.13
183.00 39.33
184.00 39.88
185.00 41.93
186.00 41.43
187.00 38.01
188.00 35.55
189.00 34.79
190.00 36.00
191.00 39.87
192.00 43.48
193.00 39.05
194.00 36.16
195.00 36.09
196.00 38.15
197.00 40.35
198.00 39.57
199.00 38.05
200.00 37.29
201.00 36.77
202.00 36.23
203.00 35.60
204.00 34.45
205.00 32.98
206.00 32.17
207.00 32.85
208.00 35.91
209.00 44.37
210.00 44.85
211.00 36.90
212.00 34.17
213.00 33.39
214.00 33.56
215.00 34.34
216.00 35.72
217.00 37.78
218.00 40.32
219.00 42.78
220.00 44.96
221.00 47.62
222.00 49.78
223.00 47.23
224.00 44.00
225.00 43.11
226.00 45.07
227.00 46.84
228.00 41.52
229.00 37.14
230.00 35.08
231.00 34.66
232.00 35.40
233.00 36.75
234.00 37.99
235.00 38.77
236.00 39.50
237.00 40.85
238.00 42.51
239.00 42.18
240.00 39.92
241.00 38.03
242.00 37.04
243.00 36.96
244.00 38.00
245.00 40.42
246.00 43.95
247.00 47.35
248.00 50.61
249.00 49.23
250.00 43.66
251.00 40.51
252.00 39.17
253.00 38.82
254.00 39.42
255.00 41.71
256.00 46.07
257.00 46.59
258.00 43.13
259.00 41.36
260.00 40.30
261.00 38.79
262.00 36.67
263.00 34.52
264.00 33.13
265.00 32.94
266.00 33.92
267.00 35.63
268.00 37.24
269.00 37.82
270.00 36.49
271.00 34.37
272.00 33.10
273.00 32.82
274.00 32.76
275.00 32.30
276.00 31.73
277.00 31.35
278.00 30.97
279.00 30.39
280.00 29.67
281.00 28.89
282.00 28.24
283.00 27.92
284.00 28.01
285.00 28.30
286.00 28.50
287.00 28.45
288.00 28.32
289.00 28.46
290.00 29.14
291.00 30.36
292.00 31.52
293.00 31.53
294.00 30.13
295.00 28.18
296.00 26.27
297.00 24.57
298.00 23.15
299.00 22.08
300.00 21.39
301.00 21.03
302.00 20.94
303.00 21.04
304.00 21.30
305.00 21.79
306.00 22.61
307.00 23.79
308.00 25.10
309.00 25.88
310.00 25.65
311.00 24.81
312.00 23.99
313.00 23.41
314.00 23.06
315.00 22.84
316.00 22.69
317.00 22.62
318.00 22.61
319.00 22.59
320.00 22.44
321.00 22.09
322.00 21.53
323.00 20.84
324.00 20.16
325.00 19.69
326.00 19.65
327.00 20.28
328.00 21.93
329.00 25.28
330.00 32.43
331.00 34.07
332.00 25.98
333.00 22.30
334.00 20.71
335.00 20.58
336.00 21.88
337.00 25.05
338.00 31.19
339.00 31.99
340.00 26.14
341.00 23.64
342.00 23.76
343.00 26.71
344.00 30.35
345.00 25.10
346.00 20.50
347.00 18.48
348.00 18.38
349.00 20.24
350.00 25.16
351.00 35.22
352.00 27.90
353.00 23.61
354.00 24.77
355.00 33.43
356.00 20.37
357.00 11.95
358.00 7.06
359.00 3.82
