NAME ATR4518R7_2350_X_CO_P45_00T_yL
FREQUENCY 2350
GAIN 15.37 dBd
TILT	ELECTRICAL
COMMENT DATE 05.08.2013 +45 degrees polarized system Lever position 00T deg
HORIZONTAL 360
0.00 0.02
1.00 0.00
2.00 0.00
3.00 0.01
4.00 0.03
5.00 0.06
6.00 0.10
7.00 0.15
8.00 0.21
9.00 0.28
10.00 0.35
11.00 0.43
12.00 0.50
13.00 0.58
14.00 0.66
15.00 0.74
16.00 0.82
17.00 0.89
18.00 0.97
19.00 1.04
20.00 1.11
21.00 1.18
22.00 1.26
23.00 1.34
24.00 1.42
25.00 1.52
26.00 1.62
27.00 1.73
28.00 1.86
29.00 1.99
30.00 2.14
31.00 2.30
32.00 2.48
33.00 2.68
34.00 2.88
35.00 3.10
36.00 3.34
37.00 3.59
38.00 3.85
39.00 4.12
40.00 4.39
41.00 4.68
42.00 4.97
43.00 5.26
44.00 5.56
45.00 5.85
46.00 6.14
47.00 6.43
48.00 6.71
49.00 6.98
50.00 7.25
51.00 7.51
52.00 7.75
53.00 8.00
54.00 8.23
55.00 8.46
56.00 8.68
57.00 8.90
58.00 9.12
59.00 9.34
60.00 9.56
61.00 9.78
62.00 10.02
63.00 10.26
64.00 10.51
65.00 10.77
66.00 11.04
67.00 11.32
68.00 11.62
69.00 11.93
70.00 12.26
71.00 12.59
72.00 12.94
73.00 13.30
74.00 13.67
75.00 14.05
76.00 14.43
77.00 14.82
78.00 15.21
79.00 15.59
80.00 15.98
81.00 16.35
82.00 16.73
83.00 17.09
84.00 17.43
85.00 17.77
86.00 18.09
87.00 18.40
88.00 18.70
89.00 18.99
90.00 19.26
91.00 19.53
92.00 19.80
93.00 20.06
94.00 20.32
95.00 20.57
96.00 20.83
97.00 21.10
98.00 21.36
99.00 21.63
100.00 21.90
101.00 22.18
102.00 22.44
103.00 22.70
104.00 22.95
105.00 23.18
106.00 23.39
107.00 23.56
108.00 23.70
109.00 23.79
110.00 23.83
111.00 23.84
112.00 23.80
113.00 23.73
114.00 23.64
115.00 23.53
116.00 23.43
117.00 23.34
118.00 23.26
119.00 23.22
120.00 23.21
121.00 23.25
122.00 23.34
123.00 23.48
124.00 23.68
125.00 23.94
126.00 24.25
127.00 24.62
128.00 25.04
129.00 25.50
130.00 25.98
131.00 26.46
132.00 26.92
133.00 27.32
134.00 27.64
135.00 27.85
136.00 27.96
137.00 27.98
138.00 27.93
139.00 27.86
140.00 27.78
141.00 27.73
142.00 27.74
143.00 27.82
144.00 27.97
145.00 28.21
146.00 28.54
147.00 28.96
148.00 29.47
149.00 30.06
150.00 30.72
151.00 31.41
152.00 32.12
153.00 32.79
154.00 33.36
155.00 33.81
156.00 34.09
157.00 34.22
158.00 34.23
159.00 34.16
160.00 34.05
161.00 33.90
162.00 33.74
163.00 33.54
164.00 33.30
165.00 32.99
166.00 32.62
167.00 32.19
168.00 31.72
169.00 31.22
170.00 30.74
171.00 30.28
172.00 29.89
173.00 29.56
174.00 29.30
175.00 29.14
176.00 29.07
177.00 29.09
178.00 29.22
179.00 29.44
180.00 29.75
181.00 30.14
182.00 30.62
183.00 31.14
184.00 31.69
185.00 32.23
186.00 32.71
187.00 33.09
188.00 33.35
189.00 33.47
190.00 33.49
191.00 33.44
192.00 33.38
193.00 33.35
194.00 33.37
195.00 33.46
196.00 33.62
197.00 33.86
198.00 34.16
199.00 34.47
200.00 34.77
201.00 34.99
202.00 35.09
203.00 35.04
204.00 34.85
205.00 34.54
206.00 34.17
207.00 33.80
208.00 33.45
209.00 33.18
210.00 32.98
211.00 32.87
212.00 32.86
213.00 32.95
214.00 33.13
215.00 33.40
216.00 33.75
217.00 34.18
218.00 34.66
219.00 35.20
220.00 35.79
221.00 36.41
222.00 37.07
223.00 37.80
224.00 38.61
225.00 39.55
226.00 40.70
227.00 42.15
228.00 44.06
229.00 46.67
230.00 50.20
231.00 52.75
232.00 49.79
233.00 45.80
234.00 42.76
235.00 40.45
236.00 38.67
237.00 37.27
238.00 36.17
239.00 35.30
240.00 34.64
241.00 34.17
242.00 33.85
243.00 33.68
244.00 33.63
245.00 33.71
246.00 33.90
247.00 34.17
248.00 34.52
249.00 34.93
250.00 35.37
251.00 35.83
252.00 36.28
253.00 36.72
254.00 37.15
255.00 37.59
256.00 38.07
257.00 38.60
258.00 39.19
259.00 39.75
260.00 40.18
261.00 40.20
262.00 39.61
263.00 38.45
264.00 36.94
265.00 35.34
266.00 33.81
267.00 32.41
268.00 31.14
269.00 30.02
270.00 29.04
271.00 28.18
272.00 27.43
273.00 26.78
274.00 26.23
275.00 25.76
276.00 25.36
277.00 25.01
278.00 24.70
279.00 24.42
280.00 24.15
281.00 23.87
282.00 23.56
283.00 23.21
284.00 22.80
285.00 22.33
286.00 21.81
287.00 21.24
288.00 20.62
289.00 19.98
290.00 19.32
291.00 18.65
292.00 17.99
293.00 17.33
294.00 16.70
295.00 16.08
296.00 15.49
297.00 14.91
298.00 14.36
299.00 13.82
300.00 13.30
301.00 12.80
302.00 12.32
303.00 11.85
304.00 11.39
305.00 10.94
306.00 10.50
307.00 10.06
308.00 9.63
309.00 9.20
310.00 8.78
311.00 8.37
312.00 7.96
313.00 7.56
314.00 7.16
315.00 6.77
316.00 6.40
317.00 6.03
318.00 5.68
319.00 5.34
320.00 5.01
321.00 4.69
322.00 4.40
323.00 4.11
324.00 3.84
325.00 3.59
326.00 3.35
327.00 3.13
328.00 2.92
329.00 2.72
330.00 2.54
331.00 2.37
332.00 2.22
333.00 2.08
334.00 1.95
335.00 1.83
336.00 1.72
337.00 1.63
338.00 1.54
339.00 1.45
340.00 1.37
341.00 1.30
342.00 1.23
343.00 1.16
344.00 1.09
345.00 1.02
346.00 0.95
347.00 0.88
348.00 0.80
349.00 0.72
350.00 0.64
351.00 0.56
352.00 0.48
353.00 0.41
354.00 0.33
355.00 0.26
356.00 0.19
357.00 0.14
358.00 0.09
359.00 0.05
VERTICAL 360
0.00 0.07
1.00 0.22
2.00 1.57
3.00 4.38
4.00 9.66
5.00 22.80
6.00 16.70
7.00 12.25
8.00 12.59
9.00 17.01
10.00 39.54
11.00 18.51
12.00 14.06
13.00 13.50
14.00 15.86
15.00 22.04
16.00 24.51
17.00 19.06
18.00 17.22
19.00 17.75
20.00 21.17
21.00 31.66
22.00 22.51
23.00 17.44
24.00 16.26
25.00 17.31
26.00 19.45
27.00 20.82
28.00 20.01
29.00 18.09
30.00 16.51
31.00 15.58
32.00 14.92
33.00 14.32
34.00 14.23
35.00 15.32
36.00 18.24
37.00 24.21
38.00 39.41
39.00 28.82
40.00 24.42
41.00 22.88
42.00 22.81
43.00 23.89
44.00 26.24
45.00 30.99
46.00 53.27
47.00 30.64
48.00 24.76
49.00 22.61
50.00 22.75
51.00 24.78
52.00 28.39
53.00 33.19
54.00 38.46
55.00 37.92
56.00 34.40
57.00 32.60
58.00 32.11
59.00 32.34
60.00 32.66
61.00 32.78
62.00 33.00
63.00 33.82
64.00 35.76
65.00 39.10
66.00 42.82
67.00 44.12
68.00 43.88
69.00 44.61
70.00 45.26
71.00 41.65
72.00 38.17
73.00 35.98
74.00 34.28
75.00 32.84
76.00 31.91
77.00 31.61
78.00 31.76
79.00 31.81
80.00 31.39
81.00 30.93
82.00 31.02
83.00 31.94
84.00 33.88
85.00 36.92
86.00 41.06
87.00 45.28
88.00 43.38
89.00 39.69
90.00 37.34
91.00 36.02
92.00 35.81
93.00 36.69
94.00 38.01
95.00 39.68
96.00 43.28
97.00 51.27
98.00 51.72
99.00 48.30
100.00 45.44
101.00 42.65
102.00 41.67
103.00 42.38
104.00 44.32
105.00 47.09
106.00 49.18
107.00 47.71
108.00 43.90
109.00 41.55
110.00 41.63
111.00 43.92
112.00 47.90
113.00 49.78
114.00 42.57
115.00 37.99
116.00 36.25
117.00 36.55
118.00 38.30
119.00 40.93
120.00 43.49
121.00 43.05
122.00 40.60
123.00 40.13
124.00 43.64
125.00 45.82
126.00 39.06
127.00 36.96
128.00 38.71
129.00 44.11
130.00 44.82
131.00 42.96
132.00 45.63
133.00 48.70
134.00 43.72
135.00 41.09
136.00 39.73
137.00 37.84
138.00 35.95
139.00 35.05
140.00 35.59
141.00 37.78
142.00 41.57
143.00 45.22
144.00 44.26
145.00 41.04
146.00 39.39
147.00 39.07
148.00 38.60
149.00 38.86
150.00 42.30
151.00 47.08
152.00 42.89
153.00 44.25
154.00 44.39
155.00 36.35
156.00 33.32
157.00 33.74
158.00 37.35
159.00 45.06
160.00 55.88
161.00 42.34
162.00 37.41
163.00 36.85
164.00 40.85
165.00 49.73
166.00 43.90
167.00 43.17
168.00 45.84
169.00 50.85
170.00 56.87
171.00 52.01
172.00 51.26
173.00 38.79
174.00 33.71
175.00 32.25
176.00 32.38
177.00 31.51
178.00 30.20
179.00 30.16
180.00 31.24
181.00 32.27
182.00 32.74
183.00 33.82
184.00 36.36
185.00 38.11
186.00 37.52
187.00 38.81
188.00 43.45
189.00 48.31
190.00 46.06
191.00 42.35
192.00 42.11
193.00 46.56
194.00 44.88
195.00 43.45
196.00 47.57
197.00 40.72
198.00 37.63
199.00 39.57
200.00 44.90
201.00 42.81
202.00 40.03
203.00 38.46
204.00 39.64
205.00 47.60
206.00 41.31
207.00 37.10
208.00 38.80
209.00 46.48
210.00 44.35
211.00 42.80
212.00 42.89
213.00 39.55
214.00 38.56
215.00 40.19
216.00 41.34
217.00 41.31
218.00 41.60
219.00 39.90
220.00 38.00
221.00 37.18
222.00 35.59
223.00 33.12
224.00 31.50
225.00 31.20
226.00 31.75
227.00 32.06
228.00 31.68
229.00 31.40
230.00 31.61
231.00 32.02
232.00 32.47
233.00 33.20
234.00 33.80
235.00 33.30
236.00 31.93
237.00 30.67
238.00 29.98
239.00 30.06
240.00 31.24
241.00 34.11
242.00 39.32
243.00 41.18
244.00 37.22
245.00 34.93
246.00 33.55
247.00 32.47
248.00 31.80
249.00 31.75
250.00 32.59
251.00 34.44
252.00 36.22
253.00 35.60
254.00 34.13
255.00 33.66
256.00 34.28
257.00 35.58
258.00 37.21
259.00 38.80
260.00 38.60
261.00 35.43
262.00 31.82
263.00 29.12
264.00 27.38
265.00 26.23
266.00 25.35
267.00 24.71
268.00 24.47
269.00 24.74
270.00 25.40
271.00 25.84
272.00 25.09
273.00 23.18
274.00 21.20
275.00 19.81
276.00 19.21
277.00 19.33
278.00 19.97
279.00 20.77
280.00 21.29
281.00 21.33
282.00 21.10
283.00 20.90
284.00 20.87
285.00 21.10
286.00 21.67
287.00 22.63
288.00 24.01
289.00 25.87
290.00 28.52
291.00 33.03
292.00 45.84
293.00 37.26
294.00 29.74
295.00 26.03
296.00 24.00
297.00 23.30
298.00 23.93
299.00 26.10
300.00 30.22
301.00 37.34
302.00 41.86
303.00 36.19
304.00 31.69
305.00 27.53
306.00 24.40
307.00 22.70
308.00 22.53
309.00 24.08
310.00 28.12
311.00 37.29
312.00 31.12
313.00 25.34
314.00 22.86
315.00 22.32
316.00 23.52
317.00 26.47
318.00 28.73
319.00 25.70
320.00 21.99
321.00 19.17
322.00 17.21
323.00 16.08
324.00 15.60
325.00 15.34
326.00 14.93
327.00 14.37
328.00 13.81
329.00 13.20
330.00 12.44
331.00 11.64
332.00 11.13
333.00 11.45
334.00 13.31
335.00 18.12
336.00 36.52
337.00 21.11
338.00 16.44
339.00 15.66
340.00 17.61
341.00 23.81
342.00 33.44
343.00 21.29
344.00 18.47
345.00 19.09
346.00 22.75
347.00 26.10
348.00 21.47
349.00 18.66
350.00 18.50
351.00 20.92
352.00 25.16
353.00 24.31
354.00 22.78
355.00 20.47
356.00 13.09
357.00 7.23
358.00 3.39
359.00 1.09
