NAME ATR4518R7_2655_X_CO_M45_10T_yyR
FREQUENCY 2655
GAIN 15.24 dBd
TILT	ELECTRICAL
COMMENT DATE 05.08.2013 -45 degrees polarized system Lever position 10T deg
HORIZONTAL 360
0.00 0.00
1.00 0.02
2.00 0.05
3.00 0.09
4.00 0.14
5.00 0.20
6.00 0.27
7.00 0.35
8.00 0.44
9.00 0.54
10.00 0.66
11.00 0.78
12.00 0.90
13.00 1.03
14.00 1.17
15.00 1.31
16.00 1.46
17.00 1.60
18.00 1.76
19.00 1.91
20.00 2.06
21.00 2.23
22.00 2.39
23.00 2.55
24.00 2.72
25.00 2.90
26.00 3.07
27.00 3.26
28.00 3.45
29.00 3.64
30.00 3.85
31.00 4.07
32.00 4.28
33.00 4.52
34.00 4.75
35.00 5.01
36.00 5.26
37.00 5.54
38.00 5.81
39.00 6.10
40.00 6.39
41.00 6.69
42.00 7.00
43.00 7.31
44.00 7.63
45.00 7.96
46.00 8.31
47.00 8.65
48.00 9.00
49.00 9.36
50.00 9.72
51.00 10.08
52.00 10.46
53.00 10.84
54.00 11.22
55.00 11.62
56.00 12.02
57.00 12.43
58.00 12.85
59.00 13.27
60.00 13.70
61.00 14.14
62.00 14.57
63.00 15.00
64.00 15.44
65.00 15.86
66.00 16.29
67.00 16.70
68.00 17.11
69.00 17.52
70.00 17.92
71.00 18.33
72.00 18.75
73.00 19.18
74.00 19.63
75.00 20.10
76.00 20.60
77.00 21.12
78.00 21.67
79.00 22.24
80.00 22.84
81.00 23.44
82.00 24.03
83.00 24.58
84.00 25.08
85.00 25.50
86.00 25.82
87.00 26.03
88.00 26.15
89.00 26.19
90.00 26.19
91.00 26.17
92.00 26.16
93.00 26.18
94.00 26.25
95.00 26.38
96.00 26.58
97.00 26.86
98.00 27.21
99.00 27.65
100.00 28.18
101.00 28.80
102.00 29.49
103.00 30.28
104.00 31.14
105.00 32.07
106.00 33.05
107.00 34.07
108.00 35.11
109.00 36.14
110.00 37.15
111.00 38.15
112.00 39.16
113.00 40.23
114.00 41.42
115.00 42.74
116.00 44.17
117.00 45.39
118.00 45.75
119.00 44.77
120.00 42.98
121.00 41.03
122.00 39.27
123.00 37.75
124.00 36.49
125.00 35.44
126.00 34.58
127.00 33.91
128.00 33.41
129.00 33.06
130.00 32.85
131.00 32.79
132.00 32.88
133.00 33.12
134.00 33.51
135.00 34.07
136.00 34.82
137.00 35.79
138.00 37.01
139.00 38.58
140.00 40.58
141.00 43.22
142.00 46.71
143.00 50.43
144.00 49.78
145.00 46.13
146.00 43.18
147.00 41.03
148.00 39.46
149.00 38.31
150.00 37.47
151.00 36.89
152.00 36.53
153.00 36.36
154.00 36.37
155.00 36.53
156.00 36.84
157.00 37.26
158.00 37.78
159.00 38.34
160.00 38.87
161.00 39.29
162.00 39.50
163.00 39.46
164.00 39.21
165.00 38.82
166.00 38.39
167.00 37.97
168.00 37.62
169.00 37.36
170.00 37.20
171.00 37.12
172.00 37.11
173.00 37.13
174.00 37.14
175.00 37.11
176.00 37.00
177.00 36.81
178.00 36.55
179.00 36.24
180.00 35.94
181.00 35.68
182.00 35.51
183.00 35.45
184.00 35.54
185.00 35.79
186.00 36.25
187.00 36.93
188.00 37.90
189.00 39.20
190.00 40.95
191.00 43.23
192.00 46.01
193.00 48.09
194.00 46.97
195.00 44.20
196.00 41.71
197.00 39.77
198.00 38.32
199.00 37.22
200.00 36.40
201.00 35.80
202.00 35.37
203.00 35.07
204.00 34.85
205.00 34.67
206.00 34.49
207.00 34.27
208.00 34.00
209.00 33.68
210.00 33.34
211.00 33.00
212.00 32.69
213.00 32.45
214.00 32.31
215.00 32.28
216.00 32.40
217.00 32.68
218.00 33.15
219.00 33.84
220.00 34.78
221.00 35.99
222.00 37.53
223.00 39.27
224.00 40.78
225.00 41.03
226.00 39.67
227.00 37.66
228.00 35.73
229.00 34.09
230.00 32.73
231.00 31.63
232.00 30.75
233.00 30.06
234.00 29.52
235.00 29.13
236.00 28.86
237.00 28.70
238.00 28.64
239.00 28.66
240.00 28.75
241.00 28.90
242.00 29.11
243.00 29.34
244.00 29.60
245.00 29.86
246.00 30.11
247.00 30.36
248.00 30.60
249.00 30.81
250.00 31.02
251.00 31.23
252.00 31.45
253.00 31.68
254.00 31.95
255.00 32.25
256.00 32.61
257.00 33.02
258.00 33.50
259.00 34.05
260.00 34.66
261.00 35.32
262.00 36.00
263.00 36.64
264.00 37.11
265.00 37.28
266.00 37.02
267.00 36.32
268.00 35.28
269.00 34.09
270.00 32.83
271.00 31.59
272.00 30.43
273.00 29.32
274.00 28.31
275.00 27.36
276.00 26.49
277.00 25.69
278.00 24.95
279.00 24.28
280.00 23.65
281.00 23.07
282.00 22.54
283.00 22.04
284.00 21.58
285.00 21.15
286.00 20.73
287.00 20.33
288.00 19.95
289.00 19.57
290.00 19.20
291.00 18.82
292.00 18.45
293.00 18.07
294.00 17.68
295.00 17.28
296.00 16.88
297.00 16.48
298.00 16.07
299.00 15.65
300.00 15.24
301.00 14.83
302.00 14.41
303.00 13.99
304.00 13.58
305.00 13.17
306.00 12.77
307.00 12.35
308.00 11.94
309.00 11.54
310.00 11.14
311.00 10.73
312.00 10.32
313.00 9.93
314.00 9.52
315.00 9.13
316.00 8.74
317.00 8.34
318.00 7.95
319.00 7.55
320.00 7.16
321.00 6.77
322.00 6.39
323.00 6.03
324.00 5.65
325.00 5.30
326.00 4.94
327.00 4.61
328.00 4.28
329.00 3.97
330.00 3.66
331.00 3.37
332.00 3.10
333.00 2.84
334.00 2.59
335.00 2.36
336.00 2.14
337.00 1.94
338.00 1.75
339.00 1.57
340.00 1.41
341.00 1.25
342.00 1.12
343.00 0.99
344.00 0.87
345.00 0.76
346.00 0.65
347.00 0.56
348.00 0.47
349.00 0.40
350.00 0.33
351.00 0.26
352.00 0.20
353.00 0.15
354.00 0.10
355.00 0.06
356.00 0.03
357.00 0.01
358.00 0.00
359.00 0.00
VERTICAL 360
0.00 25.99
1.00 23.00
2.00 22.46
3.00 23.69
4.00 20.91
5.00 13.86
6.00 8.33
7.00 4.40
8.00 1.77
9.00 0.31
10.00 0.00
11.00 0.93
12.00 3.39
13.00 8.39
14.00 20.55
15.00 16.22
16.00 10.99
17.00 11.13
18.00 15.50
19.00 26.19
20.00 17.68
21.00 13.80
22.00 13.85
23.00 17.08
24.00 24.74
25.00 23.05
26.00 18.37
27.00 18.46
28.00 23.32
29.00 37.37
30.00 22.06
31.00 17.88
32.00 17.06
33.00 18.79
34.00 24.36
35.00 35.76
36.00 25.03
37.00 21.89
38.00 21.38
39.00 21.08
40.00 20.72
41.00 20.80
42.00 21.22
43.00 22.42
44.00 25.82
45.00 33.50
46.00 33.25
47.00 28.54
48.00 27.93
49.00 29.73
50.00 33.57
51.00 40.96
52.00 41.56
53.00 31.00
54.00 26.40
55.00 24.67
56.00 24.94
57.00 26.67
58.00 29.22
59.00 32.16
60.00 36.14
61.00 41.16
62.00 38.38
63.00 34.88
64.00 34.36
65.00 35.31
66.00 35.45
67.00 34.63
68.00 34.29
69.00 34.85
70.00 36.17
71.00 37.06
72.00 36.74
73.00 36.68
74.00 36.99
75.00 36.84
76.00 37.03
77.00 38.41
78.00 40.15
79.00 39.56
80.00 36.74
81.00 34.82
82.00 34.80
83.00 35.84
84.00 36.35
85.00 38.16
86.00 47.30
87.00 39.04
88.00 32.09
89.00 29.61
90.00 29.12
91.00 30.00
92.00 32.02
93.00 33.06
94.00 31.61
95.00 30.69
96.00 30.87
97.00 31.47
98.00 32.77
99.00 34.68
100.00 35.19
101.00 35.20
102.00 36.92
103.00 40.83
104.00 47.56
105.00 55.26
106.00 48.06
107.00 40.20
108.00 36.20
109.00 35.53
110.00 37.66
111.00 41.32
112.00 42.79
113.00 40.98
114.00 40.04
115.00 40.91
116.00 39.69
117.00 37.59
118.00 38.11
119.00 41.93
120.00 51.00
121.00 53.41
122.00 48.92
123.00 46.45
124.00 43.30
125.00 45.87
126.00 54.14
127.00 40.12
128.00 37.63
129.00 39.71
130.00 43.08
131.00 42.30
132.00 39.87
133.00 38.43
134.00 40.35
135.00 43.61
136.00 40.44
137.00 40.53
138.00 47.07
139.00 50.08
140.00 48.71
141.00 47.09
142.00 39.37
143.00 37.04
144.00 39.04
145.00 47.23
146.00 53.50
147.00 48.52
148.00 45.19
149.00 42.28
150.00 43.92
151.00 44.26
152.00 41.30
153.00 40.79
154.00 37.08
155.00 33.89
156.00 34.02
157.00 37.19
158.00 38.91
159.00 36.05
160.00 35.06
161.00 37.21
162.00 42.50
163.00 44.17
164.00 44.19
165.00 43.83
166.00 39.43
167.00 38.59
168.00 41.78
169.00 41.30
170.00 36.24
171.00 34.47
172.00 36.12
173.00 40.24
174.00 38.34
175.00 34.73
176.00 32.97
177.00 32.39
178.00 33.23
179.00 35.20
180.00 36.31
181.00 36.26
182.00 36.71
183.00 37.88
184.00 39.18
185.00 38.42
186.00 35.66
187.00 33.07
188.00 31.16
189.00 30.25
190.00 30.75
191.00 33.27
192.00 39.12
193.00 40.98
194.00 34.36
195.00 31.81
196.00 32.16
197.00 35.13
198.00 40.29
199.00 43.23
200.00 40.17
201.00 37.28
202.00 37.50
203.00 42.04
204.00 47.23
205.00 43.84
206.00 40.64
207.00 36.58
208.00 34.99
209.00 36.40
210.00 39.94
211.00 42.77
212.00 43.55
213.00 41.64
214.00 38.34
215.00 36.86
216.00 39.03
217.00 49.42
218.00 40.80
219.00 35.72
220.00 35.47
221.00 37.13
222.00 38.94
223.00 42.32
224.00 50.13
225.00 56.87
226.00 46.71
227.00 39.22
228.00 35.80
229.00 34.53
230.00 33.90
231.00 33.50
232.00 34.09
233.00 36.11
234.00 38.26
235.00 37.40
236.00 35.53
237.00 34.71
238.00 34.67
239.00 35.00
240.00 35.83
241.00 37.79
242.00 42.12
243.00 49.64
244.00 44.02
245.00 39.72
246.00 38.81
247.00 39.97
248.00 41.85
249.00 39.86
250.00 36.02
251.00 34.08
252.00 33.89
253.00 34.56
254.00 35.04
255.00 34.59
256.00 33.55
257.00 33.26
258.00 34.55
259.00 37.26
260.00 39.91
261.00 39.71
262.00 38.23
263.00 39.21
264.00 46.35
265.00 54.59
266.00 44.70
267.00 41.76
268.00 36.01
269.00 32.42
270.00 31.34
271.00 31.70
272.00 32.37
273.00 33.29
274.00 35.24
275.00 38.15
276.00 39.31
277.00 37.13
278.00 34.56
279.00 33.20
280.00 33.25
281.00 34.10
282.00 34.34
283.00 33.12
284.00 31.39
285.00 30.52
286.00 31.10
287.00 32.97
288.00 35.81
289.00 39.17
290.00 39.57
291.00 38.21
292.00 38.17
293.00 36.91
294.00 34.62
295.00 33.00
296.00 31.59
297.00 30.35
298.00 29.85
299.00 30.27
300.00 30.71
301.00 30.21
302.00 30.24
303.00 32.55
304.00 35.17
305.00 30.50
306.00 25.53
307.00 21.73
308.00 18.48
309.00 15.56
310.00 13.02
311.00 10.90
312.00 9.36
313.00 8.49
314.00 8.45
315.00 9.40
316.00 11.70
317.00 15.99
318.00 26.33
319.00 26.19
320.00 17.18
321.00 14.26
322.00 13.72
323.00 15.31
324.00 20.00
325.00 29.14
326.00 22.31
327.00 18.15
328.00 17.92
329.00 21.60
330.00 30.50
331.00 21.79
332.00 17.86
333.00 18.36
334.00 23.74
335.00 28.41
336.00 19.30
337.00 16.38
338.00 17.43
339.00 28.99
340.00 24.70
341.00 16.36
342.00 13.01
343.00 11.98
344.00 12.77
345.00 15.53
346.00 21.54
347.00 31.24
348.00 18.62
349.00 16.38
350.00 18.07
351.00 23.85
352.00 31.42
353.00 24.57
354.00 21.75
355.00 21.54
356.00 22.98
357.00 25.86
358.00 30.28
359.00 31.13
