NAME ATR4518R7_2655_X_CO_P45_07T_yyR
FREQUENCY 2655
GAIN 15.74 dBd
TILT	ELECTRICAL
COMMENT DATE 05.08.2013 +45 degrees polarized system Lever position 07T deg
HORIZONTAL 360
0.00 0.04
1.00 0.07
2.00 0.10
3.00 0.14
4.00 0.19
5.00 0.25
6.00 0.32
7.00 0.40
8.00 0.48
9.00 0.58
10.00 0.68
11.00 0.79
12.00 0.91
13.00 1.04
14.00 1.18
15.00 1.32
16.00 1.47
17.00 1.62
18.00 1.78
19.00 1.94
20.00 2.11
21.00 2.27
22.00 2.43
23.00 2.59
24.00 2.74
25.00 2.89
26.00 3.04
27.00 3.18
28.00 3.31
29.00 3.45
30.00 3.58
31.00 3.70
32.00 3.83
33.00 3.96
34.00 4.10
35.00 4.24
36.00 4.39
37.00 4.56
38.00 4.73
39.00 4.92
40.00 5.12
41.00 5.35
42.00 5.59
43.00 5.85
44.00 6.13
45.00 6.43
46.00 6.75
47.00 7.10
48.00 7.47
49.00 7.86
50.00 8.27
51.00 8.71
52.00 9.17
53.00 9.64
54.00 10.15
55.00 10.67
56.00 11.22
57.00 11.80
58.00 12.39
59.00 13.01
60.00 13.66
61.00 14.34
62.00 15.04
63.00 15.77
64.00 16.53
65.00 17.33
66.00 18.16
67.00 19.03
68.00 19.94
69.00 20.89
70.00 21.88
71.00 22.92
72.00 24.01
73.00 25.15
74.00 26.34
75.00 27.60
76.00 28.93
77.00 30.34
78.00 31.85
79.00 33.49
80.00 35.28
81.00 37.28
82.00 39.53
83.00 41.99
84.00 44.27
85.00 45.23
86.00 44.20
87.00 42.30
88.00 40.45
89.00 38.88
90.00 37.58
91.00 36.52
92.00 35.65
93.00 34.94
94.00 34.38
95.00 33.93
96.00 33.58
97.00 33.32
98.00 33.13
99.00 33.01
100.00 32.93
101.00 32.89
102.00 32.88
103.00 32.87
104.00 32.88
105.00 32.88
106.00 32.89
107.00 32.90
108.00 32.92
109.00 32.95
110.00 33.02
111.00 33.12
112.00 33.28
113.00 33.50
114.00 33.80
115.00 34.19
116.00 34.68
117.00 35.28
118.00 36.01
119.00 36.85
120.00 37.82
121.00 38.87
122.00 39.94
123.00 40.87
124.00 41.46
125.00 41.55
126.00 41.17
127.00 40.52
128.00 39.78
129.00 39.12
130.00 38.58
131.00 38.21
132.00 38.02
133.00 38.02
134.00 38.21
135.00 38.61
136.00 39.24
137.00 40.09
138.00 41.18
139.00 42.45
140.00 43.72
141.00 44.53
142.00 44.38
143.00 43.29
144.00 41.79
145.00 40.32
146.00 39.04
147.00 37.98
148.00 37.16
149.00 36.55
150.00 36.14
151.00 35.94
152.00 35.92
153.00 36.11
154.00 36.51
155.00 37.14
156.00 38.04
157.00 39.26
158.00 40.87
159.00 42.92
160.00 45.30
161.00 47.00
162.00 46.20
163.00 43.79
164.00 41.42
165.00 39.49
166.00 37.98
167.00 36.83
168.00 35.97
169.00 35.36
170.00 34.99
171.00 34.84
172.00 34.91
173.00 35.21
174.00 35.76
175.00 36.61
176.00 37.82
177.00 39.54
178.00 42.01
179.00 45.89
180.00 53.28
181.00 54.86
182.00 46.35
183.00 41.93
184.00 39.08
185.00 37.04
186.00 35.53
187.00 34.39
188.00 33.54
189.00 32.94
190.00 32.54
191.00 32.35
192.00 32.35
193.00 32.53
194.00 32.90
195.00 33.48
196.00 34.29
197.00 35.36
198.00 36.73
199.00 38.46
200.00 40.56
201.00 42.81
202.00 44.18
203.00 43.41
204.00 41.39
205.00 39.37
206.00 37.71
207.00 36.42
208.00 35.44
209.00 34.73
210.00 34.25
211.00 33.97
212.00 33.88
213.00 33.98
214.00 34.24
215.00 34.67
216.00 35.27
217.00 36.02
218.00 36.92
219.00 37.92
220.00 38.93
221.00 39.77
222.00 40.21
223.00 40.11
224.00 39.55
225.00 38.73
226.00 37.86
227.00 37.06
228.00 36.37
229.00 35.82
230.00 35.41
231.00 35.13
232.00 35.00
233.00 34.98
234.00 35.09
235.00 35.31
236.00 35.64
237.00 36.06
238.00 36.56
239.00 37.12
240.00 37.67
241.00 38.20
242.00 38.63
243.00 38.90
244.00 38.99
245.00 38.91
246.00 38.70
247.00 38.43
248.00 38.16
249.00 37.91
250.00 37.70
251.00 37.56
252.00 37.45
253.00 37.36
254.00 37.25
255.00 37.08
256.00 36.79
257.00 36.35
258.00 35.74
259.00 35.00
260.00 34.16
261.00 33.27
262.00 32.37
263.00 31.48
264.00 30.64
265.00 29.84
266.00 29.09
267.00 28.40
268.00 27.76
269.00 27.17
270.00 26.63
271.00 26.13
272.00 25.67
273.00 25.24
274.00 24.84
275.00 24.46
276.00 24.09
277.00 23.73
278.00 23.37
279.00 23.01
280.00 22.64
281.00 22.26
282.00 21.86
283.00 21.45
284.00 21.02
285.00 20.57
286.00 20.11
287.00 19.63
288.00 19.16
289.00 18.68
290.00 18.19
291.00 17.71
292.00 17.24
293.00 16.77
294.00 16.31
295.00 15.86
296.00 15.41
297.00 14.98
298.00 14.55
299.00 14.13
300.00 13.72
301.00 13.31
302.00 12.90
303.00 12.50
304.00 12.10
305.00 11.70
306.00 11.30
307.00 10.91
308.00 10.51
309.00 10.11
310.00 9.72
311.00 9.32
312.00 8.94
313.00 8.55
314.00 8.17
315.00 7.79
316.00 7.41
317.00 7.05
318.00 6.69
319.00 6.33
320.00 5.99
321.00 5.65
322.00 5.33
323.00 5.01
324.00 4.70
325.00 4.40
326.00 4.11
327.00 3.83
328.00 3.56
329.00 3.29
330.00 3.04
331.00 2.80
332.00 2.57
333.00 2.35
334.00 2.14
335.00 1.93
336.00 1.74
337.00 1.56
338.00 1.39
339.00 1.23
340.00 1.08
341.00 0.94
342.00 0.82
343.00 0.70
344.00 0.59
345.00 0.49
346.00 0.41
347.00 0.33
348.00 0.26
349.00 0.20
350.00 0.15
351.00 0.10
352.00 0.07
353.00 0.04
354.00 0.02
355.00 0.00
356.00 0.00
357.00 0.00
358.00 0.00
359.00 0.02
VERTICAL 360
0.00 19.29
1.00 21.88
2.00 22.47
3.00 11.28
4.00 5.37
5.00 2.02
6.00 0.33
7.00 0.00
8.00 0.97
9.00 3.52
10.00 8.56
11.00 24.11
12.00 19.49
13.00 14.36
14.00 16.06
15.00 25.96
16.00 23.15
17.00 15.70
18.00 13.99
19.00 15.62
20.00 21.91
21.00 23.88
22.00 17.08
23.00 15.56
24.00 17.45
25.00 23.57
26.00 30.59
27.00 22.13
28.00 19.69
29.00 21.20
30.00 26.89
31.00 27.09
32.00 22.32
33.00 19.99
34.00 17.95
35.00 16.59
36.00 16.54
37.00 17.32
38.00 18.07
39.00 19.40
40.00 23.18
41.00 28.81
42.00 25.14
43.00 22.72
44.00 23.18
45.00 24.47
46.00 25.71
47.00 27.59
48.00 27.79
49.00 25.75
50.00 25.27
51.00 27.33
52.00 32.47
53.00 42.21
54.00 42.99
55.00 39.48
56.00 37.30
57.00 33.20
58.00 30.77
59.00 30.97
60.00 33.65
61.00 38.34
62.00 43.68
63.00 45.58
64.00 41.40
65.00 36.48
66.00 33.69
67.00 33.01
68.00 33.49
69.00 33.60
70.00 32.61
71.00 31.49
72.00 31.47
73.00 33.04
74.00 36.13
75.00 39.50
76.00 39.92
77.00 39.46
78.00 42.38
79.00 45.25
80.00 40.49
81.00 42.55
82.00 50.60
83.00 34.84
84.00 31.51
85.00 33.08
86.00 40.47
87.00 47.52
88.00 37.96
89.00 30.82
90.00 27.04
91.00 26.00
92.00 26.60
93.00 27.89
94.00 29.46
95.00 30.53
96.00 31.27
97.00 34.35
98.00 46.35
99.00 43.47
100.00 34.66
101.00 31.14
102.00 30.67
103.00 33.01
104.00 36.60
105.00 39.61
106.00 46.68
107.00 49.36
108.00 49.24
109.00 50.77
110.00 43.63
111.00 47.34
112.00 54.10
113.00 42.73
114.00 40.42
115.00 38.71
116.00 38.92
117.00 42.49
118.00 41.99
119.00 39.01
120.00 39.14
121.00 42.25
122.00 51.46
123.00 43.95
124.00 38.79
125.00 38.87
126.00 43.17
127.00 47.38
128.00 46.16
129.00 54.76
130.00 41.24
131.00 36.50
132.00 38.06
133.00 44.63
134.00 41.87
135.00 41.98
136.00 41.29
137.00 38.29
138.00 42.30
139.00 49.09
140.00 40.84
141.00 37.28
142.00 31.55
143.00 28.85
144.00 29.45
145.00 32.60
146.00 36.55
147.00 39.58
148.00 40.11
149.00 39.14
150.00 40.34
151.00 42.47
152.00 41.64
153.00 39.63
154.00 40.90
155.00 44.43
156.00 37.61
157.00 33.96
158.00 33.44
159.00 33.71
160.00 33.10
161.00 32.37
162.00 32.37
163.00 33.24
164.00 34.83
165.00 36.91
166.00 39.14
167.00 40.69
168.00 41.83
169.00 44.23
170.00 48.04
171.00 43.81
172.00 38.86
173.00 37.69
174.00 41.18
175.00 52.98
176.00 40.82
177.00 35.35
178.00 33.16
179.00 32.94
180.00 34.20
181.00 37.17
182.00 42.13
183.00 48.04
184.00 44.17
185.00 40.77
186.00 40.91
187.00 44.18
188.00 45.29
189.00 40.01
190.00 36.82
191.00 35.51
192.00 35.74
193.00 39.00
194.00 46.27
195.00 38.32
196.00 34.76
197.00 35.17
198.00 36.96
199.00 36.44
200.00 34.46
201.00 34.04
202.00 37.05
203.00 42.29
204.00 36.64
205.00 34.06
206.00 34.81
207.00 36.69
208.00 38.56
209.00 41.81
210.00 45.64
211.00 45.96
212.00 45.57
213.00 44.84
214.00 42.73
215.00 40.45
216.00 39.56
217.00 40.26
218.00 41.47
219.00 41.38
220.00 39.56
221.00 37.56
222.00 37.01
223.00 37.97
224.00 37.63
225.00 35.31
226.00 33.68
227.00 32.77
228.00 32.18
229.00 32.02
230.00 32.34
231.00 33.25
232.00 34.72
233.00 35.81
234.00 36.49
235.00 38.09
236.00 40.49
237.00 41.06
238.00 37.84
239.00 35.13
240.00 34.64
241.00 36.11
242.00 38.71
243.00 41.72
244.00 46.06
245.00 44.11
246.00 36.25
247.00 32.60
248.00 31.98
249.00 33.59
250.00 35.99
251.00 35.84
252.00 34.08
253.00 34.68
254.00 40.95
255.00 42.28
256.00 34.99
257.00 33.95
258.00 35.53
259.00 37.04
260.00 35.56
261.00 32.75
262.00 31.93
263.00 33.84
264.00 37.18
265.00 37.82
266.00 37.64
267.00 37.94
268.00 36.22
269.00 33.13
270.00 31.28
271.00 31.39
272.00 33.07
273.00 35.97
274.00 42.20
275.00 44.48
276.00 37.19
277.00 36.18
278.00 39.51
279.00 48.44
280.00 52.41
281.00 45.12
282.00 42.23
283.00 40.95
284.00 40.23
285.00 41.31
286.00 47.32
287.00 52.29
288.00 43.82
289.00 41.86
290.00 41.79
291.00 41.72
292.00 40.60
293.00 37.89
294.00 34.62
295.00 32.17
296.00 31.04
297.00 31.17
298.00 32.46
299.00 35.91
300.00 41.10
301.00 31.89
302.00 25.36
303.00 21.18
304.00 18.06
305.00 15.50
306.00 13.34
307.00 11.68
308.00 10.57
309.00 10.04
310.00 10.13
311.00 10.99
312.00 12.92
313.00 16.66
314.00 24.63
315.00 31.36
316.00 21.56
317.00 19.11
318.00 19.59
319.00 23.04
320.00 34.31
321.00 30.54
322.00 23.38
323.00 21.43
324.00 22.08
325.00 26.26
326.00 40.81
327.00 24.29
328.00 18.99
329.00 17.65
330.00 19.47
331.00 27.12
332.00 31.17
333.00 20.57
334.00 18.05
335.00 19.33
336.00 26.58
337.00 27.73
338.00 19.26
339.00 16.41
340.00 16.10
341.00 17.93
342.00 22.75
343.00 33.52
344.00 28.54
345.00 25.88
346.00 30.50
347.00 37.28
348.00 26.90
349.00 24.21
350.00 25.03
351.00 30.28
352.00 42.51
353.00 30.28
354.00 28.85
355.00 30.23
356.00 28.81
357.00 28.38
358.00 26.78
359.00 21.63
