NAME ATR4518R7_0806_X_CO_M45_06T
FREQUENCY 0806
GAIN 14.36 dBd
TILT	ELECTRICAL
COMMENT DATE 05.08.2013 -45 degrees polarized system Lever position 06T deg
HORIZONTAL 360
0.00 0.01
1.00 0.03
2.00 0.05
3.00 0.07
4.00 0.10
5.00 0.14
6.00 0.18
7.00 0.23
8.00 0.28
9.00 0.35
10.00 0.41
11.00 0.48
12.00 0.56
13.00 0.65
14.00 0.74
15.00 0.83
16.00 0.94
17.00 1.05
18.00 1.16
19.00 1.28
20.00 1.41
21.00 1.54
22.00 1.68
23.00 1.83
24.00 1.98
25.00 2.14
26.00 2.30
27.00 2.47
28.00 2.64
29.00 2.83
30.00 3.02
31.00 3.21
32.00 3.41
33.00 3.61
34.00 3.83
35.00 4.04
36.00 4.27
37.00 4.50
38.00 4.73
39.00 4.98
40.00 5.22
41.00 5.48
42.00 5.73
43.00 6.00
44.00 6.26
45.00 6.54
46.00 6.82
47.00 7.10
48.00 7.39
49.00 7.68
50.00 7.98
51.00 8.29
52.00 8.59
53.00 8.90
54.00 9.22
55.00 9.53
56.00 9.85
57.00 10.18
58.00 10.50
59.00 10.83
60.00 11.16
61.00 11.50
62.00 11.83
63.00 12.17
64.00 12.50
65.00 12.84
66.00 13.18
67.00 13.52
68.00 13.86
69.00 14.20
70.00 14.54
71.00 14.87
72.00 15.21
73.00 15.55
74.00 15.88
75.00 16.22
76.00 16.55
77.00 16.88
78.00 17.21
79.00 17.54
80.00 17.87
81.00 18.19
82.00 18.52
83.00 18.84
84.00 19.16
85.00 19.48
86.00 19.79
87.00 20.10
88.00 20.41
89.00 20.72
90.00 21.02
91.00 21.32
92.00 21.61
93.00 21.90
94.00 22.18
95.00 22.46
96.00 22.73
97.00 23.00
98.00 23.26
99.00 23.51
100.00 23.76
101.00 24.00
102.00 24.24
103.00 24.47
104.00 24.69
105.00 24.91
106.00 25.12
107.00 25.33
108.00 25.53
109.00 25.74
110.00 25.94
111.00 26.14
112.00 26.34
113.00 26.55
114.00 26.75
115.00 26.96
116.00 27.18
117.00 27.40
118.00 27.62
119.00 27.86
120.00 28.10
121.00 28.35
122.00 28.61
123.00 28.88
124.00 29.17
125.00 29.46
126.00 29.76
127.00 30.08
128.00 30.40
129.00 30.74
130.00 31.09
131.00 31.44
132.00 31.80
133.00 32.17
134.00 32.54
135.00 32.90
136.00 33.27
137.00 33.62
138.00 33.96
139.00 34.29
140.00 34.58
141.00 34.85
142.00 35.09
143.00 35.28
144.00 35.43
145.00 35.54
146.00 35.61
147.00 35.64
148.00 35.63
149.00 35.59
150.00 35.53
151.00 35.44
152.00 35.35
153.00 35.24
154.00 35.14
155.00 35.02
156.00 34.92
157.00 34.82
158.00 34.72
159.00 34.63
160.00 34.56
161.00 34.49
162.00 34.44
163.00 34.39
164.00 34.37
165.00 34.35
166.00 34.34
167.00 34.35
168.00 34.36
169.00 34.38
170.00 34.42
171.00 34.46
172.00 34.51
173.00 34.56
174.00 34.62
175.00 34.69
176.00 34.75
177.00 34.82
178.00 34.89
179.00 34.96
180.00 35.03
181.00 35.09
182.00 35.16
183.00 35.22
184.00 35.27
185.00 35.33
186.00 35.37
187.00 35.41
188.00 35.43
189.00 35.46
190.00 35.48
191.00 35.49
192.00 35.50
193.00 35.50
194.00 35.49
195.00 35.49
196.00 35.47
197.00 35.45
198.00 35.43
199.00 35.41
200.00 35.38
201.00 35.35
202.00 35.31
203.00 35.29
204.00 35.25
205.00 35.22
206.00 35.18
207.00 35.15
208.00 35.12
209.00 35.09
210.00 35.06
211.00 35.03
212.00 35.00
213.00 34.98
214.00 34.96
215.00 34.94
216.00 34.93
217.00 34.91
218.00 34.89
219.00 34.87
220.00 34.86
221.00 34.83
222.00 34.80
223.00 34.76
224.00 34.71
225.00 34.64
226.00 34.56
227.00 34.45
228.00 34.32
229.00 34.15
230.00 33.95
231.00 33.72
232.00 33.45
233.00 33.14
234.00 32.80
235.00 32.42
236.00 32.01
237.00 31.58
238.00 31.12
239.00 30.64
240.00 30.16
241.00 29.65
242.00 29.14
243.00 28.63
244.00 28.12
245.00 27.60
246.00 27.09
247.00 26.58
248.00 26.09
249.00 25.59
250.00 25.11
251.00 24.63
252.00 24.16
253.00 23.71
254.00 23.26
255.00 22.82
256.00 22.39
257.00 21.96
258.00 21.55
259.00 21.15
260.00 20.75
261.00 20.37
262.00 19.99
263.00 19.62
264.00 19.26
265.00 18.90
266.00 18.56
267.00 18.22
268.00 17.88
269.00 17.55
270.00 17.23
271.00 16.91
272.00 16.60
273.00 16.29
274.00 15.99
275.00 15.69
276.00 15.39
277.00 15.10
278.00 14.81
279.00 14.52
280.00 14.24
281.00 13.96
282.00 13.68
283.00 13.40
284.00 13.12
285.00 12.84
286.00 12.57
287.00 12.30
288.00 12.02
289.00 11.75
290.00 11.48
291.00 11.21
292.00 10.94
293.00 10.66
294.00 10.40
295.00 10.13
296.00 9.86
297.00 9.59
298.00 9.33
299.00 9.06
300.00 8.80
301.00 8.54
302.00 8.28
303.00 8.02
304.00 7.77
305.00 7.51
306.00 7.26
307.00 7.01
308.00 6.76
309.00 6.51
310.00 6.27
311.00 6.03
312.00 5.80
313.00 5.57
314.00 5.34
315.00 5.11
316.00 4.89
317.00 4.67
318.00 4.46
319.00 4.25
320.00 4.04
321.00 3.84
322.00 3.65
323.00 3.45
324.00 3.27
325.00 3.08
326.00 2.91
327.00 2.73
328.00 2.56
329.00 2.40
330.00 2.24
331.00 2.09
332.00 1.94
333.00 1.80
334.00 1.66
335.00 1.53
336.00 1.40
337.00 1.28
338.00 1.16
339.00 1.05
340.00 0.95
341.00 0.85
342.00 0.75
343.00 0.66
344.00 0.58
345.00 0.50
346.00 0.43
347.00 0.36
348.00 0.30
349.00 0.25
350.00 0.20
351.00 0.15
352.00 0.11
353.00 0.08
354.00 0.05
355.00 0.03
356.00 0.02
357.00 0.01
358.00 0.00
359.00 0.00
VERTICAL 360
0.00 6.40
1.00 4.33
2.00 2.74
3.00 1.55
4.00 0.72
5.00 0.21
6.00 0.00
7.00 0.09
8.00 0.48
9.00 1.17
10.00 2.20
11.00 3.59
12.00 5.41
13.00 7.78
14.00 10.88
15.00 15.15
16.00 21.80
17.00 39.64
18.00 27.43
19.00 23.04
20.00 22.10
21.00 23.06
22.00 25.92
23.00 31.28
24.00 31.83
25.00 26.08
26.00 22.62
27.00 20.69
28.00 19.74
29.00 19.55
30.00 20.03
31.00 21.17
32.00 23.06
33.00 25.94
34.00 30.20
35.00 35.11
36.00 33.57
37.00 30.10
38.00 28.20
39.00 27.59
40.00 27.98
41.00 29.07
42.00 29.78
43.00 28.45
44.00 25.78
45.00 23.29
46.00 21.37
47.00 20.02
48.00 19.15
49.00 18.70
50.00 18.63
51.00 18.91
52.00 19.50
53.00 20.39
54.00 21.59
55.00 23.10
56.00 24.94
57.00 27.11
58.00 29.58
59.00 32.05
60.00 33.54
61.00 33.17
62.00 31.78
63.00 30.41
64.00 29.38
65.00 28.75
66.00 28.49
67.00 28.56
68.00 28.89
69.00 29.44
70.00 30.12
71.00 30.85
72.00 31.55
73.00 32.20
74.00 32.85
75.00 33.64
76.00 34.71
77.00 36.22
78.00 38.00
79.00 38.84
80.00 37.25
81.00 34.58
82.00 32.19
83.00 30.32
84.00 28.94
85.00 27.95
86.00 27.29
87.00 26.90
88.00 26.74
89.00 26.74
90.00 26.87
91.00 27.09
92.00 27.39
93.00 27.81
94.00 28.38
95.00 29.12
96.00 30.02
97.00 31.04
98.00 32.12
99.00 33.24
100.00 34.40
101.00 35.61
102.00 36.79
103.00 37.83
104.00 38.62
105.00 39.20
106.00 39.66
107.00 39.87
108.00 39.60
109.00 38.85
110.00 37.94
111.00 37.20
112.00 36.82
113.00 36.83
114.00 37.21
115.00 37.98
116.00 39.14
117.00 40.69
118.00 42.60
119.00 44.56
120.00 45.83
121.00 45.93
122.00 45.38
123.00 44.72
124.00 44.09
125.00 43.45
126.00 42.89
127.00 42.63
128.00 42.89
129.00 43.90
130.00 45.98
131.00 49.77
132.00 56.33
133.00 54.46
134.00 48.81
135.00 45.77
136.00 44.28
137.00 43.92
138.00 44.62
139.00 46.54
140.00 49.51
141.00 49.48
142.00 44.90
143.00 40.88
144.00 37.90
145.00 35.67
146.00 34.00
147.00 32.79
148.00 32.02
149.00 31.68
150.00 31.82
151.00 32.51
152.00 33.92
153.00 36.39
154.00 40.69
155.00 47.27
156.00 42.46
157.00 37.12
158.00 34.07
159.00 32.29
160.00 31.38
161.00 31.16
162.00 31.56
163.00 32.49
164.00 33.69
165.00 34.45
166.00 34.42
167.00 33.38
168.00 32.25
169.00 31.48
170.00 31.20
171.00 31.42
172.00 32.11
173.00 33.28
174.00 34.92
175.00 35.69
176.00 36.55
177.00 36.78
178.00 36.23
179.00 35.49
180.00 34.76
181.00 34.44
182.00 34.70
183.00 35.66
184.00 37.51
185.00 40.71
186.00 46.23
187.00 47.47
188.00 41.04
189.00 36.88
190.00 34.13
191.00 32.18
192.00 30.75
193.00 29.67
194.00 28.88
195.00 28.34
196.00 28.03
197.00 27.96
198.00 28.15
199.00 28.61
200.00 29.37
201.00 30.45
202.00 31.87
203.00 33.62
204.00 35.57
205.00 37.33
206.00 38.24
207.00 38.03
208.00 37.28
209.00 36.61
210.00 36.33
211.00 36.54
212.00 37.34
213.00 38.81
214.00 40.94
215.00 43.11
216.00 43.26
217.00 41.17
218.00 38.95
219.00 37.31
220.00 36.22
221.00 35.55
222.00 35.15
223.00 34.88
224.00 34.67
225.00 34.51
226.00 34.44
227.00 34.57
228.00 34.93
229.00 35.57
230.00 36.49
231.00 37.65
232.00 38.99
233.00 40.40
234.00 41.75
235.00 42.94
236.00 43.99
237.00 44.94
238.00 45.49
239.00 44.85
240.00 42.97
241.00 40.74
242.00 38.77
243.00 37.17
244.00 35.93
245.00 35.04
246.00 34.51
247.00 34.40
248.00 34.82
249.00 35.87
250.00 37.60
251.00 39.83
252.00 41.39
253.00 40.80
254.00 39.25
255.00 38.06
256.00 37.45
257.00 37.27
258.00 37.35
259.00 37.53
260.00 37.74
261.00 37.89
262.00 37.87
263.00 37.64
264.00 37.29
265.00 36.97
266.00 36.82
267.00 36.83
268.00 36.90
269.00 36.86
270.00 36.61
271.00 36.08
272.00 35.29
273.00 34.35
274.00 33.41
275.00 32.65
276.00 32.16
277.00 32.01
278.00 32.18
279.00 32.60
280.00 33.18
281.00 33.75
282.00 34.18
283.00 34.38
284.00 34.37
285.00 34.26
286.00 34.17
287.00 34.16
288.00 34.25
289.00 34.31
290.00 34.16
291.00 33.72
292.00 33.03
293.00 32.25
294.00 31.52
295.00 30.93
296.00 30.53
297.00 30.39
298.00 30.57
299.00 31.14
300.00 32.24
301.00 34.09
302.00 37.25
303.00 43.67
304.00 48.80
305.00 37.89
306.00 32.59
307.00 29.12
308.00 26.58
309.00 24.63
310.00 23.14
311.00 22.03
312.00 21.25
313.00 20.80
314.00 20.67
315.00 20.85
316.00 21.35
317.00 22.19
318.00 23.40
319.00 25.05
320.00 27.23
321.00 30.04
322.00 33.09
323.00 34.06
324.00 32.03
325.00 29.79
326.00 28.33
327.00 27.71
328.00 27.92
329.00 29.03
330.00 31.22
331.00 34.32
332.00 35.37
333.00 32.55
334.00 29.96
335.00 28.62
336.00 28.56
337.00 29.97
338.00 33.74
339.00 43.88
340.00 35.61
341.00 28.77
342.00 25.16
343.00 23.07
344.00 22.01
345.00 21.82
346.00 22.51
347.00 24.25
348.00 27.33
349.00 30.80
350.00 29.02
351.00 25.42
352.00 23.42
353.00 23.14
354.00 25.08
355.00 30.77
356.00 25.43
357.00 17.61
358.00 12.64
359.00 9.09
