NAME ATR4518R7_1950_X_CO_P45_04T_yyR
FREQUENCY 1950
GAIN 15.28 dBd
TILT	ELECTRICAL
COMMENT DATE 05.08.2013 +45 degrees polarized system Lever position 04T deg
HORIZONTAL 360
0.00 0.11
1.00 0.08
2.00 0.05
3.00 0.03
4.00 0.01
5.00 0.00
6.00 0.00
7.00 0.00
8.00 0.01
9.00 0.03
10.00 0.05
11.00 0.08
12.00 0.12
13.00 0.16
14.00 0.22
15.00 0.28
16.00 0.35
17.00 0.43
18.00 0.52
19.00 0.62
20.00 0.73
21.00 0.85
22.00 0.98
23.00 1.12
24.00 1.27
25.00 1.43
26.00 1.60
27.00 1.79
28.00 1.98
29.00 2.19
30.00 2.41
31.00 2.63
32.00 2.87
33.00 3.12
34.00 3.38
35.00 3.64
36.00 3.92
37.00 4.20
38.00 4.49
39.00 4.79
40.00 5.09
41.00 5.40
42.00 5.71
43.00 6.03
44.00 6.35
45.00 6.67
46.00 7.00
47.00 7.32
48.00 7.65
49.00 7.98
50.00 8.31
51.00 8.64
52.00 8.97
53.00 9.30
54.00 9.63
55.00 9.97
56.00 10.30
57.00 10.64
58.00 10.98
59.00 11.32
60.00 11.66
61.00 12.00
62.00 12.35
63.00 12.70
64.00 13.05
65.00 13.41
66.00 13.76
67.00 14.12
68.00 14.48
69.00 14.83
70.00 15.20
71.00 15.55
72.00 15.91
73.00 16.26
74.00 16.62
75.00 16.97
76.00 17.32
77.00 17.67
78.00 18.01
79.00 18.36
80.00 18.71
81.00 19.05
82.00 19.40
83.00 19.75
84.00 20.10
85.00 20.46
86.00 20.82
87.00 21.19
88.00 21.57
89.00 21.96
90.00 22.36
91.00 22.77
92.00 23.19
93.00 23.62
94.00 24.07
95.00 24.53
96.00 25.01
97.00 25.50
98.00 26.01
99.00 26.54
100.00 27.09
101.00 27.66
102.00 28.26
103.00 28.88
104.00 29.54
105.00 30.23
106.00 30.97
107.00 31.75
108.00 32.58
109.00 33.47
110.00 34.42
111.00 35.43
112.00 36.47
113.00 37.51
114.00 38.49
115.00 39.28
116.00 39.75
117.00 39.83
118.00 39.50
119.00 38.90
120.00 38.18
121.00 37.42
122.00 36.70
123.00 36.05
124.00 35.48
125.00 34.99
126.00 34.60
127.00 34.29
128.00 34.07
129.00 33.94
130.00 33.90
131.00 33.94
132.00 34.07
133.00 34.29
134.00 34.60
135.00 35.02
136.00 35.56
137.00 36.21
138.00 37.01
139.00 37.96
140.00 39.12
141.00 40.49
142.00 42.15
143.00 44.08
144.00 46.16
145.00 47.72
146.00 47.60
147.00 45.96
148.00 43.94
149.00 42.11
150.00 40.56
151.00 39.28
152.00 38.21
153.00 37.34
154.00 36.62
155.00 36.03
156.00 35.57
157.00 35.21
158.00 34.95
159.00 34.79
160.00 34.71
161.00 34.72
162.00 34.81
163.00 34.99
164.00 35.25
165.00 35.60
166.00 36.03
167.00 36.56
168.00 37.17
169.00 37.87
170.00 38.62
171.00 39.40
172.00 40.13
173.00 40.71
174.00 41.00
175.00 40.91
176.00 40.46
177.00 39.73
178.00 38.88
179.00 38.00
180.00 37.14
181.00 36.36
182.00 35.65
183.00 35.04
184.00 34.51
185.00 34.06
186.00 33.69
187.00 33.41
188.00 33.19
189.00 33.05
190.00 32.98
191.00 32.97
192.00 33.04
193.00 33.15
194.00 33.33
195.00 33.56
196.00 33.83
197.00 34.13
198.00 34.45
199.00 34.77
200.00 35.06
201.00 35.31
202.00 35.47
203.00 35.53
204.00 35.49
205.00 35.34
206.00 35.10
207.00 34.79
208.00 34.44
209.00 34.08
210.00 33.71
211.00 33.37
212.00 33.05
213.00 32.77
214.00 32.53
215.00 32.33
216.00 32.16
217.00 32.04
218.00 31.95
219.00 31.89
220.00 31.86
221.00 31.84
222.00 31.84
223.00 31.84
224.00 31.84
225.00 31.82
226.00 31.79
227.00 31.74
228.00 31.66
229.00 31.55
230.00 31.41
231.00 31.25
232.00 31.06
233.00 30.86
234.00 30.66
235.00 30.45
236.00 30.24
237.00 30.03
238.00 29.84
239.00 29.66
240.00 29.49
241.00 29.33
242.00 29.19
243.00 29.06
244.00 28.94
245.00 28.83
246.00 28.73
247.00 28.63
248.00 28.53
249.00 28.43
250.00 28.33
251.00 28.22
252.00 28.10
253.00 27.97
254.00 27.83
255.00 27.67
256.00 27.50
257.00 27.31
258.00 27.11
259.00 26.89
260.00 26.65
261.00 26.41
262.00 26.15
263.00 25.87
264.00 25.59
265.00 25.30
266.00 25.00
267.00 24.69
268.00 24.37
269.00 24.05
270.00 23.73
271.00 23.40
272.00 23.07
273.00 22.73
274.00 22.39
275.00 22.06
276.00 21.72
277.00 21.38
278.00 21.04
279.00 20.70
280.00 20.35
281.00 20.01
282.00 19.67
283.00 19.33
284.00 18.98
285.00 18.64
286.00 18.30
287.00 17.95
288.00 17.61
289.00 17.27
290.00 16.92
291.00 16.57
292.00 16.23
293.00 15.88
294.00 15.54
295.00 15.19
296.00 14.85
297.00 14.50
298.00 14.16
299.00 13.81
300.00 13.47
301.00 13.13
302.00 12.79
303.00 12.45
304.00 12.12
305.00 11.78
306.00 11.45
307.00 11.12
308.00 10.79
309.00 10.46
310.00 10.14
311.00 9.81
312.00 9.49
313.00 9.17
314.00 8.85
315.00 8.54
316.00 8.23
317.00 7.92
318.00 7.61
319.00 7.31
320.00 7.01
321.00 6.72
322.00 6.43
323.00 6.14
324.00 5.86
325.00 5.58
326.00 5.31
327.00 5.04
328.00 4.78
329.00 4.52
330.00 4.27
331.00 4.03
332.00 3.79
333.00 3.56
334.00 3.34
335.00 3.13
336.00 2.92
337.00 2.72
338.00 2.52
339.00 2.34
340.00 2.16
341.00 1.99
342.00 1.82
343.00 1.67
344.00 1.52
345.00 1.38
346.00 1.25
347.00 1.12
348.00 1.00
349.00 0.89
350.00 0.79
351.00 0.69
352.00 0.60
353.00 0.52
354.00 0.44
355.00 0.37
356.00 0.31
357.00 0.25
358.00 0.20
359.00 0.15
VERTICAL 360
0.00 5.97
1.00 3.24
2.00 1.41
3.00 0.35
4.00 0.00
5.00 0.36
6.00 1.51
7.00 3.60
8.00 7.03
9.00 12.97
10.00 29.21
11.00 20.06
12.00 14.97
13.00 14.53
14.00 17.04
15.00 24.07
16.00 26.86
17.00 19.05
18.00 16.20
19.00 15.80
20.00 17.33
21.00 21.42
22.00 30.66
23.00 26.39
24.00 20.22
25.00 18.23
26.00 18.63
27.00 21.46
28.00 27.82
29.00 29.96
30.00 23.93
31.00 21.16
32.00 20.20
33.00 20.36
34.00 21.47
35.00 23.52
36.00 26.04
37.00 27.53
38.00 27.42
39.00 26.98
40.00 26.53
41.00 25.78
42.00 24.97
43.00 24.59
44.00 24.91
45.00 25.94
46.00 27.57
47.00 29.80
48.00 32.71
49.00 34.75
50.00 32.47
51.00 29.05
52.00 26.91
53.00 25.98
54.00 25.95
55.00 26.47
56.00 27.28
57.00 28.34
58.00 29.71
59.00 31.39
60.00 33.29
61.00 35.29
62.00 37.08
63.00 37.65
64.00 36.31
65.00 34.32
66.00 32.78
67.00 31.80
68.00 31.18
69.00 30.66
70.00 30.15
71.00 29.73
72.00 29.53
73.00 29.55
74.00 29.64
75.00 29.59
76.00 29.30
77.00 28.88
78.00 28.50
79.00 28.26
80.00 28.19
81.00 28.19
82.00 28.13
83.00 27.96
84.00 27.78
85.00 27.73
86.00 27.91
87.00 28.32
88.00 28.90
89.00 29.61
90.00 30.55
91.00 31.89
92.00 33.52
93.00 34.66
94.00 34.48
95.00 33.68
96.00 33.26
97.00 33.58
98.00 34.67
99.00 36.40
100.00 38.55
101.00 40.71
102.00 42.40
103.00 43.34
104.00 43.80
105.00 44.26
106.00 44.82
107.00 45.48
108.00 46.67
109.00 49.20
110.00 53.67
111.00 53.63
112.00 48.29
113.00 44.86
114.00 43.08
115.00 42.45
116.00 42.76
117.00 43.87
118.00 45.37
119.00 45.68
120.00 43.69
121.00 40.99
122.00 38.62
123.00 36.59
124.00 34.76
125.00 33.11
126.00 31.76
127.00 30.92
128.00 30.78
129.00 31.47
130.00 32.91
131.00 34.69
132.00 36.30
133.00 37.94
134.00 40.26
135.00 42.54
136.00 42.17
137.00 40.27
138.00 38.87
139.00 38.16
140.00 38.19
141.00 39.18
142.00 41.23
143.00 43.18
144.00 43.01
145.00 41.76
146.00 40.18
147.00 38.08
148.00 36.50
149.00 36.41
150.00 38.25
151.00 42.03
152.00 44.57
153.00 42.03
154.00 39.06
155.00 37.20
156.00 36.59
157.00 37.19
158.00 38.77
159.00 40.89
160.00 41.85
161.00 39.60
162.00 37.29
163.00 37.15
164.00 39.61
165.00 41.89
166.00 39.24
167.00 37.38
168.00 37.79
169.00 38.92
170.00 38.82
171.00 37.92
172.00 36.52
173.00 34.52
174.00 32.98
175.00 32.64
176.00 33.69
177.00 36.15
178.00 38.41
179.00 38.15
180.00 37.62
181.00 39.22
182.00 42.46
183.00 42.94
184.00 42.72
185.00 47.67
186.00 60.37
187.00 46.32
188.00 44.32
189.00 42.58
190.00 39.23
191.00 37.92
192.00 39.81
193.00 46.38
194.00 51.11
195.00 45.54
196.00 44.76
197.00 44.99
198.00 42.54
199.00 39.16
200.00 37.08
201.00 36.66
202.00 37.72
203.00 39.76
204.00 42.76
205.00 44.98
206.00 40.26
207.00 35.92
208.00 34.04
209.00 34.01
210.00 35.41
211.00 37.70
212.00 38.94
213.00 37.12
214.00 34.67
215.00 33.14
216.00 32.56
217.00 32.68
218.00 33.26
219.00 33.97
220.00 34.48
221.00 34.56
222.00 34.03
223.00 33.29
224.00 33.12
225.00 34.11
226.00 36.61
227.00 40.82
228.00 46.01
229.00 49.60
230.00 56.30
231.00 58.43
232.00 45.90
233.00 42.40
234.00 42.67
235.00 47.64
236.00 51.56
237.00 41.85
238.00 37.48
239.00 35.48
240.00 34.82
241.00 35.16
242.00 36.44
243.00 38.75
244.00 42.14
245.00 46.39
246.00 51.01
247.00 55.94
248.00 57.40
249.00 53.55
250.00 50.25
251.00 46.94
252.00 43.09
253.00 39.65
254.00 37.33
255.00 36.23
256.00 36.20
257.00 36.85
258.00 37.44
259.00 37.24
260.00 36.45
261.00 35.66
262.00 35.01
263.00 34.28
264.00 33.28
265.00 32.19
266.00 31.34
267.00 30.92
268.00 31.00
269.00 31.50
270.00 32.24
271.00 32.67
272.00 32.23
273.00 31.20
274.00 30.21
275.00 29.58
276.00 29.43
277.00 29.95
278.00 31.19
279.00 32.95
280.00 34.34
281.00 34.14
282.00 32.93
283.00 32.37
284.00 33.32
285.00 36.36
286.00 41.94
287.00 43.14
288.00 37.92
289.00 34.40
290.00 31.99
291.00 29.83
292.00 27.65
293.00 25.69
294.00 24.32
295.00 23.71
296.00 23.93
297.00 25.02
298.00 26.94
299.00 29.50
300.00 31.99
301.00 33.14
302.00 33.35
303.00 34.29
304.00 35.38
305.00 33.38
306.00 30.19
307.00 28.22
308.00 27.39
309.00 27.22
310.00 27.18
311.00 26.92
312.00 26.30
313.00 25.36
314.00 24.19
315.00 22.98
316.00 21.96
317.00 21.33
318.00 21.15
319.00 21.37
320.00 21.71
321.00 21.65
322.00 20.84
323.00 19.65
324.00 18.65
325.00 18.20
326.00 18.41
327.00 19.15
328.00 19.94
329.00 20.09
330.00 19.70
331.00 19.55
332.00 20.25
333.00 22.39
334.00 27.60
335.00 38.67
336.00 27.55
337.00 22.42
338.00 20.92
339.00 21.81
340.00 25.55
341.00 37.77
342.00 33.35
343.00 25.95
344.00 23.95
345.00 24.57
346.00 28.51
347.00 39.25
348.00 28.04
349.00 21.58
350.00 18.97
351.00 18.66
352.00 20.64
353.00 25.39
354.00 28.04
355.00 24.74
356.00 23.99
357.00 21.92
358.00 15.38
359.00 9.87
