NAME ATR4518R7_1950_X_CO_P45_06T_yyR
FREQUENCY 1950
GAIN 15.09 dBd
TILT	ELECTRICAL
COMMENT DATE 05.08.2013 +45 degrees polarized system Lever position 06T deg
HORIZONTAL 360
0.00 0.06
1.00 0.04
2.00 0.02
3.00 0.01
4.00 0.00
5.00 0.00
6.00 0.01
7.00 0.03
8.00 0.05
9.00 0.08
10.00 0.12
11.00 0.16
12.00 0.21
13.00 0.28
14.00 0.35
15.00 0.43
16.00 0.52
17.00 0.62
18.00 0.73
19.00 0.84
20.00 0.97
21.00 1.11
22.00 1.26
23.00 1.43
24.00 1.60
25.00 1.78
26.00 1.97
27.00 2.18
28.00 2.39
29.00 2.61
30.00 2.85
31.00 3.09
32.00 3.35
33.00 3.61
34.00 3.88
35.00 4.16
36.00 4.44
37.00 4.74
38.00 5.04
39.00 5.34
40.00 5.65
41.00 5.96
42.00 6.27
43.00 6.59
44.00 6.91
45.00 7.22
46.00 7.54
47.00 7.86
48.00 8.18
49.00 8.50
50.00 8.82
51.00 9.13
52.00 9.45
53.00 9.77
54.00 10.09
55.00 10.41
56.00 10.74
57.00 11.06
58.00 11.39
59.00 11.72
60.00 12.06
61.00 12.39
62.00 12.73
63.00 13.08
64.00 13.43
65.00 13.78
66.00 14.12
67.00 14.48
68.00 14.82
69.00 15.17
70.00 15.51
71.00 15.84
72.00 16.17
73.00 16.49
74.00 16.80
75.00 17.11
76.00 17.40
77.00 17.68
78.00 17.96
79.00 18.22
80.00 18.49
81.00 18.74
82.00 19.00
83.00 19.26
84.00 19.52
85.00 19.79
86.00 20.07
87.00 20.35
88.00 20.65
89.00 20.97
90.00 21.29
91.00 21.64
92.00 22.00
93.00 22.38
94.00 22.78
95.00 23.20
96.00 23.63
97.00 24.08
98.00 24.54
99.00 25.02
100.00 25.52
101.00 26.02
102.00 26.54
103.00 27.06
104.00 27.60
105.00 28.14
106.00 28.70
107.00 29.27
108.00 29.86
109.00 30.48
110.00 31.12
111.00 31.79
112.00 32.51
113.00 33.27
114.00 34.08
115.00 34.93
116.00 35.78
117.00 36.61
118.00 37.32
119.00 37.81
120.00 37.98
121.00 37.79
122.00 37.30
123.00 36.61
124.00 35.84
125.00 35.06
126.00 34.33
127.00 33.67
128.00 33.09
129.00 32.59
130.00 32.18
131.00 31.86
132.00 31.63
133.00 31.48
134.00 31.42
135.00 31.44
136.00 31.55
137.00 31.76
138.00 32.06
139.00 32.46
140.00 32.98
141.00 33.61
142.00 34.37
143.00 35.29
144.00 36.39
145.00 37.70
146.00 39.26
147.00 41.10
148.00 43.19
149.00 45.23
150.00 46.29
151.00 45.56
152.00 43.82
153.00 42.01
154.00 40.46
155.00 39.19
156.00 38.18
157.00 37.38
158.00 36.77
159.00 36.32
160.00 36.01
161.00 35.83
162.00 35.77
163.00 35.82
164.00 35.98
165.00 36.24
166.00 36.61
167.00 37.07
168.00 37.63
169.00 38.27
170.00 38.98
171.00 39.73
172.00 40.46
173.00 41.08
174.00 41.50
175.00 41.62
176.00 41.42
177.00 40.95
178.00 40.31
179.00 39.59
180.00 38.87
181.00 38.18
182.00 37.56
183.00 37.00
184.00 36.51
185.00 36.10
186.00 35.75
187.00 35.47
188.00 35.26
189.00 35.10
190.00 35.00
191.00 34.95
192.00 34.95
193.00 34.98
194.00 35.04
195.00 35.13
196.00 35.23
197.00 35.33
198.00 35.40
199.00 35.44
200.00 35.42
201.00 35.34
202.00 35.19
203.00 34.97
204.00 34.70
205.00 34.38
206.00 34.03
207.00 33.67
208.00 33.31
209.00 32.97
210.00 32.65
211.00 32.36
212.00 32.11
213.00 31.90
214.00 31.73
215.00 31.60
216.00 31.52
217.00 31.48
218.00 31.47
219.00 31.50
220.00 31.55
221.00 31.63
222.00 31.71
223.00 31.79
224.00 31.86
225.00 31.89
226.00 31.90
227.00 31.85
228.00 31.75
229.00 31.59
230.00 31.38
231.00 31.13
232.00 30.84
233.00 30.53
234.00 30.22
235.00 29.90
236.00 29.58
237.00 29.29
238.00 29.01
239.00 28.75
240.00 28.52
241.00 28.31
242.00 28.13
243.00 27.97
244.00 27.84
245.00 27.72
246.00 27.63
247.00 27.55
248.00 27.47
249.00 27.41
250.00 27.34
251.00 27.27
252.00 27.19
253.00 27.09
254.00 26.97
255.00 26.83
256.00 26.67
257.00 26.47
258.00 26.25
259.00 26.00
260.00 25.73
261.00 25.43
262.00 25.10
263.00 24.77
264.00 24.41
265.00 24.05
266.00 23.68
267.00 23.30
268.00 22.92
269.00 22.53
270.00 22.15
271.00 21.77
272.00 21.40
273.00 21.02
274.00 20.65
275.00 20.29
276.00 19.93
277.00 19.58
278.00 19.23
279.00 18.89
280.00 18.55
281.00 18.22
282.00 17.89
283.00 17.57
284.00 17.25
285.00 16.94
286.00 16.63
287.00 16.32
288.00 16.01
289.00 15.70
290.00 15.40
291.00 15.10
292.00 14.79
293.00 14.49
294.00 14.18
295.00 13.88
296.00 13.58
297.00 13.28
298.00 12.97
299.00 12.67
300.00 12.37
301.00 12.06
302.00 11.76
303.00 11.45
304.00 11.15
305.00 10.85
306.00 10.54
307.00 10.24
308.00 9.93
309.00 9.63
310.00 9.33
311.00 9.02
312.00 8.72
313.00 8.42
314.00 8.12
315.00 7.82
316.00 7.53
317.00 7.23
318.00 6.94
319.00 6.65
320.00 6.36
321.00 6.08
322.00 5.80
323.00 5.53
324.00 5.26
325.00 4.99
326.00 4.73
327.00 4.48
328.00 4.23
329.00 3.99
330.00 3.76
331.00 3.53
332.00 3.31
333.00 3.09
334.00 2.89
335.00 2.69
336.00 2.50
337.00 2.32
338.00 2.14
339.00 1.97
340.00 1.81
341.00 1.66
342.00 1.52
343.00 1.38
344.00 1.25
345.00 1.13
346.00 1.01
347.00 0.91
348.00 0.80
349.00 0.71
350.00 0.62
351.00 0.54
352.00 0.46
353.00 0.39
354.00 0.33
355.00 0.27
356.00 0.22
357.00 0.17
358.00 0.13
359.00 0.09
VERTICAL 360
0.00 14.22
1.00 9.60
2.00 6.00
3.00 3.32
4.00 1.46
5.00 0.37
6.00 0.00
7.00 0.38
8.00 1.55
9.00 3.68
10.00 7.14
11.00 13.16
12.00 26.10
13.00 19.22
14.00 14.72
15.00 14.43
16.00 17.00
17.00 24.16
18.00 28.85
19.00 19.61
20.00 16.47
21.00 15.87
22.00 17.27
23.00 21.36
24.00 29.18
25.00 24.27
26.00 19.30
27.00 17.67
28.00 18.05
29.00 20.18
30.00 24.66
31.00 32.64
32.00 29.27
33.00 23.93
34.00 21.75
35.00 21.25
36.00 21.89
37.00 23.49
38.00 25.96
39.00 29.23
40.00 32.92
41.00 34.64
42.00 32.33
43.00 30.01
44.00 29.23
45.00 29.83
46.00 31.03
47.00 31.48
48.00 31.10
49.00 31.18
50.00 32.14
51.00 32.86
52.00 31.78
53.00 29.85
54.00 28.24
55.00 27.23
56.00 26.87
57.00 27.12
58.00 27.74
59.00 28.35
60.00 28.76
61.00 29.21
62.00 30.12
63.00 31.67
64.00 33.56
65.00 34.89
66.00 35.04
67.00 34.51
68.00 33.84
69.00 33.14
70.00 32.49
71.00 32.11
72.00 32.08
73.00 32.19
74.00 32.11
75.00 31.77
76.00 31.43
77.00 31.37
78.00 31.66
79.00 31.96
80.00 31.70
81.00 30.68
82.00 29.31
83.00 28.11
84.00 27.38
85.00 27.26
86.00 27.76
87.00 28.68
88.00 29.57
89.00 30.34
90.00 31.74
91.00 34.84
92.00 39.43
93.00 38.98
94.00 35.54
95.00 33.34
96.00 32.07
97.00 31.91
98.00 33.20
99.00 36.05
100.00 40.00
101.00 43.26
102.00 43.76
103.00 42.95
104.00 43.52
105.00 47.38
106.00 59.30
107.00 53.27
108.00 48.64
109.00 48.96
110.00 52.78
111.00 55.89
112.00 48.55
113.00 44.13
114.00 42.17
115.00 41.84
116.00 42.81
117.00 45.08
118.00 48.99
119.00 52.23
120.00 48.48
121.00 44.36
122.00 41.31
123.00 38.63
124.00 36.14
125.00 33.99
126.00 32.40
127.00 31.54
128.00 31.57
129.00 32.51
130.00 34.20
131.00 36.26
132.00 38.54
133.00 41.27
134.00 43.52
135.00 43.17
136.00 42.03
137.00 41.55
138.00 41.30
139.00 41.17
140.00 41.76
141.00 43.20
142.00 43.97
143.00 42.50
144.00 40.66
145.00 39.56
146.00 39.02
147.00 38.83
148.00 39.28
149.00 40.81
150.00 43.31
151.00 44.95
152.00 43.87
153.00 41.28
154.00 38.32
155.00 35.96
156.00 34.74
157.00 34.80
158.00 36.25
159.00 39.35
160.00 44.41
161.00 47.61
162.00 44.68
163.00 42.42
164.00 40.97
165.00 39.97
166.00 39.90
167.00 40.72
168.00 40.83
169.00 39.53
170.00 38.41
171.00 37.60
172.00 36.54
173.00 35.83
174.00 36.29
175.00 38.39
176.00 41.78
177.00 44.21
178.00 42.07
179.00 39.82
180.00 39.99
181.00 42.74
182.00 44.59
183.00 43.05
184.00 44.71
185.00 54.31
186.00 47.94
187.00 43.07
188.00 42.83
189.00 42.84
190.00 42.27
191.00 45.04
192.00 56.20
193.00 43.72
194.00 38.84
195.00 37.56
196.00 37.68
197.00 37.82
198.00 37.46
199.00 36.66
200.00 35.92
201.00 35.86
202.00 36.67
203.00 38.06
204.00 39.84
205.00 41.39
206.00 39.90
207.00 36.92
208.00 35.23
209.00 34.95
210.00 35.54
211.00 36.01
212.00 35.42
213.00 34.04
214.00 32.76
215.00 32.02
216.00 31.87
217.00 32.19
218.00 32.81
219.00 33.53
220.00 34.19
221.00 34.62
222.00 34.83
223.00 35.06
224.00 35.69
225.00 37.02
226.00 39.28
227.00 42.76
228.00 48.72
229.00 58.69
230.00 48.90
231.00 44.04
232.00 42.37
233.00 42.81
234.00 44.33
235.00 42.77
236.00 38.47
237.00 35.17
238.00 33.26
239.00 32.60
240.00 33.12
241.00 34.82
242.00 37.76
243.00 41.98
244.00 47.47
245.00 53.22
246.00 53.45
247.00 50.49
248.00 48.99
249.00 48.97
250.00 49.50
251.00 47.89
252.00 44.61
253.00 42.23
254.00 41.16
255.00 41.01
256.00 41.21
257.00 41.19
258.00 40.60
259.00 39.64
260.00 38.78
261.00 38.19
262.00 37.68
263.00 37.19
264.00 36.82
265.00 36.51
266.00 36.03
267.00 35.40
268.00 34.85
269.00 34.61
270.00 34.75
271.00 34.82
272.00 34.00
273.00 32.56
274.00 31.39
275.00 30.69
276.00 30.26
277.00 30.10
278.00 30.32
279.00 30.70
280.00 30.61
281.00 29.74
282.00 28.47
283.00 27.40
284.00 26.96
285.00 27.33
286.00 28.46
287.00 30.03
288.00 31.54
289.00 32.95
290.00 35.32
291.00 41.86
292.00 43.62
293.00 33.15
294.00 28.66
295.00 26.41
296.00 25.45
297.00 25.28
298.00 25.52
299.00 25.87
300.00 26.12
301.00 26.28
302.00 26.62
303.00 27.67
304.00 30.01
305.00 34.57
306.00 43.55
307.00 41.51
308.00 34.72
309.00 31.08
310.00 28.55
311.00 26.79
312.00 25.85
313.00 25.79
314.00 26.41
315.00 26.87
316.00 25.95
317.00 23.89
318.00 21.82
319.00 20.28
320.00 19.47
321.00 19.47
322.00 20.28
323.00 21.31
324.00 20.88
325.00 18.73
326.00 16.63
327.00 15.39
328.00 15.12
329.00 15.76
330.00 17.28
331.00 19.44
332.00 21.54
333.00 22.48
334.00 22.68
335.00 23.71
336.00 27.13
337.00 38.97
338.00 32.22
339.00 24.74
340.00 22.21
341.00 22.17
342.00 24.57
343.00 31.75
344.00 41.69
345.00 27.30
346.00 23.65
347.00 23.07
348.00 25.40
349.00 31.43
350.00 27.23
351.00 21.24
352.00 18.75
353.00 18.48
354.00 20.17
355.00 24.14
356.00 30.25
357.00 29.83
358.00 25.01
359.00 19.70
