NAME ATR4518R7_0947_X_CO_P45_01T
FREQUENCY 0947
GAIN 14.85 dBd
TILT	ELECTRICAL
COMMENT DATE 05.08.2013 +45 degrees polarized system Lever position 01T deg
HORIZONTAL 360
0.00 0.02
1.00 0.01
2.00 0.00
3.00 0.00
4.00 0.01
5.00 0.02
6.00 0.05
7.00 0.07
8.00 0.11
9.00 0.15
10.00 0.20
11.00 0.25
12.00 0.32
13.00 0.38
14.00 0.46
15.00 0.54
16.00 0.63
17.00 0.72
18.00 0.83
19.00 0.94
20.00 1.05
21.00 1.17
22.00 1.30
23.00 1.44
24.00 1.58
25.00 1.73
26.00 1.88
27.00 2.04
28.00 2.21
29.00 2.39
30.00 2.57
31.00 2.76
32.00 2.95
33.00 3.15
34.00 3.36
35.00 3.57
36.00 3.79
37.00 4.01
38.00 4.24
39.00 4.48
40.00 4.73
41.00 4.98
42.00 5.23
43.00 5.49
44.00 5.76
45.00 6.04
46.00 6.32
47.00 6.60
48.00 6.90
49.00 7.19
50.00 7.50
51.00 7.81
52.00 8.13
53.00 8.45
54.00 8.78
55.00 9.12
56.00 9.45
57.00 9.80
58.00 10.16
59.00 10.52
60.00 10.88
61.00 11.26
62.00 11.64
63.00 12.03
64.00 12.42
65.00 12.82
66.00 13.23
67.00 13.64
68.00 14.07
69.00 14.50
70.00 14.94
71.00 15.38
72.00 15.84
73.00 16.30
74.00 16.77
75.00 17.25
76.00 17.74
77.00 18.24
78.00 18.75
79.00 19.27
80.00 19.80
81.00 20.34
82.00 20.88
83.00 21.44
84.00 22.01
85.00 22.60
86.00 23.19
87.00 23.79
88.00 24.41
89.00 25.04
90.00 25.69
91.00 26.35
92.00 27.02
93.00 27.71
94.00 28.41
95.00 29.13
96.00 29.87
97.00 30.62
98.00 31.39
99.00 32.17
100.00 32.97
101.00 33.77
102.00 34.59
103.00 35.39
104.00 36.17
105.00 36.90
106.00 37.58
107.00 38.14
108.00 38.57
109.00 38.85
110.00 38.97
111.00 38.91
112.00 38.72
113.00 38.42
114.00 38.06
115.00 37.65
116.00 37.22
117.00 36.78
118.00 36.36
119.00 35.95
120.00 35.56
121.00 35.19
122.00 34.84
123.00 34.52
124.00 34.22
125.00 33.95
126.00 33.71
127.00 33.50
128.00 33.30
129.00 33.12
130.00 32.98
131.00 32.85
132.00 32.75
133.00 32.67
134.00 32.61
135.00 32.58
136.00 32.56
137.00 32.58
138.00 32.61
139.00 32.67
140.00 32.76
141.00 32.87
142.00 33.00
143.00 33.16
144.00 33.35
145.00 33.56
146.00 33.81
147.00 34.08
148.00 34.39
149.00 34.72
150.00 35.09
151.00 35.50
152.00 35.94
153.00 36.41
154.00 36.92
155.00 37.45
156.00 38.01
157.00 38.59
158.00 39.17
159.00 39.74
160.00 40.25
161.00 40.69
162.00 41.02
163.00 41.20
164.00 41.21
165.00 41.07
166.00 40.79
167.00 40.41
168.00 39.96
169.00 39.49
170.00 39.00
171.00 38.53
172.00 38.09
173.00 37.68
174.00 37.30
175.00 36.97
176.00 36.68
177.00 36.43
178.00 36.23
179.00 36.07
180.00 35.96
181.00 35.89
182.00 35.87
183.00 35.89
184.00 35.96
185.00 36.08
186.00 36.25
187.00 36.47
188.00 36.75
189.00 37.09
190.00 37.49
191.00 37.96
192.00 38.50
193.00 39.13
194.00 39.87
195.00 40.70
196.00 41.65
197.00 42.72
198.00 43.92
199.00 45.22
200.00 46.51
201.00 47.53
202.00 47.94
203.00 47.51
204.00 46.45
205.00 45.13
206.00 43.78
207.00 42.54
208.00 41.43
209.00 40.45
210.00 39.58
211.00 38.82
212.00 38.15
213.00 37.57
214.00 37.08
215.00 36.64
216.00 36.29
217.00 35.99
218.00 35.75
219.00 35.57
220.00 35.44
221.00 35.37
222.00 35.36
223.00 35.40
224.00 35.49
225.00 35.64
226.00 35.85
227.00 36.12
228.00 36.46
229.00 36.86
230.00 37.33
231.00 37.89
232.00 38.52
233.00 39.24
234.00 40.05
235.00 40.92
236.00 41.83
237.00 42.69
238.00 43.36
239.00 43.68
240.00 43.48
241.00 42.80
242.00 41.81
243.00 40.69
244.00 39.55
245.00 38.45
246.00 37.41
247.00 36.46
248.00 35.58
249.00 34.78
250.00 34.03
251.00 33.34
252.00 32.70
253.00 32.11
254.00 31.56
255.00 31.03
256.00 30.55
257.00 30.08
258.00 29.63
259.00 29.21
260.00 28.79
261.00 28.39
262.00 27.99
263.00 27.59
264.00 27.20
265.00 26.80
266.00 26.40
267.00 26.00
268.00 25.59
269.00 25.18
270.00 24.76
271.00 24.33
272.00 23.89
273.00 23.45
274.00 23.01
275.00 22.56
276.00 22.10
277.00 21.65
278.00 21.19
279.00 20.73
280.00 20.28
281.00 19.82
282.00 19.37
283.00 18.92
284.00 18.47
285.00 18.03
286.00 17.60
287.00 17.16
288.00 16.74
289.00 16.31
290.00 15.90
291.00 15.49
292.00 15.08
293.00 14.68
294.00 14.28
295.00 13.89
296.00 13.51
297.00 13.13
298.00 12.76
299.00 12.39
300.00 12.03
301.00 11.67
302.00 11.32
303.00 10.97
304.00 10.63
305.00 10.29
306.00 9.96
307.00 9.63
308.00 9.31
309.00 8.99
310.00 8.67
311.00 8.36
312.00 8.06
313.00 7.76
314.00 7.47
315.00 7.18
316.00 6.89
317.00 6.61
318.00 6.34
319.00 6.07
320.00 5.80
321.00 5.54
322.00 5.29
323.00 5.04
324.00 4.79
325.00 4.56
326.00 4.32
327.00 4.09
328.00 3.87
329.00 3.66
330.00 3.44
331.00 3.24
332.00 3.04
333.00 2.85
334.00 2.66
335.00 2.48
336.00 2.30
337.00 2.14
338.00 1.97
339.00 1.82
340.00 1.67
341.00 1.52
342.00 1.38
343.00 1.25
344.00 1.13
345.00 1.01
346.00 0.90
347.00 0.79
348.00 0.69
349.00 0.60
350.00 0.51
351.00 0.44
352.00 0.36
353.00 0.30
354.00 0.24
355.00 0.18
356.00 0.14
357.00 0.10
358.00 0.07
359.00 0.04
VERTICAL 360
0.00 0.21
1.00 0.00
2.00 0.18
3.00 0.76
4.00 1.76
5.00 3.23
6.00 5.27
7.00 8.02
8.00 11.65
9.00 16.41
10.00 22.09
11.00 25.38
12.00 25.37
13.00 26.68
14.00 31.96
15.00 39.44
16.00 26.91
17.00 22.15
18.00 19.96
19.00 19.32
20.00 19.97
21.00 21.93
22.00 25.85
23.00 34.78
24.00 32.44
25.00 25.07
26.00 22.02
27.00 21.13
28.00 21.95
29.00 24.31
30.00 26.31
31.00 23.90
32.00 20.36
33.00 17.57
34.00 15.43
35.00 13.83
36.00 12.76
37.00 12.23
38.00 12.21
39.00 12.60
40.00 13.30
41.00 14.25
42.00 15.44
43.00 16.97
44.00 18.94
45.00 21.49
46.00 24.76
47.00 29.18
48.00 36.06
49.00 52.75
50.00 41.18
51.00 37.73
52.00 37.11
53.00 36.47
54.00 34.95
55.00 33.72
56.00 33.66
57.00 34.89
58.00 36.82
59.00 38.04
60.00 37.56
61.00 36.64
62.00 36.91
63.00 38.52
64.00 39.72
65.00 39.14
66.00 36.90
67.00 34.48
68.00 33.70
69.00 34.31
70.00 34.39
71.00 34.14
72.00 35.61
73.00 39.67
74.00 48.55
75.00 44.19
76.00 35.98
77.00 32.46
78.00 30.87
79.00 30.01
80.00 30.17
81.00 32.16
82.00 33.59
83.00 30.40
84.00 27.75
85.00 26.75
86.00 27.27
87.00 29.59
88.00 33.74
89.00 35.04
90.00 32.77
91.00 31.39
92.00 30.95
93.00 31.94
94.00 35.29
95.00 42.49
96.00 62.97
97.00 50.24
98.00 45.92
99.00 41.12
100.00 36.52
101.00 33.95
102.00 33.44
103.00 34.34
104.00 36.01
105.00 37.94
106.00 36.71
107.00 33.87
108.00 32.82
109.00 33.54
110.00 35.32
111.00 36.84
112.00 35.73
113.00 33.71
114.00 33.23
115.00 34.53
116.00 37.48
117.00 42.68
118.00 43.88
119.00 40.06
120.00 40.77
121.00 49.44
122.00 46.13
123.00 39.07
124.00 36.33
125.00 35.05
126.00 34.80
127.00 34.84
128.00 34.17
129.00 33.51
130.00 33.90
131.00 35.74
132.00 39.76
133.00 49.28
134.00 48.06
135.00 41.17
136.00 37.87
137.00 35.19
138.00 32.86
139.00 31.26
140.00 30.65
141.00 31.00
142.00 32.08
143.00 33.37
144.00 34.42
145.00 35.38
146.00 36.79
147.00 38.80
148.00 39.99
149.00 39.15
150.00 37.74
151.00 36.76
152.00 36.50
153.00 37.12
154.00 38.66
155.00 40.81
156.00 42.39
157.00 43.48
158.00 47.43
159.00 57.43
160.00 44.15
161.00 39.31
162.00 36.92
163.00 35.35
164.00 34.16
165.00 33.45
166.00 33.38
167.00 33.89
168.00 34.70
169.00 35.57
170.00 36.71
171.00 38.82
172.00 43.67
173.00 66.97
174.00 44.21
175.00 38.93
176.00 36.94
177.00 36.27
178.00 36.45
179.00 35.88
180.00 34.08
181.00 32.30
182.00 31.58
183.00 31.51
184.00 31.56
185.00 31.60
186.00 32.07
187.00 32.61
188.00 34.43
189.00 37.38
190.00 40.29
191.00 41.47
192.00 41.33
193.00 41.12
194.00 40.57
195.00 39.40
196.00 38.12
197.00 36.67
198.00 35.47
199.00 35.45
200.00 37.20
201.00 40.49
202.00 41.97
203.00 39.91
204.00 37.87
205.00 36.01
206.00 34.20
207.00 33.11
208.00 33.36
209.00 35.21
210.00 38.54
211.00 41.15
212.00 40.36
213.00 38.99
214.00 37.52
215.00 35.57
216.00 33.98
217.00 33.35
218.00 33.60
219.00 34.33
220.00 35.16
221.00 36.17
222.00 37.89
223.00 40.75
224.00 44.19
225.00 46.71
226.00 49.63
227.00 54.46
228.00 47.95
229.00 43.04
230.00 41.51
231.00 42.49
232.00 44.80
233.00 45.15
234.00 41.82
235.00 38.26
236.00 36.55
237.00 37.12
238.00 40.02
239.00 44.76
240.00 47.38
241.00 44.27
242.00 41.23
243.00 40.17
244.00 41.05
245.00 44.48
246.00 56.34
247.00 50.60
248.00 46.50
249.00 54.52
250.00 45.73
251.00 37.35
252.00 34.04
253.00 33.34
254.00 34.52
255.00 35.06
256.00 32.32
257.00 29.75
258.00 28.57
259.00 28.56
260.00 29.49
261.00 30.46
262.00 29.74
263.00 28.09
264.00 27.13
265.00 27.15
266.00 27.97
267.00 28.96
268.00 29.12
269.00 28.43
270.00 27.76
271.00 27.37
272.00 27.06
273.00 26.61
274.00 26.19
275.00 26.22
276.00 26.96
277.00 28.23
278.00 29.32
279.00 29.16
280.00 28.00
281.00 27.27
282.00 27.61
283.00 28.96
284.00 30.89
285.00 32.22
286.00 31.58
287.00 30.40
288.00 30.06
289.00 30.64
290.00 32.23
291.00 35.17
292.00 37.54
293.00 36.11
294.00 34.81
295.00 35.06
296.00 37.23
297.00 42.11
298.00 40.75
299.00 36.34
300.00 35.09
301.00 35.54
302.00 35.19
303.00 32.89
304.00 30.53
305.00 29.19
306.00 29.02
307.00 29.91
308.00 31.62
309.00 33.00
310.00 31.62
311.00 28.31
312.00 25.32
313.00 23.15
314.00 21.63
315.00 20.36
316.00 19.06
317.00 17.81
318.00 16.86
319.00 16.44
320.00 16.64
321.00 17.34
322.00 18.26
323.00 19.01
324.00 19.56
325.00 20.31
326.00 21.73
327.00 24.07
328.00 27.23
329.00 30.37
330.00 32.06
331.00 32.56
332.00 33.39
333.00 35.50
334.00 37.61
335.00 34.47
336.00 30.12
337.00 26.96
338.00 24.63
339.00 22.76
340.00 21.35
341.00 20.61
342.00 20.71
343.00 21.86
344.00 24.45
345.00 29.35
346.00 33.04
347.00 27.04
348.00 23.22
349.00 21.57
350.00 21.60
351.00 22.73
352.00 21.42
353.00 16.51
354.00 11.94
355.00 8.37
356.00 5.61
357.00 3.48
358.00 1.92
359.00 0.84
