NAME ATR4518R7_2535_X_CO_P45_09T_yyR
FREQUENCY 2535
GAIN 15.12 dBd
TILT	ELECTRICAL
COMMENT DATE 05.08.2013 +45 degrees polarized system Lever position 09T deg
HORIZONTAL 360
0.00 0.02
1.00 0.04
2.00 0.08
3.00 0.13
4.00 0.19
5.00 0.25
6.00 0.33
7.00 0.41
8.00 0.50
9.00 0.59
10.00 0.69
11.00 0.79
12.00 0.89
13.00 0.98
14.00 1.08
15.00 1.18
16.00 1.27
17.00 1.36
18.00 1.45
19.00 1.53
20.00 1.61
21.00 1.70
22.00 1.78
23.00 1.87
24.00 1.95
25.00 2.05
26.00 2.15
27.00 2.26
28.00 2.37
29.00 2.50
30.00 2.64
31.00 2.80
32.00 2.97
33.00 3.15
34.00 3.35
35.00 3.57
36.00 3.80
37.00 4.05
38.00 4.32
39.00 4.61
40.00 4.91
41.00 5.22
42.00 5.56
43.00 5.90
44.00 6.26
45.00 6.63
46.00 7.01
47.00 7.39
48.00 7.79
49.00 8.18
50.00 8.59
51.00 8.99
52.00 9.39
53.00 9.80
54.00 10.20
55.00 10.59
56.00 10.99
57.00 11.38
58.00 11.76
59.00 12.14
60.00 12.52
61.00 12.90
62.00 13.28
63.00 13.66
64.00 14.03
65.00 14.42
66.00 14.80
67.00 15.19
68.00 15.59
69.00 15.99
70.00 16.41
71.00 16.83
72.00 17.26
73.00 17.71
74.00 18.17
75.00 18.64
76.00 19.12
77.00 19.62
78.00 20.13
79.00 20.66
80.00 21.19
81.00 21.73
82.00 22.27
83.00 22.81
84.00 23.35
85.00 23.87
86.00 24.37
87.00 24.83
88.00 25.27
89.00 25.67
90.00 26.04
91.00 26.37
92.00 26.68
93.00 26.97
94.00 27.26
95.00 27.55
96.00 27.84
97.00 28.16
98.00 28.50
99.00 28.87
100.00 29.26
101.00 29.67
102.00 30.09
103.00 30.51
104.00 30.91
105.00 31.28
106.00 31.59
107.00 31.84
108.00 32.03
109.00 32.16
110.00 32.25
111.00 32.33
112.00 32.41
113.00 32.53
114.00 32.71
115.00 32.97
116.00 33.34
117.00 33.83
118.00 34.46
119.00 35.28
120.00 36.30
121.00 37.59
122.00 39.21
123.00 41.32
124.00 44.16
125.00 48.31
126.00 55.32
127.00 57.08
128.00 50.07
129.00 46.20
130.00 43.83
131.00 42.29
132.00 41.30
133.00 40.72
134.00 40.48
135.00 40.55
136.00 40.92
137.00 41.60
138.00 42.62
139.00 44.07
140.00 46.07
141.00 48.91
142.00 53.32
143.00 62.48
144.00 64.43
145.00 54.88
146.00 50.95
147.00 48.76
148.00 47.50
149.00 46.91
150.00 46.87
151.00 47.36
152.00 48.38
153.00 49.90
154.00 51.51
155.00 51.66
156.00 49.52
157.00 46.69
158.00 44.16
159.00 42.07
160.00 40.37
161.00 38.99
162.00 37.87
163.00 36.98
164.00 36.28
165.00 35.76
166.00 35.39
167.00 35.16
168.00 35.07
169.00 35.10
170.00 35.24
171.00 35.50
172.00 35.86
173.00 36.31
174.00 36.86
175.00 37.50
176.00 38.24
177.00 39.08
178.00 40.03
179.00 41.11
180.00 42.34
181.00 43.71
182.00 45.09
183.00 46.07
184.00 45.96
185.00 44.62
186.00 42.68
187.00 40.69
188.00 38.88
189.00 37.29
190.00 35.91
191.00 34.74
192.00 33.74
193.00 32.90
194.00 32.22
195.00 31.68
196.00 31.27
197.00 30.98
198.00 30.83
199.00 30.79
200.00 30.87
201.00 31.05
202.00 31.33
203.00 31.68
204.00 32.07
205.00 32.45
206.00 32.74
207.00 32.88
208.00 32.80
209.00 32.51
210.00 32.04
211.00 31.46
212.00 30.85
213.00 30.26
214.00 29.74
215.00 29.30
216.00 28.96
217.00 28.73
218.00 28.61
219.00 28.60
220.00 28.71
221.00 28.94
222.00 29.29
223.00 29.78
224.00 30.40
225.00 31.15
226.00 32.05
227.00 33.09
228.00 34.24
229.00 35.47
230.00 36.65
231.00 37.60
232.00 38.12
233.00 38.14
234.00 37.76
235.00 37.20
236.00 36.63
237.00 36.17
238.00 35.84
239.00 35.66
240.00 35.64
241.00 35.78
242.00 36.08
243.00 36.52
244.00 37.11
245.00 37.85
246.00 38.72
247.00 39.70
248.00 40.77
249.00 41.89
250.00 43.02
251.00 44.10
252.00 45.10
253.00 46.07
254.00 47.07
255.00 48.19
256.00 49.42
257.00 50.49
258.00 50.48
259.00 48.83
260.00 46.29
261.00 43.73
262.00 41.44
263.00 39.43
264.00 37.67
265.00 36.13
266.00 34.77
267.00 33.57
268.00 32.49
269.00 31.52
270.00 30.64
271.00 29.84
272.00 29.10
273.00 28.41
274.00 27.77
275.00 27.15
276.00 26.55
277.00 25.96
278.00 25.39
279.00 24.81
280.00 24.24
281.00 23.66
282.00 23.07
283.00 22.49
284.00 21.90
285.00 21.30
286.00 20.71
287.00 20.11
288.00 19.52
289.00 18.93
290.00 18.34
291.00 17.76
292.00 17.19
293.00 16.62
294.00 16.06
295.00 15.50
296.00 14.95
297.00 14.41
298.00 13.88
299.00 13.35
300.00 12.84
301.00 12.33
302.00 11.83
303.00 11.34
304.00 10.86
305.00 10.39
306.00 9.92
307.00 9.47
308.00 9.03
309.00 8.60
310.00 8.19
311.00 7.78
312.00 7.39
313.00 7.01
314.00 6.64
315.00 6.29
316.00 5.95
317.00 5.63
318.00 5.32
319.00 5.02
320.00 4.74
321.00 4.47
322.00 4.21
323.00 3.97
324.00 3.74
325.00 3.52
326.00 3.32
327.00 3.12
328.00 2.94
329.00 2.77
330.00 2.61
331.00 2.46
332.00 2.32
333.00 2.18
334.00 2.05
335.00 1.93
336.00 1.81
337.00 1.70
338.00 1.58
339.00 1.47
340.00 1.36
341.00 1.26
342.00 1.15
343.00 1.05
344.00 0.94
345.00 0.84
346.00 0.74
347.00 0.64
348.00 0.55
349.00 0.46
350.00 0.37
351.00 0.30
352.00 0.22
353.00 0.16
354.00 0.11
355.00 0.07
356.00 0.03
357.00 0.01
358.00 0.00
359.00 0.01
VERTICAL 360
0.00 18.25
1.00 17.97
2.00 17.44
3.00 15.42
4.00 11.78
5.00 7.81
6.00 4.43
7.00 1.96
8.00 0.48
9.00 0.00
10.00 0.60
11.00 2.46
12.00 6.14
13.00 13.71
14.00 30.27
15.00 14.26
16.00 11.82
17.00 12.88
18.00 17.44
19.00 26.70
20.00 19.58
21.00 15.76
22.00 16.03
23.00 19.95
24.00 28.45
25.00 25.20
26.00 21.81
27.00 22.84
28.00 28.90
29.00 34.01
30.00 23.91
31.00 20.47
32.00 19.75
33.00 21.03
34.00 24.34
35.00 27.94
36.00 25.59
37.00 23.22
38.00 23.98
39.00 28.89
40.00 34.04
41.00 27.71
42.00 25.37
43.00 25.21
44.00 25.91
45.00 28.02
46.00 33.35
47.00 31.71
48.00 25.99
49.00 24.50
50.00 26.01
51.00 29.88
52.00 34.00
53.00 36.92
54.00 39.54
55.00 31.01
56.00 25.62
57.00 23.60
58.00 23.85
59.00 25.21
60.00 26.12
61.00 26.65
62.00 27.75
63.00 29.23
64.00 29.82
65.00 29.45
66.00 29.74
67.00 31.36
68.00 33.57
69.00 34.95
70.00 35.19
71.00 35.68
72.00 37.86
73.00 41.29
74.00 43.32
75.00 41.64
76.00 36.78
77.00 34.12
78.00 34.40
79.00 36.27
80.00 35.07
81.00 32.02
82.00 29.89
83.00 28.47
84.00 27.71
85.00 27.43
86.00 27.37
87.00 28.41
88.00 32.56
89.00 43.21
90.00 39.79
91.00 36.11
92.00 31.48
93.00 28.14
94.00 28.07
95.00 31.10
96.00 35.72
97.00 35.82
98.00 31.49
99.00 28.94
100.00 29.57
101.00 33.01
102.00 35.16
103.00 36.39
104.00 44.23
105.00 42.41
106.00 38.23
107.00 40.81
108.00 48.98
109.00 58.81
110.00 44.80
111.00 40.98
112.00 39.98
113.00 38.54
114.00 37.81
115.00 37.68
116.00 36.02
117.00 34.89
118.00 35.78
119.00 37.60
120.00 36.46
121.00 34.01
122.00 33.85
123.00 36.38
124.00 38.85
125.00 37.67
126.00 35.52
127.00 34.03
128.00 34.81
129.00 37.85
130.00 40.27
131.00 44.58
132.00 41.61
133.00 35.80
134.00 36.09
135.00 38.48
136.00 35.17
137.00 33.62
138.00 35.35
139.00 38.58
140.00 43.50
141.00 55.46
142.00 42.92
143.00 39.85
144.00 39.06
145.00 38.42
146.00 38.79
147.00 39.61
148.00 38.86
149.00 36.65
150.00 35.27
151.00 35.89
152.00 37.80
153.00 38.86
154.00 40.15
155.00 43.81
156.00 51.05
157.00 56.76
158.00 42.73
159.00 38.84
160.00 38.27
161.00 38.27
162.00 38.52
163.00 42.63
164.00 51.19
165.00 41.58
166.00 40.84
167.00 46.38
168.00 46.52
169.00 42.05
170.00 40.56
171.00 40.55
172.00 42.30
173.00 40.76
174.00 37.90
175.00 37.82
176.00 39.66
177.00 41.16
178.00 40.39
179.00 39.00
180.00 39.00
181.00 38.48
182.00 36.80
183.00 37.18
184.00 41.11
185.00 45.93
186.00 41.92
187.00 38.78
188.00 37.41
189.00 36.85
190.00 36.15
191.00 34.20
192.00 31.56
193.00 30.08
194.00 30.71
195.00 34.24
196.00 40.49
197.00 38.72
198.00 36.39
199.00 37.19
200.00 38.38
201.00 39.41
202.00 43.38
203.00 48.14
204.00 44.31
205.00 42.87
206.00 42.64
207.00 42.52
208.00 42.50
209.00 43.17
210.00 45.59
211.00 48.68
212.00 47.45
213.00 43.55
214.00 43.62
215.00 51.66
216.00 44.29
217.00 39.32
218.00 39.76
219.00 41.59
220.00 40.59
221.00 38.74
222.00 37.29
223.00 37.27
224.00 38.74
225.00 39.08
226.00 36.34
227.00 33.37
228.00 32.04
229.00 32.60
230.00 34.18
231.00 35.24
232.00 35.41
233.00 35.42
234.00 35.80
235.00 35.97
236.00 35.24
237.00 35.07
238.00 36.59
239.00 39.85
240.00 43.53
241.00 43.63
242.00 43.56
243.00 45.89
244.00 43.23
245.00 40.22
246.00 40.94
247.00 42.00
248.00 38.82
249.00 37.18
250.00 38.51
251.00 42.24
252.00 46.04
253.00 42.57
254.00 38.19
255.00 37.91
256.00 43.75
257.00 46.03
258.00 38.81
259.00 38.44
260.00 41.67
261.00 45.39
262.00 43.66
263.00 39.38
264.00 37.18
265.00 36.92
266.00 38.41
267.00 42.43
268.00 43.32
269.00 40.37
270.00 42.36
271.00 44.16
272.00 37.74
273.00 33.95
274.00 32.17
275.00 32.14
276.00 33.53
277.00 35.04
278.00 35.50
279.00 34.57
280.00 33.53
281.00 34.32
282.00 36.82
283.00 37.47
284.00 34.04
285.00 30.22
286.00 28.01
287.00 27.41
288.00 27.87
289.00 28.88
290.00 30.35
291.00 32.15
292.00 33.46
293.00 33.15
294.00 32.59
295.00 34.06
296.00 38.37
297.00 39.18
298.00 34.25
299.00 29.69
300.00 25.64
301.00 22.36
302.00 19.74
303.00 17.37
304.00 15.19
305.00 13.30
306.00 11.84
307.00 10.86
308.00 10.34
309.00 10.29
310.00 10.73
311.00 11.73
312.00 13.43
313.00 16.07
314.00 19.93
315.00 23.29
316.00 20.79
317.00 18.20
318.00 17.81
319.00 19.44
320.00 23.50
321.00 30.43
322.00 27.38
323.00 23.01
324.00 22.39
325.00 24.89
326.00 28.52
327.00 25.26
328.00 21.97
329.00 21.31
330.00 23.48
331.00 33.03
332.00 30.18
333.00 20.97
334.00 17.89
335.00 18.06
336.00 23.16
337.00 29.43
338.00 18.60
339.00 14.07
340.00 11.88
341.00 11.22
342.00 11.89
343.00 13.97
344.00 17.87
345.00 25.16
346.00 38.10
347.00 26.58
348.00 24.91
349.00 25.39
350.00 25.95
351.00 26.73
352.00 28.46
353.00 31.16
354.00 33.89
355.00 36.44
356.00 32.21
357.00 25.34
358.00 21.28
359.00 19.15
