NAME ATR4518R7_0880_X_CO_M45_04T
FREQUENCY 0880
GAIN 14.77 dBd
TILT	ELECTRICAL
COMMENT DATE 05.08.2013 -45 degrees polarized system Lever position 04T deg
HORIZONTAL 360
0.00 0.00
1.00 0.00
2.00 0.00
3.00 0.01
4.00 0.03
5.00 0.06
6.00 0.09
7.00 0.12
8.00 0.17
9.00 0.22
10.00 0.28
11.00 0.34
12.00 0.41
13.00 0.49
14.00 0.58
15.00 0.67
16.00 0.77
17.00 0.87
18.00 0.99
19.00 1.10
20.00 1.23
21.00 1.36
22.00 1.50
23.00 1.65
24.00 1.80
25.00 1.96
26.00 2.13
27.00 2.30
28.00 2.48
29.00 2.67
30.00 2.86
31.00 3.06
32.00 3.27
33.00 3.48
34.00 3.70
35.00 3.93
36.00 4.16
37.00 4.41
38.00 4.65
39.00 4.90
40.00 5.16
41.00 5.43
42.00 5.70
43.00 5.98
44.00 6.27
45.00 6.56
46.00 6.86
47.00 7.16
48.00 7.47
49.00 7.79
50.00 8.11
51.00 8.43
52.00 8.77
53.00 9.11
54.00 9.45
55.00 9.81
56.00 10.17
57.00 10.53
58.00 10.90
59.00 11.28
60.00 11.66
61.00 12.04
62.00 12.44
63.00 12.84
64.00 13.24
65.00 13.66
66.00 14.07
67.00 14.50
68.00 14.93
69.00 15.37
70.00 15.81
71.00 16.26
72.00 16.72
73.00 17.18
74.00 17.65
75.00 18.12
76.00 18.60
77.00 19.09
78.00 19.58
79.00 20.08
80.00 20.58
81.00 21.09
82.00 21.60
83.00 22.12
84.00 22.64
85.00 23.16
86.00 23.68
87.00 24.20
88.00 24.72
89.00 25.24
90.00 25.75
91.00 26.26
92.00 26.76
93.00 27.24
94.00 27.72
95.00 28.18
96.00 28.62
97.00 29.04
98.00 29.45
99.00 29.83
100.00 30.19
101.00 30.52
102.00 30.84
103.00 31.13
104.00 31.40
105.00 31.65
106.00 31.89
107.00 32.10
108.00 32.30
109.00 32.49
110.00 32.67
111.00 32.84
112.00 32.99
113.00 33.15
114.00 33.30
115.00 33.44
116.00 33.57
117.00 33.70
118.00 33.84
119.00 33.97
120.00 34.09
121.00 34.22
122.00 34.34
123.00 34.46
124.00 34.58
125.00 34.70
126.00 34.81
127.00 34.92
128.00 35.03
129.00 35.15
130.00 35.26
131.00 35.36
132.00 35.47
133.00 35.58
134.00 35.68
135.00 35.79
136.00 35.89
137.00 36.00
138.00 36.10
139.00 36.21
140.00 36.32
141.00 36.43
142.00 36.54
143.00 36.65
144.00 36.77
145.00 36.89
146.00 37.01
147.00 37.14
148.00 37.27
149.00 37.40
150.00 37.54
151.00 37.68
152.00 37.83
153.00 37.97
154.00 38.13
155.00 38.28
156.00 38.44
157.00 38.60
158.00 38.76
159.00 38.93
160.00 39.09
161.00 39.25
162.00 39.43
163.00 39.58
164.00 39.75
165.00 39.90
166.00 40.06
167.00 40.22
168.00 40.36
169.00 40.50
170.00 40.63
171.00 40.76
172.00 40.88
173.00 40.99
174.00 41.11
175.00 41.20
176.00 41.30
177.00 41.39
178.00 41.47
179.00 41.55
180.00 41.62
181.00 41.69
182.00 41.75
183.00 41.80
184.00 41.86
185.00 41.91
186.00 41.96
187.00 42.00
188.00 42.04
189.00 42.07
190.00 42.09
191.00 42.11
192.00 42.13
193.00 42.15
194.00 42.15
195.00 42.16
196.00 42.17
197.00 42.17
198.00 42.18
199.00 42.18
200.00 42.19
201.00 42.20
202.00 42.23
203.00 42.26
204.00 42.31
205.00 42.37
206.00 42.44
207.00 42.55
208.00 42.67
209.00 42.82
210.00 42.99
211.00 43.19
212.00 43.44
213.00 43.72
214.00 44.04
215.00 44.43
216.00 44.86
217.00 45.35
218.00 45.93
219.00 46.57
220.00 47.31
221.00 48.19
222.00 49.23
223.00 50.44
224.00 51.92
225.00 53.77
226.00 56.21
227.00 59.75
228.00 65.66
229.00 76.87
230.00 64.27
231.00 58.82
232.00 55.32
233.00 52.83
234.00 50.85
235.00 49.24
236.00 47.82
237.00 46.60
238.00 45.48
239.00 44.46
240.00 43.50
241.00 42.59
242.00 41.72
243.00 40.87
244.00 40.04
245.00 39.22
246.00 38.42
247.00 37.61
248.00 36.82
249.00 36.02
250.00 35.24
251.00 34.46
252.00 33.69
253.00 32.93
254.00 32.17
255.00 31.43
256.00 30.70
257.00 29.98
258.00 29.28
259.00 28.58
260.00 27.91
261.00 27.24
262.00 26.59
263.00 25.96
264.00 25.34
265.00 24.74
266.00 24.15
267.00 23.58
268.00 23.01
269.00 22.47
270.00 21.93
271.00 21.41
272.00 20.90
273.00 20.40
274.00 19.91
275.00 19.44
276.00 18.97
277.00 18.52
278.00 18.08
279.00 17.64
280.00 17.22
281.00 16.80
282.00 16.39
283.00 15.99
284.00 15.60
285.00 15.22
286.00 14.84
287.00 14.47
288.00 14.11
289.00 13.75
290.00 13.40
291.00 13.05
292.00 12.71
293.00 12.38
294.00 12.05
295.00 11.73
296.00 11.41
297.00 11.09
298.00 10.78
299.00 10.48
300.00 10.18
301.00 9.88
302.00 9.58
303.00 9.29
304.00 9.01
305.00 8.72
306.00 8.45
307.00 8.17
308.00 7.90
309.00 7.63
310.00 7.36
311.00 7.10
312.00 6.85
313.00 6.59
314.00 6.34
315.00 6.10
316.00 5.85
317.00 5.62
318.00 5.38
319.00 5.15
320.00 4.92
321.00 4.70
322.00 4.48
323.00 4.27
324.00 4.06
325.00 3.85
326.00 3.65
327.00 3.46
328.00 3.27
329.00 3.08
330.00 2.89
331.00 2.72
332.00 2.55
333.00 2.38
334.00 2.22
335.00 2.06
336.00 1.91
337.00 1.76
338.00 1.62
339.00 1.48
340.00 1.35
341.00 1.23
342.00 1.11
343.00 1.00
344.00 0.89
345.00 0.79
346.00 0.69
347.00 0.60
348.00 0.52
349.00 0.44
350.00 0.37
351.00 0.30
352.00 0.24
353.00 0.19
354.00 0.15
355.00 0.10
356.00 0.07
357.00 0.04
358.00 0.02
359.00 0.01
VERTICAL 360
0.00 3.26
1.00 1.84
2.00 0.85
3.00 0.24
4.00 0.00
5.00 0.12
6.00 0.60
7.00 1.45
8.00 2.70
9.00 4.41
10.00 6.68
11.00 9.71
12.00 13.88
13.00 20.16
14.00 30.37
15.00 26.44
16.00 23.09
17.00 22.88
18.00 24.93
19.00 30.19
20.00 45.09
21.00 29.56
22.00 24.18
23.00 21.55
24.00 20.34
25.00 20.23
26.00 21.16
27.00 23.28
28.00 27.04
29.00 34.27
30.00 48.74
31.00 33.38
32.00 29.30
33.00 27.52
34.00 26.85
35.00 26.66
36.00 26.03
37.00 24.20
38.00 21.75
39.00 19.55
40.00 17.91
41.00 16.85
42.00 16.28
43.00 16.07
44.00 16.13
45.00 16.43
46.00 17.01
47.00 17.97
48.00 19.47
49.00 21.64
50.00 24.64
51.00 28.62
52.00 33.73
53.00 39.93
54.00 41.16
55.00 36.04
56.00 32.17
57.00 29.65
58.00 28.25
59.00 27.90
60.00 28.62
61.00 30.34
62.00 32.58
63.00 33.82
64.00 33.28
65.00 32.30
66.00 31.77
67.00 31.76
68.00 31.75
69.00 30.96
70.00 29.63
71.00 28.65
72.00 28.46
73.00 29.07
74.00 30.27
75.00 31.32
76.00 30.86
77.00 29.08
78.00 27.25
79.00 26.05
80.00 25.67
81.00 26.92
82.00 28.27
83.00 28.64
84.00 28.41
85.00 27.74
86.00 26.62
87.00 25.69
88.00 25.80
89.00 26.35
90.00 26.84
91.00 27.14
92.00 27.26
93.00 27.19
94.00 26.76
95.00 26.50
96.00 26.65
97.00 27.17
98.00 28.07
99.00 29.39
100.00 30.93
101.00 31.97
102.00 32.03
103.00 31.55
104.00 31.12
105.00 31.11
106.00 31.73
107.00 33.06
108.00 34.76
109.00 35.88
110.00 35.82
111.00 35.11
112.00 34.42
113.00 34.22
114.00 34.77
115.00 36.07
116.00 37.65
117.00 38.46
118.00 37.85
119.00 36.57
120.00 35.55
121.00 35.21
122.00 35.54
123.00 36.18
124.00 36.43
125.00 35.82
126.00 34.64
127.00 33.58
128.00 33.06
129.00 33.20
130.00 33.87
131.00 34.69
132.00 35.19
133.00 35.13
134.00 34.80
135.00 34.69
136.00 35.18
137.00 36.41
138.00 38.16
139.00 39.66
140.00 40.01
141.00 39.32
142.00 38.38
143.00 37.74
144.00 37.57
145.00 37.84
146.00 38.44
147.00 38.95
148.00 38.52
149.00 36.99
150.00 35.32
151.00 34.15
152.00 33.46
153.00 32.99
154.00 32.45
155.00 31.77
156.00 31.15
157.00 30.92
158.00 31.37
159.00 32.62
160.00 34.25
161.00 34.73
162.00 33.53
163.00 32.25
164.00 31.70
165.00 31.90
166.00 32.64
167.00 33.65
168.00 34.85
169.00 36.53
170.00 39.27
171.00 43.54
172.00 45.48
173.00 42.57
174.00 40.85
175.00 40.69
176.00 41.69
177.00 42.09
178.00 43.29
179.00 44.79
180.00 44.66
181.00 42.19
182.00 39.69
183.00 38.17
184.00 37.69
185.00 38.06
186.00 38.88
187.00 39.20
188.00 38.25
189.00 36.51
190.00 34.78
191.00 33.37
192.00 32.32
193.00 31.55
194.00 31.05
195.00 30.78
196.00 30.83
197.00 31.29
198.00 32.27
199.00 33.91
200.00 36.35
201.00 39.85
202.00 44.46
203.00 45.27
204.00 40.99
205.00 37.76
206.00 35.81
207.00 34.74
208.00 34.30
209.00 34.36
210.00 34.86
211.00 35.79
212.00 37.12
213.00 38.75
214.00 40.50
215.00 42.18
216.00 44.11
217.00 47.13
218.00 49.60
219.00 46.09
220.00 42.57
221.00 40.72
222.00 39.99
223.00 39.74
224.00 39.29
225.00 38.17
226.00 36.62
227.00 35.33
228.00 34.69
229.00 34.77
230.00 35.40
231.00 36.27
232.00 37.06
233.00 37.71
234.00 38.51
235.00 40.01
236.00 42.95
237.00 48.08
238.00 49.63
239.00 45.88
240.00 44.33
241.00 44.50
242.00 45.13
243.00 44.71
244.00 43.00
245.00 41.29
246.00 40.57
247.00 41.30
248.00 43.69
249.00 47.51
250.00 49.45
251.00 46.27
252.00 42.21
253.00 39.18
254.00 37.38
255.00 36.62
256.00 36.46
257.00 36.52
258.00 36.55
259.00 36.33
260.00 35.74
261.00 35.12
262.00 34.95
263.00 35.30
264.00 35.78
265.00 36.19
266.00 37.00
267.00 38.65
268.00 40.91
269.00 42.75
270.00 44.39
271.00 47.12
272.00 48.31
273.00 46.24
274.00 45.95
275.00 48.60
276.00 52.99
277.00 54.43
278.00 62.09
279.00 52.08
280.00 43.51
281.00 39.46
282.00 37.43
283.00 36.43
284.00 35.81
285.00 35.27
286.00 34.79
287.00 34.44
288.00 34.28
289.00 34.36
290.00 34.67
291.00 35.06
292.00 35.39
293.00 35.71
294.00 36.24
295.00 36.76
296.00 35.91
297.00 33.47
298.00 31.07
299.00 29.45
300.00 28.62
301.00 28.35
302.00 28.33
303.00 28.29
304.00 28.18
305.00 28.20
306.00 28.77
307.00 30.29
308.00 32.61
309.00 32.42
310.00 28.64
311.00 25.19
312.00 22.66
313.00 20.78
314.00 19.29
315.00 18.06
316.00 17.03
317.00 16.22
318.00 15.67
319.00 15.45
320.00 15.59
321.00 16.13
322.00 17.11
323.00 18.58
324.00 20.61
325.00 23.25
326.00 26.57
327.00 30.68
328.00 35.44
329.00 38.18
330.00 36.79
331.00 35.45
332.00 35.40
333.00 36.74
334.00 39.55
335.00 42.47
336.00 40.22
337.00 36.34
338.00 33.08
339.00 30.01
340.00 27.11
341.00 24.65
342.00 22.83
343.00 21.70
344.00 21.32
345.00 21.77
346.00 23.30
347.00 26.59
348.00 34.26
349.00 37.15
350.00 27.81
351.00 24.53
352.00 23.91
353.00 25.57
354.00 26.35
355.00 20.31
356.00 14.73
357.00 10.64
358.00 7.53
359.00 5.13
