NAME ATR4518R7_2350_X_CO_P45_06T_yyR
FREQUENCY 2350
GAIN 15.31 dBd
TILT	ELECTRICAL
COMMENT DATE 05.08.2013 +45 degrees polarized system Lever position 06T deg
HORIZONTAL 360
0.00 0.05
1.00 0.08
2.00 0.11
3.00 0.15
4.00 0.19
5.00 0.23
6.00 0.28
7.00 0.34
8.00 0.39
9.00 0.45
10.00 0.52
11.00 0.58
12.00 0.65
13.00 0.72
14.00 0.80
15.00 0.88
16.00 0.97
17.00 1.06
18.00 1.15
19.00 1.25
20.00 1.35
21.00 1.46
22.00 1.57
23.00 1.69
24.00 1.82
25.00 1.96
26.00 2.10
27.00 2.25
28.00 2.40
29.00 2.57
30.00 2.74
31.00 2.92
32.00 3.11
33.00 3.31
34.00 3.52
35.00 3.73
36.00 3.96
37.00 4.20
38.00 4.44
39.00 4.70
40.00 4.96
41.00 5.23
42.00 5.52
43.00 5.81
44.00 6.11
45.00 6.42
46.00 6.74
47.00 7.06
48.00 7.40
49.00 7.74
50.00 8.09
51.00 8.45
52.00 8.82
53.00 9.20
54.00 9.58
55.00 9.97
56.00 10.37
57.00 10.78
58.00 11.19
59.00 11.62
60.00 12.06
61.00 12.50
62.00 12.96
63.00 13.43
64.00 13.91
65.00 14.40
66.00 14.91
67.00 15.43
68.00 15.97
69.00 16.52
70.00 17.10
71.00 17.69
72.00 18.30
73.00 18.94
74.00 19.60
75.00 20.29
76.00 21.01
77.00 21.76
78.00 22.55
79.00 23.38
80.00 24.25
81.00 25.16
82.00 26.11
83.00 27.11
84.00 28.13
85.00 29.16
86.00 30.16
87.00 31.07
88.00 31.81
89.00 32.29
90.00 32.47
91.00 32.38
92.00 32.06
93.00 31.62
94.00 31.13
95.00 30.64
96.00 30.18
97.00 29.78
98.00 29.44
99.00 29.17
100.00 28.97
101.00 28.84
102.00 28.78
103.00 28.79
104.00 28.88
105.00 29.03
106.00 29.25
107.00 29.54
108.00 29.92
109.00 30.36
110.00 30.88
111.00 31.49
112.00 32.18
113.00 32.97
114.00 33.84
115.00 34.80
116.00 35.85
117.00 36.94
118.00 38.06
119.00 39.10
120.00 39.96
121.00 40.49
122.00 40.65
123.00 40.46
124.00 40.05
125.00 39.56
126.00 39.07
127.00 38.64
128.00 38.28
129.00 38.03
130.00 37.88
131.00 37.83
132.00 37.89
133.00 38.05
134.00 38.32
135.00 38.69
136.00 39.18
137.00 39.78
138.00 40.50
139.00 41.33
140.00 42.26
141.00 43.25
142.00 44.22
143.00 45.03
144.00 45.50
145.00 45.51
146.00 45.10
147.00 44.45
148.00 43.72
149.00 43.03
150.00 42.45
151.00 42.01
152.00 41.73
153.00 41.62
154.00 41.68
155.00 41.91
156.00 42.35
157.00 42.99
158.00 43.86
159.00 44.96
160.00 46.25
161.00 47.58
162.00 48.54
163.00 48.56
164.00 47.59
165.00 46.13
166.00 44.64
167.00 43.34
168.00 42.27
169.00 41.43
170.00 40.80
171.00 40.35
172.00 40.09
173.00 39.99
174.00 40.04
175.00 40.21
176.00 40.47
177.00 40.78
178.00 41.05
179.00 41.21
180.00 41.17
181.00 40.89
182.00 40.40
183.00 39.77
184.00 39.09
185.00 38.43
186.00 37.84
187.00 37.35
188.00 36.96
189.00 36.69
190.00 36.53
191.00 36.47
192.00 36.51
193.00 36.61
194.00 36.76
195.00 36.89
196.00 36.97
197.00 36.92
198.00 36.73
199.00 36.39
200.00 35.93
201.00 35.40
202.00 34.85
203.00 34.33
204.00 33.87
205.00 33.50
206.00 33.23
207.00 33.09
208.00 33.06
209.00 33.18
210.00 33.43
211.00 33.83
212.00 34.39
213.00 35.11
214.00 35.97
215.00 36.92
216.00 37.83
217.00 38.48
218.00 38.60
219.00 38.07
220.00 37.10
221.00 35.96
222.00 34.83
223.00 33.82
224.00 32.96
225.00 32.24
226.00 31.67
227.00 31.24
228.00 30.94
229.00 30.76
230.00 30.70
231.00 30.73
232.00 30.85
233.00 31.03
234.00 31.26
235.00 31.50
236.00 31.70
237.00 31.81
238.00 31.79
239.00 31.61
240.00 31.27
241.00 30.80
242.00 30.23
243.00 29.62
244.00 28.99
245.00 28.38
246.00 27.80
247.00 27.26
248.00 26.77
249.00 26.32
250.00 25.93
251.00 25.58
252.00 25.28
253.00 25.03
254.00 24.82
255.00 24.64
256.00 24.51
257.00 24.42
258.00 24.36
259.00 24.33
260.00 24.34
261.00 24.38
262.00 24.44
263.00 24.52
264.00 24.63
265.00 24.74
266.00 24.84
267.00 24.94
268.00 25.01
269.00 25.04
270.00 25.02
271.00 24.93
272.00 24.78
273.00 24.55
274.00 24.25
275.00 23.89
276.00 23.49
277.00 23.04
278.00 22.57
279.00 22.08
280.00 21.58
281.00 21.09
282.00 20.59
283.00 20.10
284.00 19.62
285.00 19.15
286.00 18.68
287.00 18.23
288.00 17.78
289.00 17.34
290.00 16.90
291.00 16.47
292.00 16.04
293.00 15.61
294.00 15.19
295.00 14.76
296.00 14.34
297.00 13.92
298.00 13.50
299.00 13.08
300.00 12.67
301.00 12.26
302.00 11.85
303.00 11.44
304.00 11.04
305.00 10.65
306.00 10.27
307.00 9.89
308.00 9.52
309.00 9.16
310.00 8.81
311.00 8.46
312.00 8.13
313.00 7.80
314.00 7.49
315.00 7.18
316.00 6.88
317.00 6.58
318.00 6.29
319.00 6.01
320.00 5.74
321.00 5.47
322.00 5.20
323.00 4.94
324.00 4.68
325.00 4.43
326.00 4.18
327.00 3.93
328.00 3.69
329.00 3.45
330.00 3.22
331.00 2.99
332.00 2.77
333.00 2.55
334.00 2.34
335.00 2.13
336.00 1.94
337.00 1.74
338.00 1.56
339.00 1.39
340.00 1.23
341.00 1.07
342.00 0.93
343.00 0.79
344.00 0.67
345.00 0.56
346.00 0.46
347.00 0.37
348.00 0.29
349.00 0.22
350.00 0.16
351.00 0.11
352.00 0.07
353.00 0.04
354.00 0.02
355.00 0.00
356.00 0.00
357.00 0.00
358.00 0.01
359.00 0.03
VERTICAL 360
0.00 22.01
1.00 14.31
2.00 8.34
3.00 4.35
4.00 1.80
5.00 0.39
6.00 0.00
7.00 0.62
8.00 2.41
9.00 5.85
10.00 12.67
11.00 32.05
12.00 14.54
13.00 11.37
14.00 11.89
15.00 15.35
16.00 20.48
17.00 17.92
18.00 14.79
19.00 14.49
20.00 16.52
21.00 20.27
22.00 21.81
23.00 20.00
24.00 19.18
25.00 20.07
26.00 23.17
27.00 31.28
28.00 29.25
29.00 21.59
30.00 18.88
31.00 18.61
32.00 20.01
33.00 22.57
34.00 26.25
35.00 32.03
36.00 37.40
37.00 34.00
38.00 30.64
39.00 27.48
40.00 25.36
41.00 24.98
42.00 26.56
43.00 30.64
44.00 42.47
45.00 38.83
46.00 30.06
47.00 26.69
48.00 25.38
49.00 25.18
50.00 25.84
51.00 27.75
52.00 31.69
53.00 35.18
54.00 30.87
55.00 27.10
56.00 25.25
57.00 24.78
58.00 25.40
59.00 27.00
60.00 29.62
61.00 33.43
62.00 37.82
63.00 39.57
64.00 39.49
65.00 40.58
66.00 41.83
67.00 41.25
68.00 39.73
69.00 38.30
70.00 36.92
71.00 35.53
72.00 34.45
73.00 33.60
74.00 32.61
75.00 31.59
76.00 30.76
77.00 29.94
78.00 29.18
79.00 28.80
80.00 29.02
81.00 29.96
82.00 31.45
83.00 32.18
84.00 30.52
85.00 27.77
86.00 25.76
87.00 25.25
88.00 26.33
89.00 28.52
90.00 30.41
91.00 30.24
92.00 28.83
93.00 28.45
94.00 29.66
95.00 31.14
96.00 31.26
97.00 30.77
98.00 30.35
99.00 31.04
100.00 34.31
101.00 40.84
102.00 40.55
103.00 37.03
104.00 36.17
105.00 38.00
106.00 44.67
107.00 53.38
108.00 46.36
109.00 46.60
110.00 48.77
111.00 50.91
112.00 45.06
113.00 40.37
114.00 38.62
115.00 38.56
116.00 39.30
117.00 39.94
118.00 40.64
119.00 42.10
120.00 42.36
121.00 40.74
122.00 38.91
123.00 37.51
124.00 38.17
125.00 41.85
126.00 41.48
127.00 37.72
128.00 37.22
129.00 38.53
130.00 39.43
131.00 40.45
132.00 41.84
133.00 40.70
134.00 38.79
135.00 37.55
136.00 36.53
137.00 35.92
138.00 35.79
139.00 35.84
140.00 36.28
141.00 37.83
142.00 41.34
143.00 49.36
144.00 56.22
145.00 46.74
146.00 45.89
147.00 50.96
148.00 56.93
149.00 50.65
150.00 51.12
151.00 44.55
152.00 39.38
153.00 37.83
154.00 39.07
155.00 43.23
156.00 48.92
157.00 46.57
158.00 43.69
159.00 40.50
160.00 38.06
161.00 37.85
162.00 37.37
163.00 34.86
164.00 33.72
165.00 35.05
166.00 38.70
167.00 46.46
168.00 50.97
169.00 40.34
170.00 37.99
171.00 38.70
172.00 39.33
173.00 39.18
174.00 40.47
175.00 41.91
176.00 40.36
177.00 39.27
178.00 40.30
179.00 42.04
180.00 40.70
181.00 38.16
182.00 37.40
183.00 39.27
184.00 44.71
185.00 53.14
186.00 51.79
187.00 45.05
188.00 42.40
189.00 40.64
190.00 36.99
191.00 35.58
192.00 37.86
193.00 40.10
194.00 37.53
195.00 37.47
196.00 39.27
197.00 40.36
198.00 44.14
199.00 52.64
200.00 51.59
201.00 59.93
202.00 42.91
203.00 39.93
204.00 42.61
205.00 48.04
206.00 47.18
207.00 48.36
208.00 49.38
209.00 57.28
210.00 51.15
211.00 42.15
212.00 40.56
213.00 43.11
214.00 48.90
215.00 46.07
216.00 40.59
217.00 38.02
218.00 37.11
219.00 36.69
220.00 35.81
221.00 34.67
222.00 34.21
223.00 34.83
224.00 35.78
225.00 35.90
226.00 35.66
227.00 35.87
228.00 36.45
229.00 37.06
230.00 37.82
231.00 39.24
232.00 41.00
233.00 41.51
234.00 40.15
235.00 38.84
236.00 39.15
237.00 39.80
238.00 37.63
239.00 35.17
240.00 33.89
241.00 33.09
242.00 32.16
243.00 31.30
244.00 31.06
245.00 31.73
246.00 32.91
247.00 33.48
248.00 33.02
249.00 32.21
250.00 31.75
251.00 31.88
252.00 32.12
253.00 31.90
254.00 31.19
255.00 30.38
256.00 30.06
257.00 30.55
258.00 31.47
259.00 31.92
260.00 31.41
261.00 30.65
262.00 30.75
263.00 32.15
264.00 34.22
265.00 34.87
266.00 32.65
267.00 29.67
268.00 28.11
269.00 28.58
270.00 31.31
271.00 36.83
272.00 48.78
273.00 53.18
274.00 45.41
275.00 41.77
276.00 37.39
277.00 34.75
278.00 33.88
279.00 32.85
280.00 30.66
281.00 28.66
282.00 27.34
283.00 26.33
284.00 25.27
285.00 24.14
286.00 23.00
287.00 21.86
288.00 20.62
289.00 19.23
290.00 17.82
291.00 16.55
292.00 15.47
293.00 14.58
294.00 13.86
295.00 13.34
296.00 13.04
297.00 13.03
298.00 13.36
299.00 14.06
300.00 15.19
301.00 16.84
302.00 19.21
303.00 22.90
304.00 29.48
305.00 31.38
306.00 24.38
307.00 21.23
308.00 20.29
309.00 20.79
310.00 22.30
311.00 24.53
312.00 26.61
313.00 26.30
314.00 24.64
315.00 24.30
316.00 26.35
317.00 31.61
318.00 31.87
319.00 25.67
320.00 22.29
321.00 20.78
322.00 20.88
323.00 23.01
324.00 28.47
325.00 31.86
326.00 25.01
327.00 21.72
328.00 20.71
329.00 21.57
330.00 24.40
331.00 25.19
332.00 20.92
333.00 17.97
334.00 16.75
335.00 16.60
336.00 17.07
337.00 17.97
338.00 19.06
339.00 20.01
340.00 21.12
341.00 23.65
342.00 27.73
343.00 25.88
344.00 22.32
345.00 21.54
346.00 23.39
347.00 28.92
348.00 34.98
349.00 26.39
350.00 22.70
351.00 21.63
352.00 22.01
353.00 23.06
354.00 24.45
355.00 26.94
356.00 32.52
357.00 32.38
358.00 26.16
359.00 24.67
