NAME ATR4518R7_2350_X_CO_M45_08T_yL
FREQUENCY 2350
GAIN 15.74 dBd
TILT	ELECTRICAL
COMMENT DATE 05.08.2013 -45 degrees polarized system Lever position 08T deg
HORIZONTAL 360
0.00 0.02
1.00 0.05
2.00 0.10
3.00 0.16
4.00 0.24
5.00 0.33
6.00 0.44
7.00 0.55
8.00 0.68
9.00 0.82
10.00 0.97
11.00 1.12
12.00 1.28
13.00 1.44
14.00 1.60
15.00 1.76
16.00 1.92
17.00 2.07
18.00 2.22
19.00 2.37
20.00 2.51
21.00 2.65
22.00 2.78
23.00 2.91
24.00 3.05
25.00 3.18
26.00 3.32
27.00 3.47
28.00 3.62
29.00 3.78
30.00 3.95
31.00 4.13
32.00 4.33
33.00 4.53
34.00 4.75
35.00 4.99
36.00 5.23
37.00 5.48
38.00 5.75
39.00 6.02
40.00 6.30
41.00 6.58
42.00 6.87
43.00 7.16
44.00 7.45
45.00 7.74
46.00 8.02
47.00 8.30
48.00 8.57
49.00 8.83
50.00 9.07
51.00 9.31
52.00 9.54
53.00 9.76
54.00 9.97
55.00 10.16
56.00 10.36
57.00 10.54
58.00 10.73
59.00 10.91
60.00 11.09
61.00 11.28
62.00 11.46
63.00 11.66
64.00 11.86
65.00 12.07
66.00 12.29
67.00 12.52
68.00 12.76
69.00 13.02
70.00 13.28
71.00 13.55
72.00 13.83
73.00 14.12
74.00 14.41
75.00 14.72
76.00 15.02
77.00 15.33
78.00 15.63
79.00 15.94
80.00 16.25
81.00 16.56
82.00 16.86
83.00 17.17
84.00 17.47
85.00 17.79
86.00 18.11
87.00 18.44
88.00 18.79
89.00 19.16
90.00 19.55
91.00 19.96
92.00 20.41
93.00 20.90
94.00 21.42
95.00 21.98
96.00 22.59
97.00 23.25
98.00 23.96
99.00 24.71
100.00 25.51
101.00 26.36
102.00 27.24
103.00 28.16
104.00 29.09
105.00 30.03
106.00 30.95
107.00 31.83
108.00 32.68
109.00 33.47
110.00 34.22
111.00 34.97
112.00 35.74
113.00 36.57
114.00 37.52
115.00 38.67
116.00 40.08
117.00 41.89
118.00 44.32
119.00 47.84
120.00 53.66
121.00 59.33
122.00 51.53
123.00 46.73
124.00 43.71
125.00 41.61
126.00 40.06
127.00 38.88
128.00 37.98
129.00 37.31
130.00 36.83
131.00 36.49
132.00 36.27
133.00 36.17
134.00 36.16
135.00 36.21
136.00 36.34
137.00 36.51
138.00 36.72
139.00 36.96
140.00 37.21
141.00 37.48
142.00 37.75
143.00 38.02
144.00 38.25
145.00 38.45
146.00 38.57
147.00 38.61
148.00 38.53
149.00 38.32
150.00 38.02
151.00 37.63
152.00 37.20
153.00 36.78
154.00 36.39
155.00 36.07
156.00 35.84
157.00 35.72
158.00 35.72
159.00 35.87
160.00 36.15
161.00 36.58
162.00 37.15
163.00 37.81
164.00 38.47
165.00 38.96
166.00 39.05
167.00 38.62
168.00 37.73
169.00 36.62
170.00 35.48
171.00 34.42
172.00 33.51
173.00 32.76
174.00 32.17
175.00 31.76
176.00 31.53
177.00 31.48
178.00 31.61
179.00 31.96
180.00 32.54
181.00 33.41
182.00 34.63
183.00 36.34
184.00 38.80
185.00 42.61
186.00 49.78
187.00 52.02
188.00 43.42
189.00 38.95
190.00 36.07
191.00 34.03
192.00 32.52
193.00 31.39
194.00 30.56
195.00 29.98
196.00 29.63
197.00 29.49
198.00 29.56
199.00 29.84
200.00 30.35
201.00 31.13
202.00 32.22
203.00 33.74
204.00 35.86
205.00 39.00
206.00 44.38
207.00 57.68
208.00 45.67
209.00 39.47
210.00 35.95
211.00 33.56
212.00 31.82
213.00 30.51
214.00 29.52
215.00 28.79
216.00 28.27
217.00 27.93
218.00 27.77
219.00 27.77
220.00 27.93
221.00 28.25
222.00 28.72
223.00 29.37
224.00 30.19
225.00 31.19
226.00 32.38
227.00 33.71
228.00 35.07
229.00 36.15
230.00 36.54
231.00 36.02
232.00 34.92
233.00 33.64
234.00 32.43
235.00 31.35
236.00 30.44
237.00 29.68
238.00 29.06
239.00 28.56
240.00 28.15
241.00 27.83
242.00 27.58
243.00 27.39
244.00 27.23
245.00 27.09
246.00 26.96
247.00 26.82
248.00 26.65
249.00 26.46
250.00 26.22
251.00 25.95
252.00 25.63
253.00 25.29
254.00 24.92
255.00 24.54
256.00 24.16
257.00 23.78
258.00 23.41
259.00 23.05
260.00 22.71
261.00 22.39
262.00 22.08
263.00 21.79
264.00 21.51
265.00 21.24
266.00 20.97
267.00 20.71
268.00 20.44
269.00 20.17
270.00 19.88
271.00 19.59
272.00 19.29
273.00 18.98
274.00 18.66
275.00 18.34
276.00 18.01
277.00 17.67
278.00 17.34
279.00 17.01
280.00 16.69
281.00 16.37
282.00 16.06
283.00 15.75
284.00 15.45
285.00 15.15
286.00 14.86
287.00 14.57
288.00 14.28
289.00 13.99
290.00 13.70
291.00 13.41
292.00 13.11
293.00 12.81
294.00 12.50
295.00 12.19
296.00 11.87
297.00 11.54
298.00 11.21
299.00 10.88
300.00 10.55
301.00 10.21
302.00 9.88
303.00 9.55
304.00 9.22
305.00 8.89
306.00 8.57
307.00 8.25
308.00 7.93
309.00 7.62
310.00 7.31
311.00 7.01
312.00 6.70
313.00 6.40
314.00 6.11
315.00 5.81
316.00 5.52
317.00 5.23
318.00 4.94
319.00 4.66
320.00 4.38
321.00 4.11
322.00 3.84
323.00 3.58
324.00 3.33
325.00 3.09
326.00 2.86
327.00 2.65
328.00 2.44
329.00 2.25
330.00 2.07
331.00 1.91
332.00 1.76
333.00 1.62
334.00 1.49
335.00 1.38
336.00 1.27
337.00 1.18
338.00 1.09
339.00 1.01
340.00 0.94
341.00 0.87
342.00 0.81
343.00 0.75
344.00 0.68
345.00 0.62
346.00 0.56
347.00 0.50
348.00 0.43
349.00 0.37
350.00 0.31
351.00 0.25
352.00 0.19
353.00 0.14
354.00 0.09
355.00 0.05
356.00 0.02
357.00 0.00
358.00 0.00
359.00 0.00
VERTICAL 360
0.00 27.01
1.00 38.54
2.00 22.87
3.00 13.36
4.00 7.80
5.00 4.13
6.00 1.74
7.00 0.38
8.00 0.00
9.00 0.64
10.00 2.50
11.00 6.07
12.00 12.91
13.00 31.35
14.00 14.94
15.00 11.87
16.00 12.15
17.00 14.95
18.00 19.41
19.00 18.21
20.00 15.58
21.00 15.57
22.00 18.18
23.00 22.45
24.00 21.05
25.00 17.95
26.00 16.93
27.00 17.96
28.00 21.86
29.00 35.81
30.00 25.91
31.00 20.07
32.00 18.58
33.00 19.55
34.00 22.75
35.00 25.51
36.00 21.75
37.00 18.29
38.00 16.59
39.00 16.22
40.00 16.87
41.00 18.32
42.00 20.47
43.00 23.34
44.00 26.90
45.00 29.79
46.00 30.34
47.00 30.94
48.00 32.68
49.00 31.60
50.00 28.08
51.00 25.91
52.00 25.31
53.00 25.86
54.00 26.97
55.00 28.01
56.00 28.80
57.00 30.00
58.00 32.61
59.00 37.81
60.00 39.51
61.00 34.33
62.00 31.73
63.00 30.80
64.00 30.59
65.00 30.44
66.00 30.15
67.00 29.95
68.00 30.17
69.00 31.00
70.00 32.31
71.00 33.65
72.00 34.49
73.00 34.76
74.00 35.03
75.00 35.94
76.00 37.86
77.00 40.70
78.00 43.84
79.00 46.78
80.00 50.43
81.00 59.36
82.00 51.08
83.00 44.26
84.00 41.65
85.00 41.34
86.00 41.80
87.00 41.76
88.00 42.37
89.00 45.56
90.00 51.65
91.00 46.42
92.00 41.75
93.00 39.50
94.00 38.91
95.00 39.94
96.00 42.49
97.00 44.72
98.00 43.65
99.00 41.73
100.00 40.82
101.00 41.40
102.00 43.87
103.00 48.15
104.00 52.08
105.00 54.05
106.00 51.53
107.00 47.46
108.00 46.18
109.00 47.94
110.00 53.20
111.00 59.22
112.00 57.22
113.00 57.58
114.00 60.06
115.00 63.91
116.00 56.47
117.00 49.78
118.00 46.54
119.00 45.73
120.00 46.16
121.00 43.99
122.00 39.81
123.00 36.78
124.00 35.28
125.00 35.18
126.00 36.36
127.00 38.73
128.00 42.22
129.00 47.12
130.00 53.53
131.00 49.75
132.00 45.05
133.00 42.64
134.00 41.40
135.00 40.55
136.00 39.48
137.00 38.06
138.00 36.77
139.00 36.22
140.00 36.73
141.00 38.11
142.00 39.25
143.00 39.46
144.00 39.96
145.00 41.71
146.00 44.64
147.00 48.28
148.00 48.41
149.00 44.01
150.00 41.17
151.00 39.73
152.00 38.27
153.00 36.65
154.00 35.92
155.00 36.69
156.00 39.11
157.00 42.20
158.00 42.72
159.00 42.14
160.00 43.46
161.00 47.60
162.00 55.76
163.00 55.96
164.00 47.53
165.00 43.72
166.00 44.19
167.00 51.84
168.00 42.45
169.00 35.72
170.00 32.69
171.00 31.56
172.00 31.61
173.00 32.57
174.00 34.51
175.00 37.66
176.00 41.09
177.00 41.56
178.00 40.51
179.00 40.08
180.00 40.02
181.00 39.76
182.00 39.17
183.00 38.35
184.00 37.22
185.00 35.92
186.00 34.89
187.00 34.45
188.00 34.77
189.00 35.91
190.00 37.88
191.00 40.46
192.00 42.86
193.00 43.80
194.00 42.98
195.00 41.28
196.00 39.76
197.00 39.18
198.00 40.07
199.00 42.49
200.00 44.46
201.00 43.52
202.00 42.75
203.00 43.05
204.00 43.01
205.00 41.73
206.00 39.62
207.00 37.55
208.00 36.39
209.00 36.61
210.00 38.30
211.00 41.16
212.00 44.15
213.00 47.69
214.00 51.31
215.00 44.10
216.00 39.67
217.00 38.32
218.00 39.55
219.00 43.94
220.00 54.50
221.00 50.88
222.00 45.76
223.00 42.46
224.00 39.79
225.00 38.25
226.00 37.63
227.00 37.12
228.00 36.40
229.00 36.09
230.00 36.91
231.00 39.40
232.00 44.72
233.00 59.75
234.00 52.80
235.00 50.08
236.00 51.86
237.00 47.01
238.00 42.33
239.00 39.83
240.00 38.23
241.00 36.91
242.00 36.07
243.00 35.89
244.00 36.16
245.00 36.50
246.00 36.72
247.00 37.09
248.00 38.12
249.00 40.15
250.00 42.95
251.00 44.82
252.00 43.79
253.00 41.10
254.00 39.09
255.00 38.65
256.00 39.80
257.00 42.27
258.00 46.06
259.00 49.53
260.00 45.26
261.00 42.11
262.00 41.90
263.00 43.79
264.00 44.27
265.00 41.15
266.00 37.74
267.00 34.96
268.00 32.98
269.00 31.78
270.00 31.25
271.00 31.21
272.00 31.44
273.00 31.58
274.00 31.34
275.00 30.80
276.00 30.27
277.00 30.01
278.00 30.11
279.00 30.44
280.00 30.71
281.00 30.62
282.00 30.10
283.00 29.31
284.00 28.40
285.00 27.44
286.00 26.39
287.00 25.25
288.00 24.16
289.00 23.27
290.00 22.64
291.00 22.16
292.00 21.53
293.00 20.59
294.00 19.51
295.00 18.48
296.00 17.59
297.00 16.78
298.00 16.07
299.00 15.53
300.00 15.28
301.00 15.44
302.00 16.11
303.00 17.36
304.00 19.36
305.00 22.46
306.00 26.93
307.00 28.73
308.00 24.95
309.00 22.06
310.00 20.55
311.00 20.14
312.00 20.75
313.00 22.52
314.00 25.53
315.00 27.70
316.00 25.49
317.00 22.95
318.00 21.86
319.00 22.34
320.00 24.71
321.00 28.00
322.00 24.84
323.00 20.69
324.00 18.70
325.00 18.66
326.00 20.73
327.00 26.61
328.00 40.80
329.00 23.99
330.00 19.80
331.00 18.75
332.00 20.25
333.00 25.65
334.00 32.77
335.00 22.33
336.00 18.39
337.00 17.07
338.00 17.53
339.00 19.82
340.00 24.63
341.00 30.03
342.00 26.99
343.00 25.85
344.00 26.34
345.00 23.62
346.00 20.19
347.00 18.63
348.00 19.21
349.00 22.70
350.00 35.02
351.00 27.07
352.00 20.80
353.00 18.98
354.00 19.53
355.00 22.04
356.00 26.06
357.00 28.63
358.00 27.65
359.00 26.40
