NAME ATR4518R7_0880_X_CO_M45_03T
FREQUENCY 0880
GAIN 14.67 dBd
TILT	ELECTRICAL
COMMENT DATE 05.08.2013 -45 degrees polarized system Lever position 03T deg
HORIZONTAL 360
0.00 0.01
1.00 0.00
2.00 0.00
3.00 0.00
4.00 0.01
5.00 0.03
6.00 0.05
7.00 0.09
8.00 0.12
9.00 0.17
10.00 0.22
11.00 0.28
12.00 0.34
13.00 0.41
14.00 0.49
15.00 0.57
16.00 0.67
17.00 0.76
18.00 0.87
19.00 0.98
20.00 1.10
21.00 1.22
22.00 1.36
23.00 1.49
24.00 1.64
25.00 1.79
26.00 1.95
27.00 2.12
28.00 2.29
29.00 2.47
30.00 2.65
31.00 2.84
32.00 3.04
33.00 3.25
34.00 3.46
35.00 3.68
36.00 3.91
37.00 4.14
38.00 4.38
39.00 4.62
40.00 4.87
41.00 5.13
42.00 5.40
43.00 5.67
44.00 5.94
45.00 6.23
46.00 6.52
47.00 6.81
48.00 7.11
49.00 7.42
50.00 7.74
51.00 8.06
52.00 8.38
53.00 8.72
54.00 9.05
55.00 9.40
56.00 9.75
57.00 10.11
58.00 10.47
59.00 10.84
60.00 11.21
61.00 11.59
62.00 11.98
63.00 12.37
64.00 12.76
65.00 13.17
66.00 13.58
67.00 13.99
68.00 14.41
69.00 14.84
70.00 15.27
71.00 15.71
72.00 16.16
73.00 16.61
74.00 17.07
75.00 17.53
76.00 18.00
77.00 18.47
78.00 18.95
79.00 19.44
80.00 19.93
81.00 20.42
82.00 20.92
83.00 21.42
84.00 21.93
85.00 22.43
86.00 22.94
87.00 23.46
88.00 23.97
89.00 24.48
90.00 24.98
91.00 25.49
92.00 25.98
93.00 26.47
94.00 26.96
95.00 27.42
96.00 27.88
97.00 28.33
98.00 28.75
99.00 29.16
100.00 29.55
101.00 29.92
102.00 30.26
103.00 30.59
104.00 30.89
105.00 31.17
106.00 31.43
107.00 31.66
108.00 31.88
109.00 32.08
110.00 32.26
111.00 32.42
112.00 32.57
113.00 32.71
114.00 32.83
115.00 32.95
116.00 33.04
117.00 33.14
118.00 33.22
119.00 33.30
120.00 33.37
121.00 33.44
122.00 33.50
123.00 33.56
124.00 33.61
125.00 33.66
126.00 33.71
127.00 33.75
128.00 33.80
129.00 33.84
130.00 33.89
131.00 33.93
132.00 33.97
133.00 34.01
134.00 34.06
135.00 34.10
136.00 34.15
137.00 34.20
138.00 34.25
139.00 34.31
140.00 34.37
141.00 34.44
142.00 34.50
143.00 34.58
144.00 34.66
145.00 34.74
146.00 34.83
147.00 34.93
148.00 35.03
149.00 35.13
150.00 35.25
151.00 35.37
152.00 35.50
153.00 35.63
154.00 35.77
155.00 35.92
156.00 36.07
157.00 36.23
158.00 36.40
159.00 36.58
160.00 36.75
161.00 36.94
162.00 37.13
163.00 37.31
164.00 37.50
165.00 37.70
166.00 37.90
167.00 38.10
168.00 38.29
169.00 38.49
170.00 38.69
171.00 38.87
172.00 39.06
173.00 39.24
174.00 39.42
175.00 39.58
176.00 39.75
177.00 39.90
178.00 40.05
179.00 40.18
180.00 40.31
181.00 40.43
182.00 40.55
183.00 40.66
184.00 40.74
185.00 40.84
186.00 40.91
187.00 40.98
188.00 41.05
189.00 41.10
190.00 41.16
191.00 41.20
192.00 41.24
193.00 41.27
194.00 41.30
195.00 41.31
196.00 41.34
197.00 41.36
198.00 41.37
199.00 41.38
200.00 41.41
201.00 41.44
202.00 41.47
203.00 41.51
204.00 41.55
205.00 41.62
206.00 41.68
207.00 41.77
208.00 41.89
209.00 42.02
210.00 42.17
211.00 42.36
212.00 42.57
213.00 42.82
214.00 43.10
215.00 43.43
216.00 43.79
217.00 44.21
218.00 44.69
219.00 45.23
220.00 45.85
221.00 46.53
222.00 47.32
223.00 48.25
224.00 49.30
225.00 50.55
226.00 52.01
227.00 53.72
228.00 55.67
229.00 57.76
230.00 59.03
231.00 58.42
232.00 56.53
233.00 54.30
234.00 52.32
235.00 50.55
236.00 49.05
237.00 47.69
238.00 46.50
239.00 45.43
240.00 44.40
241.00 43.45
242.00 42.54
243.00 41.67
244.00 40.83
245.00 39.99
246.00 39.18
247.00 38.37
248.00 37.57
249.00 36.78
250.00 35.99
251.00 35.20
252.00 34.43
253.00 33.66
254.00 32.89
255.00 32.14
256.00 31.40
257.00 30.67
258.00 29.96
259.00 29.25
260.00 28.56
261.00 27.89
262.00 27.23
263.00 26.58
264.00 25.95
265.00 25.33
266.00 24.73
267.00 24.14
268.00 23.57
269.00 23.01
270.00 22.46
271.00 21.93
272.00 21.41
273.00 20.90
274.00 20.40
275.00 19.91
276.00 19.44
277.00 18.97
278.00 18.52
279.00 18.08
280.00 17.64
281.00 17.22
282.00 16.80
283.00 16.39
284.00 15.99
285.00 15.60
286.00 15.22
287.00 14.84
288.00 14.47
289.00 14.11
290.00 13.75
291.00 13.40
292.00 13.05
293.00 12.71
294.00 12.38
295.00 12.05
296.00 11.73
297.00 11.40
298.00 11.09
299.00 10.78
300.00 10.47
301.00 10.17
302.00 9.87
303.00 9.58
304.00 9.29
305.00 9.00
306.00 8.72
307.00 8.44
308.00 8.16
309.00 7.89
310.00 7.62
311.00 7.36
312.00 7.10
313.00 6.84
314.00 6.58
315.00 6.33
316.00 6.09
317.00 5.84
318.00 5.61
319.00 5.37
320.00 5.14
321.00 4.91
322.00 4.69
323.00 4.47
324.00 4.26
325.00 4.05
326.00 3.84
327.00 3.64
328.00 3.44
329.00 3.25
330.00 3.07
331.00 2.88
332.00 2.71
333.00 2.53
334.00 2.37
335.00 2.21
336.00 2.05
337.00 1.90
338.00 1.75
339.00 1.61
340.00 1.48
341.00 1.35
342.00 1.22
343.00 1.10
344.00 0.99
345.00 0.88
346.00 0.78
347.00 0.69
348.00 0.60
349.00 0.51
350.00 0.44
351.00 0.37
352.00 0.30
353.00 0.24
354.00 0.19
355.00 0.14
356.00 0.10
357.00 0.07
358.00 0.04
359.00 0.02
VERTICAL 360
0.00 1.39
1.00 0.56
2.00 0.09
3.00 0.00
4.00 0.26
5.00 0.91
6.00 1.94
7.00 3.39
8.00 5.34
9.00 7.91
10.00 11.35
11.00 16.22
12.00 24.16
13.00 31.58
14.00 24.78
15.00 23.03
16.00 24.11
17.00 28.18
18.00 42.19
19.00 31.94
20.00 25.19
21.00 22.11
22.00 20.58
23.00 20.09
24.00 20.52
25.00 21.96
26.00 24.72
27.00 29.64
28.00 38.73
29.00 35.26
30.00 30.55
31.00 28.85
32.00 28.49
33.00 28.35
34.00 27.23
35.00 24.79
36.00 21.96
37.00 19.43
38.00 17.43
39.00 16.00
40.00 15.11
41.00 14.69
42.00 14.67
43.00 14.94
44.00 15.46
45.00 16.21
46.00 17.28
47.00 18.80
48.00 20.93
49.00 23.88
50.00 27.90
51.00 33.28
52.00 40.20
53.00 42.44
54.00 37.45
55.00 33.53
56.00 30.88
57.00 29.26
58.00 28.64
59.00 29.08
60.00 30.64
61.00 33.08
62.00 34.86
63.00 34.37
64.00 33.13
65.00 32.31
66.00 32.05
67.00 32.03
68.00 31.48
69.00 30.17
70.00 28.96
71.00 28.49
72.00 28.91
73.00 30.09
74.00 31.61
75.00 32.15
76.00 30.61
77.00 28.34
78.00 26.64
79.00 25.85
80.00 25.97
81.00 26.71
82.00 27.45
83.00 27.50
84.00 27.16
85.00 26.50
86.00 25.77
87.00 25.55
88.00 26.06
89.00 26.94
90.00 27.83
91.00 28.46
92.00 28.73
93.00 28.54
94.00 28.06
95.00 27.91
96.00 28.13
97.00 28.69
98.00 29.71
99.00 31.27
100.00 33.01
101.00 33.84
102.00 33.36
103.00 32.47
104.00 31.89
105.00 31.96
106.00 32.85
107.00 34.49
108.00 36.27
109.00 37.09
110.00 36.73
111.00 35.97
112.00 35.47
113.00 35.69
114.00 36.79
115.00 38.53
116.00 39.88
117.00 39.67
118.00 38.30
119.00 36.87
120.00 36.01
121.00 35.88
122.00 36.28
123.00 36.58
124.00 36.13
125.00 34.92
126.00 33.55
127.00 32.54
128.00 32.13
129.00 32.33
130.00 32.91
131.00 33.49
132.00 33.68
133.00 33.51
134.00 33.31
135.00 33.51
136.00 34.39
137.00 36.01
138.00 38.14
139.00 40.08
140.00 40.94
141.00 40.62
142.00 39.86
143.00 39.23
144.00 38.88
145.00 38.93
146.00 39.59
147.00 40.69
148.00 40.64
149.00 38.66
150.00 36.57
151.00 35.17
152.00 34.26
153.00 33.44
154.00 32.47
155.00 31.42
156.00 30.60
157.00 30.35
158.00 30.90
159.00 32.33
160.00 34.03
161.00 34.37
162.00 33.16
163.00 32.02
164.00 31.59
165.00 31.72
166.00 32.15
167.00 32.70
168.00 33.43
169.00 34.73
170.00 36.98
171.00 40.05
172.00 41.19
173.00 39.52
174.00 38.06
175.00 37.73
176.00 38.38
177.00 39.95
178.00 41.47
179.00 43.85
180.00 44.40
181.00 41.59
182.00 38.74
183.00 37.08
184.00 36.49
185.00 36.68
186.00 37.27
187.00 37.74
188.00 37.37
189.00 36.19
190.00 34.77
191.00 33.53
192.00 32.57
193.00 31.86
194.00 31.39
195.00 31.19
196.00 31.36
197.00 32.00
198.00 33.21
199.00 35.03
200.00 37.48
201.00 40.78
202.00 45.92
203.00 51.28
204.00 44.40
205.00 39.77
206.00 37.18
207.00 35.77
208.00 35.15
209.00 35.15
210.00 35.67
211.00 36.60
212.00 37.78
213.00 38.96
214.00 39.79
215.00 40.32
216.00 41.22
217.00 43.03
218.00 44.91
219.00 44.14
220.00 42.06
221.00 40.72
222.00 40.23
223.00 40.26
224.00 40.19
225.00 39.13
226.00 37.35
227.00 35.92
228.00 35.34
229.00 35.57
230.00 36.30
231.00 37.08
232.00 37.57
233.00 37.85
234.00 38.41
235.00 39.96
236.00 43.48
237.00 50.73
238.00 50.55
239.00 45.56
240.00 44.07
241.00 44.07
242.00 43.84
243.00 42.35
244.00 40.33
245.00 38.87
246.00 38.56
247.00 39.63
248.00 42.10
249.00 45.37
250.00 46.58
251.00 43.73
252.00 40.17
253.00 37.65
254.00 36.34
255.00 35.95
256.00 36.03
257.00 36.15
258.00 36.05
259.00 35.53
260.00 34.70
261.00 34.13
262.00 34.20
263.00 34.80
264.00 35.52
265.00 36.35
266.00 37.84
267.00 40.15
268.00 41.77
269.00 41.88
270.00 42.73
271.00 45.01
272.00 45.79
273.00 44.80
274.00 45.90
275.00 50.88
276.00 55.93
277.00 52.75
278.00 53.75
279.00 47.62
280.00 41.58
281.00 38.32
282.00 36.68
283.00 35.86
284.00 35.35
285.00 34.95
286.00 34.71
287.00 34.69
288.00 34.94
289.00 35.49
290.00 36.23
291.00 36.85
292.00 37.02
293.00 36.77
294.00 35.99
295.00 34.28
296.00 31.90
297.00 29.64
298.00 27.99
299.00 27.07
300.00 26.81
301.00 27.04
302.00 27.55
303.00 28.15
304.00 28.86
305.00 30.01
306.00 32.08
307.00 34.42
308.00 31.78
309.00 26.99
310.00 23.42
311.00 20.91
312.00 19.11
313.00 17.78
314.00 16.75
315.00 15.94
316.00 15.29
317.00 14.85
318.00 14.65
319.00 14.76
320.00 15.23
321.00 16.11
322.00 17.46
323.00 19.36
324.00 21.87
325.00 25.06
326.00 28.96
327.00 33.63
328.00 38.79
329.00 41.40
330.00 40.51
331.00 40.03
332.00 40.39
333.00 40.12
334.00 38.23
335.00 35.71
336.00 33.22
337.00 30.70
338.00 28.06
339.00 25.54
340.00 23.43
341.00 21.95
342.00 21.18
343.00 21.21
344.00 22.18
345.00 24.45
346.00 29.17
347.00 45.18
348.00 32.41
349.00 26.38
350.00 24.34
351.00 24.85
352.00 27.91
353.00 25.21
354.00 17.97
355.00 12.89
356.00 9.20
357.00 6.42
358.00 4.26
359.00 2.61
