NAME ATR4518R7_1880_X_CO_M45_02T_yL
FREQUENCY 1880
GAIN 14.93 dBd
TILT	ELECTRICAL
COMMENT DATE 05.08.2013 -45 degrees polarized system Lever position 02T deg
HORIZONTAL 360
0.00 0.02
1.00 0.01
2.00 0.00
3.00 0.00
4.00 0.01
5.00 0.03
6.00 0.04
7.00 0.07
8.00 0.10
9.00 0.13
10.00 0.18
11.00 0.22
12.00 0.27
13.00 0.33
14.00 0.39
15.00 0.46
16.00 0.53
17.00 0.61
18.00 0.70
19.00 0.79
20.00 0.89
21.00 0.99
22.00 1.10
23.00 1.21
24.00 1.33
25.00 1.46
26.00 1.59
27.00 1.73
28.00 1.88
29.00 2.03
30.00 2.19
31.00 2.36
32.00 2.54
33.00 2.72
34.00 2.91
35.00 3.11
36.00 3.31
37.00 3.53
38.00 3.75
39.00 3.99
40.00 4.23
41.00 4.48
42.00 4.73
43.00 5.00
44.00 5.28
45.00 5.56
46.00 5.85
47.00 6.16
48.00 6.46
49.00 6.78
50.00 7.11
51.00 7.44
52.00 7.77
53.00 8.12
54.00 8.47
55.00 8.83
56.00 9.20
57.00 9.57
58.00 9.94
59.00 10.32
60.00 10.71
61.00 11.10
62.00 11.50
63.00 11.90
64.00 12.30
65.00 12.72
66.00 13.13
67.00 13.55
68.00 13.97
69.00 14.41
70.00 14.84
71.00 15.27
72.00 15.72
73.00 16.16
74.00 16.61
75.00 17.06
76.00 17.52
77.00 17.97
78.00 18.43
79.00 18.89
80.00 19.36
81.00 19.82
82.00 20.29
83.00 20.76
84.00 21.24
85.00 21.72
86.00 22.22
87.00 22.72
88.00 23.23
89.00 23.76
90.00 24.31
91.00 24.88
92.00 25.46
93.00 26.07
94.00 26.69
95.00 27.33
96.00 27.97
97.00 28.61
98.00 29.22
99.00 29.77
100.00 30.25
101.00 30.61
102.00 30.83
103.00 30.92
104.00 30.88
105.00 30.74
106.00 30.52
107.00 30.27
108.00 30.01
109.00 29.76
110.00 29.55
111.00 29.37
112.00 29.24
113.00 29.16
114.00 29.13
115.00 29.14
116.00 29.18
117.00 29.25
118.00 29.33
119.00 29.41
120.00 29.47
121.00 29.48
122.00 29.45
123.00 29.35
124.00 29.18
125.00 28.96
126.00 28.69
127.00 28.39
128.00 28.08
129.00 27.78
130.00 27.50
131.00 27.25
132.00 27.04
133.00 26.88
134.00 26.77
135.00 26.72
136.00 26.73
137.00 26.80
138.00 26.93
139.00 27.13
140.00 27.38
141.00 27.70
142.00 28.09
143.00 28.54
144.00 29.05
145.00 29.63
146.00 30.28
147.00 30.99
148.00 31.75
149.00 32.57
150.00 33.41
151.00 34.26
152.00 35.04
153.00 35.70
154.00 36.14
155.00 36.28
156.00 36.10
157.00 35.67
158.00 35.07
159.00 34.40
160.00 33.72
161.00 33.08
162.00 32.51
163.00 32.02
164.00 31.63
165.00 31.33
166.00 31.14
167.00 31.05
168.00 31.08
169.00 31.23
170.00 31.50
171.00 31.90
172.00 32.44
173.00 33.11
174.00 33.88
175.00 34.72
176.00 35.48
177.00 35.99
178.00 36.02
179.00 35.51
180.00 34.59
181.00 33.51
182.00 32.41
183.00 31.41
184.00 30.52
185.00 29.78
186.00 29.18
187.00 28.73
188.00 28.41
189.00 28.23
190.00 28.18
191.00 28.28
192.00 28.53
193.00 28.94
194.00 29.54
195.00 30.34
196.00 31.40
197.00 32.78
198.00 34.60
199.00 37.04
200.00 40.39
201.00 44.37
202.00 44.17
203.00 40.10
204.00 36.74
205.00 34.27
206.00 32.42
207.00 31.00
208.00 29.88
209.00 29.02
210.00 28.37
211.00 27.90
212.00 27.59
213.00 27.43
214.00 27.41
215.00 27.54
216.00 27.81
217.00 28.24
218.00 28.83
219.00 29.61
220.00 30.60
221.00 31.85
222.00 33.42
223.00 35.35
224.00 37.62
225.00 39.66
226.00 39.86
227.00 37.96
228.00 35.56
229.00 33.44
230.00 31.68
231.00 30.23
232.00 29.04
233.00 28.04
234.00 27.21
235.00 26.52
236.00 25.94
237.00 25.46
238.00 25.07
239.00 24.74
240.00 24.48
241.00 24.28
242.00 24.12
243.00 24.00
244.00 23.91
245.00 23.83
246.00 23.77
247.00 23.71
248.00 23.64
249.00 23.56
250.00 23.46
251.00 23.34
252.00 23.19
253.00 23.02
254.00 22.82
255.00 22.60
256.00 22.36
257.00 22.11
258.00 21.85
259.00 21.58
260.00 21.30
261.00 21.02
262.00 20.74
263.00 20.46
264.00 20.17
265.00 19.88
266.00 19.59
267.00 19.29
268.00 18.99
269.00 18.68
270.00 18.36
271.00 18.03
272.00 17.70
273.00 17.37
274.00 17.03
275.00 16.68
276.00 16.33
277.00 15.99
278.00 15.64
279.00 15.30
280.00 14.96
281.00 14.63
282.00 14.30
283.00 13.98
284.00 13.66
285.00 13.35
286.00 13.05
287.00 12.75
288.00 12.45
289.00 12.16
290.00 11.87
291.00 11.59
292.00 11.31
293.00 11.03
294.00 10.75
295.00 10.48
296.00 10.21
297.00 9.94
298.00 9.68
299.00 9.42
300.00 9.16
301.00 8.90
302.00 8.65
303.00 8.40
304.00 8.16
305.00 7.93
306.00 7.69
307.00 7.47
308.00 7.25
309.00 7.03
310.00 6.82
311.00 6.61
312.00 6.41
313.00 6.21
314.00 6.01
315.00 5.81
316.00 5.62
317.00 5.42
318.00 5.23
319.00 5.03
320.00 4.84
321.00 4.65
322.00 4.45
323.00 4.26
324.00 4.07
325.00 3.88
326.00 3.69
327.00 3.51
328.00 3.32
329.00 3.15
330.00 2.97
331.00 2.80
332.00 2.63
333.00 2.47
334.00 2.31
335.00 2.16
336.00 2.01
337.00 1.87
338.00 1.73
339.00 1.60
340.00 1.47
341.00 1.35
342.00 1.23
343.00 1.12
344.00 1.01
345.00 0.91
346.00 0.81
347.00 0.71
348.00 0.62
349.00 0.54
350.00 0.46
351.00 0.39
352.00 0.33
353.00 0.27
354.00 0.21
355.00 0.16
356.00 0.12
357.00 0.09
358.00 0.06
359.00 0.03
VERTICAL 360
0.00 1.84
1.00 0.59
2.00 0.03
3.00 0.15
4.00 0.98
5.00 2.69
6.00 5.59
7.00 10.54
8.00 21.51
9.00 20.29
10.00 13.73
11.00 12.11
12.00 12.78
13.00 15.40
14.00 19.76
15.00 20.40
16.00 16.97
17.00 15.21
18.00 15.30
19.00 17.10
20.00 20.47
21.00 22.95
22.00 20.81
23.00 18.39
24.00 17.20
25.00 17.18
26.00 18.41
27.00 21.37
28.00 27.74
29.00 34.73
30.00 25.51
31.00 21.92
32.00 20.54
33.00 20.26
34.00 20.63
35.00 21.39
36.00 22.31
37.00 22.79
38.00 22.28
39.00 21.22
40.00 20.31
41.00 19.70
42.00 19.22
43.00 18.71
44.00 18.23
45.00 17.97
46.00 18.08
47.00 18.67
48.00 19.76
49.00 21.39
50.00 23.54
51.00 26.29
52.00 29.89
53.00 35.29
54.00 40.54
55.00 33.73
56.00 29.10
57.00 26.49
58.00 25.03
59.00 24.30
60.00 24.00
61.00 23.93
62.00 24.01
63.00 24.25
64.00 24.72
65.00 25.47
66.00 26.50
67.00 27.75
68.00 29.09
69.00 30.40
70.00 31.66
71.00 33.03
72.00 34.85
73.00 37.59
74.00 42.14
75.00 50.93
76.00 50.69
77.00 45.06
78.00 43.32
79.00 43.34
80.00 44.11
81.00 44.33
82.00 42.60
83.00 40.30
84.00 39.20
85.00 40.05
86.00 43.62
87.00 49.85
88.00 46.80
89.00 44.56
90.00 46.34
91.00 47.67
92.00 42.80
93.00 39.82
94.00 39.19
95.00 40.20
96.00 41.76
97.00 42.57
98.00 43.00
99.00 44.15
100.00 46.13
101.00 48.22
102.00 49.95
103.00 51.77
104.00 54.65
105.00 61.69
106.00 63.39
107.00 52.55
108.00 48.08
109.00 45.78
110.00 44.56
111.00 43.79
112.00 43.12
113.00 42.42
114.00 41.84
115.00 41.55
116.00 41.49
117.00 41.27
118.00 40.51
119.00 39.36
120.00 38.41
121.00 38.04
122.00 38.35
123.00 39.18
124.00 40.28
125.00 41.91
126.00 45.09
127.00 52.04
128.00 52.04
129.00 46.04
130.00 43.79
131.00 42.89
132.00 41.86
133.00 40.58
134.00 39.64
135.00 39.37
136.00 39.88
137.00 41.25
138.00 43.30
139.00 45.11
140.00 44.78
141.00 41.74
142.00 38.38
143.00 36.12
144.00 35.14
145.00 35.27
146.00 36.06
147.00 37.22
148.00 39.06
149.00 42.21
150.00 43.50
151.00 40.12
152.00 37.93
153.00 37.61
154.00 38.34
155.00 39.04
156.00 39.59
157.00 40.36
158.00 39.45
159.00 36.50
160.00 34.13
161.00 33.07
162.00 33.06
163.00 33.69
164.00 34.48
165.00 35.32
166.00 36.45
167.00 37.90
168.00 39.15
169.00 39.52
170.00 38.95
171.00 37.78
172.00 36.41
173.00 35.18
174.00 34.21
175.00 33.42
176.00 32.70
177.00 32.10
178.00 31.81
179.00 32.16
180.00 33.54
181.00 36.40
182.00 41.29
183.00 47.63
184.00 50.92
185.00 53.71
186.00 47.67
187.00 43.80
188.00 43.71
189.00 42.41
190.00 37.01
191.00 33.32
192.00 31.80
193.00 32.18
194.00 34.37
195.00 38.37
196.00 43.47
197.00 48.36
198.00 59.49
199.00 48.61
200.00 42.67
201.00 41.29
202.00 43.89
203.00 58.36
204.00 42.89
205.00 36.72
206.00 34.26
207.00 34.09
208.00 36.00
209.00 39.92
210.00 41.64
211.00 38.89
212.00 37.22
213.00 36.27
214.00 34.69
215.00 32.77
216.00 31.41
217.00 30.96
218.00 31.47
219.00 32.86
220.00 34.92
221.00 36.77
222.00 37.19
223.00 36.70
224.00 36.67
225.00 37.76
226.00 40.06
227.00 41.57
228.00 39.08
229.00 36.23
230.00 34.73
231.00 34.63
232.00 35.91
233.00 38.76
234.00 43.79
235.00 51.21
236.00 49.51
237.00 46.25
238.00 45.17
239.00 45.26
240.00 46.34
241.00 48.89
242.00 54.10
243.00 64.94
244.00 63.65
245.00 64.39
246.00 58.56
247.00 51.02
248.00 47.14
249.00 45.33
250.00 44.84
251.00 45.11
252.00 45.64
253.00 46.17
254.00 46.89
255.00 48.17
256.00 49.98
257.00 50.66
258.00 48.83
259.00 46.94
260.00 46.61
261.00 48.79
262.00 57.09
263.00 54.88
264.00 46.05
265.00 42.21
266.00 40.17
267.00 39.00
268.00 38.08
269.00 36.86
270.00 35.26
271.00 33.73
272.00 32.67
273.00 32.13
274.00 31.89
275.00 31.63
276.00 31.05
277.00 30.12
278.00 29.05
279.00 28.11
280.00 27.44
281.00 27.09
282.00 26.98
283.00 27.06
284.00 27.28
285.00 27.70
286.00 28.49
287.00 29.87
288.00 32.18
289.00 35.61
290.00 37.84
291.00 34.95
292.00 31.62
293.00 29.33
294.00 27.75
295.00 26.50
296.00 25.28
297.00 24.01
298.00 22.82
299.00 21.90
300.00 21.43
301.00 21.50
302.00 22.12
303.00 23.24
304.00 24.74
305.00 26.56
306.00 28.62
307.00 30.05
308.00 28.88
309.00 26.19
310.00 23.89
311.00 22.36
312.00 21.47
313.00 21.01
314.00 20.82
315.00 20.86
316.00 21.26
317.00 22.14
318.00 23.50
319.00 24.95
320.00 25.51
321.00 24.74
322.00 23.44
323.00 22.29
324.00 21.48
325.00 21.03
326.00 20.98
327.00 21.42
328.00 22.49
329.00 24.24
330.00 25.99
331.00 25.59
332.00 23.30
333.00 21.37
334.00 20.53
335.00 21.04
336.00 23.31
337.00 27.70
338.00 26.63
339.00 21.29
340.00 18.16
341.00 16.78
342.00 16.83
343.00 18.41
344.00 22.25
345.00 31.66
346.00 28.79
347.00 22.21
348.00 20.01
349.00 20.14
350.00 22.39
351.00 26.96
352.00 29.59
353.00 27.53
354.00 30.55
355.00 31.59
356.00 17.84
357.00 11.19
358.00 6.86
359.00 3.87
