NAME ATR4518R7_1850_X_CO_P45_10T_yL
FREQUENCY 1850
GAIN 14.68 dBd
TILT	ELECTRICAL
COMMENT DATE 05.08.2013 +45 degrees polarized system Lever position 10T deg
HORIZONTAL 360
0.00 0.05
1.00 0.07
2.00 0.09
3.00 0.12
4.00 0.14
5.00 0.17
6.00 0.20
7.00 0.22
8.00 0.25
9.00 0.27
10.00 0.30
11.00 0.32
12.00 0.34
13.00 0.37
14.00 0.40
15.00 0.42
16.00 0.45
17.00 0.49
18.00 0.52
19.00 0.56
20.00 0.61
21.00 0.66
22.00 0.72
23.00 0.78
24.00 0.85
25.00 0.93
26.00 1.01
27.00 1.11
28.00 1.21
29.00 1.32
30.00 1.44
31.00 1.56
32.00 1.70
33.00 1.84
34.00 2.00
35.00 2.16
36.00 2.32
37.00 2.50
38.00 2.68
39.00 2.87
40.00 3.07
41.00 3.27
42.00 3.48
43.00 3.69
44.00 3.91
45.00 4.14
46.00 4.36
47.00 4.60
48.00 4.83
49.00 5.07
50.00 5.32
51.00 5.56
52.00 5.81
53.00 6.07
54.00 6.33
55.00 6.59
56.00 6.85
57.00 7.12
58.00 7.39
59.00 7.66
60.00 7.94
61.00 8.22
62.00 8.51
63.00 8.80
64.00 9.10
65.00 9.39
66.00 9.70
67.00 10.01
68.00 10.32
69.00 10.64
70.00 10.97
71.00 11.30
72.00 11.63
73.00 11.97
74.00 12.31
75.00 12.66
76.00 13.01
77.00 13.36
78.00 13.71
79.00 14.06
80.00 14.41
81.00 14.76
82.00 15.11
83.00 15.45
84.00 15.80
85.00 16.14
86.00 16.48
87.00 16.81
88.00 17.14
89.00 17.48
90.00 17.82
91.00 18.16
92.00 18.51
93.00 18.87
94.00 19.24
95.00 19.63
96.00 20.05
97.00 20.50
98.00 20.98
99.00 21.50
100.00 22.06
101.00 22.68
102.00 23.36
103.00 24.10
104.00 24.93
105.00 25.84
106.00 26.85
107.00 27.99
108.00 29.26
109.00 30.70
110.00 32.32
111.00 34.17
112.00 36.24
113.00 38.45
114.00 40.46
115.00 41.55
116.00 41.30
117.00 40.28
118.00 39.18
119.00 38.28
120.00 37.63
121.00 37.23
122.00 37.06
123.00 37.08
124.00 37.26
125.00 37.54
126.00 37.85
127.00 38.06
128.00 38.02
129.00 37.67
130.00 36.99
131.00 36.09
132.00 35.09
133.00 34.08
134.00 33.14
135.00 32.28
136.00 31.53
137.00 30.89
138.00 30.36
139.00 29.94
140.00 29.62
141.00 29.40
142.00 29.28
143.00 29.26
144.00 29.34
145.00 29.52
146.00 29.80
147.00 30.19
148.00 30.68
149.00 31.29
150.00 32.02
151.00 32.87
152.00 33.86
153.00 34.97
154.00 36.19
155.00 37.45
156.00 38.61
157.00 39.46
158.00 39.78
159.00 39.53
160.00 38.90
161.00 38.12
162.00 37.36
163.00 36.69
164.00 36.14
165.00 35.72
166.00 35.44
167.00 35.27
168.00 35.22
169.00 35.27
170.00 35.43
171.00 35.68
172.00 36.01
173.00 36.42
174.00 36.88
175.00 37.40
176.00 37.94
177.00 38.50
178.00 39.05
179.00 39.58
180.00 40.08
181.00 40.54
182.00 40.97
183.00 41.40
184.00 41.86
185.00 42.37
186.00 42.99
187.00 43.73
188.00 44.67
189.00 45.84
190.00 47.32
191.00 49.15
192.00 51.19
193.00 52.62
194.00 51.98
195.00 49.73
196.00 47.28
197.00 45.14
198.00 43.35
199.00 41.85
200.00 40.58
201.00 39.51
202.00 38.61
203.00 37.85
204.00 37.21
205.00 36.68
206.00 36.25
207.00 35.93
208.00 35.68
209.00 35.53
210.00 35.46
211.00 35.47
212.00 35.55
213.00 35.71
214.00 35.93
215.00 36.20
216.00 36.50
217.00 36.79
218.00 37.02
219.00 37.12
220.00 37.02
221.00 36.71
222.00 36.19
223.00 35.50
224.00 34.71
225.00 33.88
226.00 33.06
227.00 32.27
228.00 31.54
229.00 30.88
230.00 30.29
231.00 29.79
232.00 29.35
233.00 29.00
234.00 28.73
235.00 28.53
236.00 28.42
237.00 28.38
238.00 28.42
239.00 28.54
240.00 28.74
241.00 29.01
242.00 29.36
243.00 29.76
244.00 30.21
245.00 30.66
246.00 31.06
247.00 31.36
248.00 31.46
249.00 31.32
250.00 30.92
251.00 30.31
252.00 29.54
253.00 28.71
254.00 27.85
255.00 27.00
256.00 26.20
257.00 25.44
258.00 24.73
259.00 24.07
260.00 23.45
261.00 22.89
262.00 22.36
263.00 21.86
264.00 21.40
265.00 20.97
266.00 20.55
267.00 20.16
268.00 19.78
269.00 19.42
270.00 19.07
271.00 18.73
272.00 18.39
273.00 18.07
274.00 17.74
275.00 17.42
276.00 17.11
277.00 16.80
278.00 16.50
279.00 16.19
280.00 15.90
281.00 15.61
282.00 15.32
283.00 15.04
284.00 14.76
285.00 14.49
286.00 14.22
287.00 13.97
288.00 13.71
289.00 13.46
290.00 13.21
291.00 12.97
292.00 12.72
293.00 12.49
294.00 12.25
295.00 12.01
296.00 11.78
297.00 11.54
298.00 11.31
299.00 11.07
300.00 10.84
301.00 10.60
302.00 10.37
303.00 10.13
304.00 9.90
305.00 9.66
306.00 9.43
307.00 9.20
308.00 8.98
309.00 8.75
310.00 8.53
311.00 8.30
312.00 8.08
313.00 7.86
314.00 7.64
315.00 7.42
316.00 7.20
317.00 6.98
318.00 6.75
319.00 6.52
320.00 6.28
321.00 6.04
322.00 5.78
323.00 5.53
324.00 5.27
325.00 5.00
326.00 4.73
327.00 4.46
328.00 4.19
329.00 3.91
330.00 3.64
331.00 3.37
332.00 3.10
333.00 2.84
334.00 2.59
335.00 2.34
336.00 2.11
337.00 1.88
338.00 1.67
339.00 1.47
340.00 1.28
341.00 1.11
342.00 0.94
343.00 0.80
344.00 0.66
345.00 0.54
346.00 0.43
347.00 0.34
348.00 0.26
349.00 0.19
350.00 0.13
351.00 0.09
352.00 0.05
353.00 0.03
354.00 0.01
355.00 0.00
356.00 0.00
357.00 0.00
358.00 0.02
359.00 0.03
VERTICAL 360
0.00 26.99
1.00 28.56
2.00 22.63
3.00 15.81
4.00 10.68
5.00 6.86
6.00 4.04
7.00 2.04
8.00 0.74
9.00 0.09
10.00 0.06
11.00 0.66
12.00 1.98
13.00 4.19
14.00 7.72
15.00 13.73
16.00 24.49
17.00 16.92
18.00 13.15
19.00 12.38
20.00 13.57
21.00 16.77
22.00 22.33
23.00 22.07
24.00 17.23
25.00 14.65
26.00 13.74
27.00 14.20
28.00 16.12
29.00 19.87
30.00 24.10
31.00 21.42
32.00 18.19
33.00 16.84
34.00 16.96
35.00 18.30
36.00 20.83
37.00 24.54
38.00 26.89
39.00 23.53
40.00 19.91
41.00 17.62
42.00 16.46
43.00 16.25
44.00 16.84
45.00 18.12
46.00 19.87
47.00 21.74
48.00 23.15
49.00 23.55
50.00 23.03
51.00 22.18
52.00 21.47
53.00 21.11
54.00 21.14
55.00 21.44
56.00 21.83
57.00 22.24
58.00 22.79
59.00 23.70
60.00 25.10
61.00 26.93
62.00 28.93
63.00 30.60
64.00 31.66
65.00 32.38
66.00 33.21
67.00 34.41
68.00 35.87
69.00 37.16
70.00 37.86
71.00 38.03
72.00 38.04
73.00 38.00
74.00 37.75
75.00 37.12
76.00 36.27
77.00 35.52
78.00 35.06
79.00 34.91
80.00 34.95
81.00 35.00
82.00 34.94
83.00 34.77
84.00 34.53
85.00 34.31
86.00 34.22
87.00 34.52
88.00 35.80
89.00 39.05
90.00 47.13
91.00 53.81
92.00 44.78
93.00 44.47
94.00 44.48
95.00 39.86
96.00 36.65
97.00 35.67
98.00 36.49
99.00 38.65
100.00 41.25
101.00 42.54
102.00 41.73
103.00 40.36
104.00 39.69
105.00 40.09
106.00 41.34
107.00 42.61
108.00 42.47
109.00 40.70
110.00 38.50
111.00 36.70
112.00 35.47
113.00 34.69
114.00 34.13
115.00 33.64
116.00 33.17
117.00 32.78
118.00 32.55
119.00 32.51
120.00 32.57
121.00 32.60
122.00 32.48
123.00 32.29
124.00 32.13
125.00 32.12
126.00 32.26
127.00 32.52
128.00 32.89
129.00 33.45
130.00 34.33
131.00 35.63
132.00 37.27
133.00 38.94
134.00 40.27
135.00 41.29
136.00 42.66
137.00 45.66
138.00 51.32
139.00 44.89
140.00 38.81
141.00 35.57
142.00 34.11
143.00 33.97
144.00 34.72
145.00 35.58
146.00 35.82
147.00 35.85
148.00 36.37
149.00 37.29
150.00 37.56
151.00 36.62
152.00 35.48
153.00 35.03
154.00 35.65
155.00 37.29
156.00 38.83
157.00 38.71
158.00 38.11
159.00 37.77
160.00 36.33
161.00 34.03
162.00 32.36
163.00 31.70
164.00 31.71
165.00 31.74
166.00 31.51
167.00 31.42
168.00 32.02
169.00 33.68
170.00 36.48
171.00 38.75
172.00 37.43
173.00 35.42
174.00 34.56
175.00 34.65
176.00 34.96
177.00 35.01
178.00 35.28
179.00 36.27
180.00 36.88
181.00 35.34
182.00 33.49
183.00 32.87
184.00 33.64
185.00 35.49
186.00 37.98
187.00 41.49
188.00 49.39
189.00 51.04
190.00 42.72
191.00 40.66
192.00 41.61
193.00 44.45
194.00 45.21
195.00 42.78
196.00 40.71
197.00 39.11
198.00 37.79
199.00 37.12
200.00 37.74
201.00 40.77
202.00 50.58
203.00 41.82
204.00 34.53
205.00 30.66
206.00 28.40
207.00 27.21
208.00 26.83
209.00 27.04
210.00 27.60
211.00 28.29
212.00 28.99
213.00 29.74
214.00 30.65
215.00 31.93
216.00 33.87
217.00 37.00
218.00 42.39
219.00 52.91
220.00 46.35
221.00 41.03
222.00 38.23
223.00 36.43
224.00 35.25
225.00 34.66
226.00 34.70
227.00 35.36
228.00 36.50
229.00 37.74
230.00 38.51
231.00 38.53
232.00 38.24
233.00 38.29
234.00 39.13
235.00 40.96
236.00 43.19
237.00 43.94
238.00 43.38
239.00 43.77
240.00 46.42
241.00 52.81
242.00 51.51
243.00 45.39
244.00 42.32
245.00 40.66
246.00 39.70
247.00 39.20
248.00 39.21
249.00 39.96
250.00 41.92
251.00 46.14
252.00 55.27
253.00 48.30
254.00 42.45
255.00 39.42
256.00 37.63
257.00 36.47
258.00 35.68
259.00 35.23
260.00 35.19
261.00 35.66
262.00 36.66
263.00 38.03
264.00 39.30
265.00 39.91
266.00 39.85
267.00 39.47
268.00 38.90
269.00 38.13
270.00 37.18
271.00 36.12
272.00 35.11
273.00 34.17
274.00 33.28
275.00 32.32
276.00 31.21
277.00 29.93
278.00 28.54
279.00 27.16
280.00 25.92
281.00 24.91
282.00 24.18
283.00 23.69
284.00 23.40
285.00 23.26
286.00 23.25
287.00 23.35
288.00 23.57
289.00 23.94
290.00 24.53
291.00 25.50
292.00 27.17
293.00 30.09
294.00 35.34
295.00 36.52
296.00 30.12
297.00 26.14
298.00 23.75
299.00 22.32
300.00 21.55
301.00 21.26
302.00 21.44
303.00 22.14
304.00 23.54
305.00 26.00
306.00 30.45
307.00 41.31
308.00 35.45
309.00 28.29
310.00 24.84
311.00 23.03
312.00 22.42
313.00 23.03
314.00 25.28
315.00 30.89
316.00 41.31
317.00 27.36
318.00 22.20
319.00 19.48
320.00 18.13
321.00 17.85
322.00 18.64
323.00 20.84
324.00 25.77
325.00 54.89
326.00 25.33
327.00 19.15
328.00 16.00
329.00 14.43
330.00 14.10
331.00 15.00
332.00 17.30
333.00 21.59
334.00 29.70
335.00 33.92
336.00 28.36
337.00 27.87
338.00 31.40
339.00 38.40
340.00 28.29
341.00 22.93
342.00 20.33
343.00 19.53
344.00 20.39
345.00 23.18
346.00 29.13
347.00 37.15
348.00 30.29
349.00 28.13
350.00 29.02
351.00 29.74
352.00 25.10
353.00 21.14
354.00 18.69
355.00 17.48
356.00 17.29
357.00 18.07
358.00 19.97
359.00 22.97
