NAME ATR4518R7_2140_X_CO_M45_05T_yL
FREQUENCY 2140
GAIN 15.90 dBd
TILT	ELECTRICAL
COMMENT DATE 05.08.2013 -45 degrees polarized system Lever position 05T deg
HORIZONTAL 360
0.00 0.05
1.00 0.07
2.00 0.09
3.00 0.12
4.00 0.16
5.00 0.20
6.00 0.24
7.00 0.29
8.00 0.35
9.00 0.42
10.00 0.49
11.00 0.57
12.00 0.66
13.00 0.76
14.00 0.87
15.00 0.98
16.00 1.10
17.00 1.24
18.00 1.38
19.00 1.53
20.00 1.68
21.00 1.84
22.00 2.01
23.00 2.19
24.00 2.37
25.00 2.56
26.00 2.75
27.00 2.95
28.00 3.15
29.00 3.36
30.00 3.56
31.00 3.78
32.00 3.99
33.00 4.21
34.00 4.43
35.00 4.66
36.00 4.88
37.00 5.11
38.00 5.35
39.00 5.58
40.00 5.82
41.00 6.06
42.00 6.30
43.00 6.54
44.00 6.79
45.00 7.04
46.00 7.28
47.00 7.53
48.00 7.79
49.00 8.04
50.00 8.29
51.00 8.55
52.00 8.81
53.00 9.07
54.00 9.33
55.00 9.59
56.00 9.86
57.00 10.13
58.00 10.41
59.00 10.68
60.00 10.97
61.00 11.26
62.00 11.56
63.00 11.86
64.00 12.18
65.00 12.50
66.00 12.83
67.00 13.17
68.00 13.52
69.00 13.89
70.00 14.27
71.00 14.65
72.00 15.05
73.00 15.45
74.00 15.87
75.00 16.30
76.00 16.73
77.00 17.17
78.00 17.61
79.00 18.06
80.00 18.51
81.00 18.95
82.00 19.40
83.00 19.83
84.00 20.26
85.00 20.68
86.00 21.10
87.00 21.51
88.00 21.91
89.00 22.32
90.00 22.73
91.00 23.14
92.00 23.57
93.00 24.03
94.00 24.51
95.00 25.03
96.00 25.60
97.00 26.23
98.00 26.93
99.00 27.70
100.00 28.58
101.00 29.56
102.00 30.69
103.00 31.99
104.00 33.50
105.00 35.28
106.00 37.45
107.00 40.17
108.00 43.77
109.00 48.78
110.00 52.91
111.00 49.13
112.00 45.35
113.00 42.94
114.00 41.39
115.00 40.41
116.00 39.86
117.00 39.66
118.00 39.76
119.00 40.16
120.00 40.84
121.00 41.82
122.00 43.06
123.00 44.48
124.00 45.67
125.00 45.99
126.00 45.07
127.00 43.46
128.00 41.78
129.00 40.26
130.00 38.97
131.00 37.90
132.00 37.02
133.00 36.31
134.00 35.72
135.00 35.24
136.00 34.84
137.00 34.50
138.00 34.21
139.00 33.95
140.00 33.70
141.00 33.46
142.00 33.22
143.00 33.00
144.00 32.79
145.00 32.61
146.00 32.48
147.00 32.39
148.00 32.37
149.00 32.44
150.00 32.59
151.00 32.85
152.00 33.22
153.00 33.71
154.00 34.32
155.00 35.06
156.00 35.88
157.00 36.73
158.00 37.45
159.00 37.85
160.00 37.77
161.00 37.19
162.00 36.30
163.00 35.31
164.00 34.34
165.00 33.47
166.00 32.74
167.00 32.16
168.00 31.72
169.00 31.42
170.00 31.27
171.00 31.26
172.00 31.40
173.00 31.69
174.00 32.13
175.00 32.72
176.00 33.48
177.00 34.38
178.00 35.38
179.00 36.41
180.00 37.26
181.00 37.68
182.00 37.50
183.00 36.81
184.00 35.85
185.00 34.86
186.00 33.97
187.00 33.21
188.00 32.61
189.00 32.17
190.00 31.90
191.00 31.79
192.00 31.85
193.00 32.07
194.00 32.47
195.00 33.07
196.00 33.89
197.00 34.98
198.00 36.41
199.00 38.30
200.00 40.91
201.00 44.78
202.00 51.18
203.00 52.73
204.00 45.87
205.00 41.74
206.00 39.04
207.00 37.11
208.00 35.68
209.00 34.60
210.00 33.78
211.00 33.19
212.00 32.78
213.00 32.54
214.00 32.45
215.00 32.50
216.00 32.70
217.00 33.05
218.00 33.56
219.00 34.23
220.00 35.12
221.00 36.25
222.00 37.71
223.00 39.64
224.00 42.30
225.00 46.36
226.00 53.79
227.00 53.97
228.00 46.22
229.00 41.94
230.00 39.07
231.00 36.95
232.00 35.29
233.00 33.95
234.00 32.85
235.00 31.95
236.00 31.21
237.00 30.60
238.00 30.11
239.00 29.73
240.00 29.45
241.00 29.25
242.00 29.13
243.00 29.08
244.00 29.08
245.00 29.13
246.00 29.20
247.00 29.26
248.00 29.31
249.00 29.30
250.00 29.22
251.00 29.04
252.00 28.78
253.00 28.43
254.00 28.00
255.00 27.54
256.00 27.06
257.00 26.57
258.00 26.09
259.00 25.65
260.00 25.22
261.00 24.84
262.00 24.48
263.00 24.15
264.00 23.85
265.00 23.57
266.00 23.29
267.00 23.03
268.00 22.76
269.00 22.47
270.00 22.17
271.00 21.85
272.00 21.50
273.00 21.12
274.00 20.72
275.00 20.30
276.00 19.86
277.00 19.41
278.00 18.95
279.00 18.49
280.00 18.03
281.00 17.58
282.00 17.13
283.00 16.70
284.00 16.28
285.00 15.87
286.00 15.48
287.00 15.10
288.00 14.73
289.00 14.38
290.00 14.04
291.00 13.71
292.00 13.39
293.00 13.07
294.00 12.76
295.00 12.46
296.00 12.15
297.00 11.85
298.00 11.55
299.00 11.24
300.00 10.94
301.00 10.63
302.00 10.32
303.00 10.01
304.00 9.70
305.00 9.38
306.00 9.07
307.00 8.75
308.00 8.44
309.00 8.12
310.00 7.81
311.00 7.50
312.00 7.20
313.00 6.90
314.00 6.60
315.00 6.31
316.00 6.02
317.00 5.73
318.00 5.45
319.00 5.17
320.00 4.90
321.00 4.63
322.00 4.36
323.00 4.10
324.00 3.85
325.00 3.59
326.00 3.35
327.00 3.11
328.00 2.87
329.00 2.65
330.00 2.43
331.00 2.21
332.00 2.01
333.00 1.82
334.00 1.63
335.00 1.46
336.00 1.29
337.00 1.13
338.00 0.99
339.00 0.86
340.00 0.74
341.00 0.63
342.00 0.53
343.00 0.43
344.00 0.36
345.00 0.29
346.00 0.22
347.00 0.17
348.00 0.13
349.00 0.09
350.00 0.06
351.00 0.04
352.00 0.02
353.00 0.01
354.00 0.00
355.00 0.00
356.00 0.01
357.00 0.01
358.00 0.02
359.00 0.03
VERTICAL 360
0.00 12.16
1.00 7.44
2.00 4.08
3.00 1.80
4.00 0.46
5.00 0.00
6.00 0.42
7.00 1.79
8.00 4.33
9.00 8.65
10.00 17.13
11.00 22.30
12.00 14.39
13.00 12.77
14.00 14.01
15.00 17.26
16.00 19.61
17.00 17.93
18.00 16.35
19.00 16.14
20.00 17.49
21.00 21.16
22.00 27.01
23.00 22.54
24.00 18.85
25.00 18.25
26.00 20.09
27.00 23.36
28.00 23.00
29.00 20.29
30.00 18.83
31.00 18.49
32.00 18.92
33.00 20.20
34.00 22.87
35.00 27.77
36.00 30.59
37.00 26.13
38.00 23.63
39.00 22.94
40.00 23.25
41.00 23.92
42.00 24.70
43.00 25.75
44.00 27.26
45.00 29.09
46.00 30.75
47.00 31.84
48.00 32.49
49.00 32.92
50.00 32.71
51.00 31.17
52.00 28.90
53.00 27.00
54.00 26.01
55.00 26.12
56.00 27.43
57.00 30.10
58.00 34.47
59.00 41.79
60.00 48.75
61.00 39.50
62.00 34.93
63.00 32.36
64.00 30.96
65.00 30.35
66.00 30.33
67.00 30.73
68.00 31.43
69.00 32.36
70.00 33.46
71.00 34.70
72.00 35.97
73.00 37.08
74.00 37.98
75.00 38.83
76.00 39.90
77.00 41.57
78.00 44.61
79.00 48.91
80.00 48.97
81.00 48.09
82.00 51.24
83.00 55.28
84.00 50.08
85.00 48.69
86.00 49.95
87.00 49.76
88.00 48.94
89.00 50.83
90.00 55.36
91.00 54.21
92.00 51.38
93.00 49.20
94.00 46.69
95.00 44.93
96.00 44.49
97.00 45.37
98.00 46.91
99.00 46.75
100.00 45.05
101.00 44.45
102.00 45.82
103.00 49.12
104.00 50.91
105.00 48.29
106.00 46.73
107.00 47.49
108.00 49.84
109.00 49.70
110.00 48.44
111.00 50.33
112.00 59.19
113.00 59.21
114.00 54.51
115.00 58.90
116.00 66.11
117.00 54.53
118.00 50.93
119.00 48.05
120.00 45.86
121.00 45.27
122.00 46.37
123.00 48.80
124.00 51.03
125.00 51.63
126.00 53.33
127.00 54.94
128.00 48.02
129.00 43.57
130.00 41.90
131.00 42.31
132.00 44.27
133.00 46.89
134.00 48.57
135.00 48.62
136.00 48.55
137.00 50.85
138.00 59.98
139.00 48.53
140.00 41.42
141.00 37.43
142.00 35.02
143.00 33.73
144.00 33.44
145.00 34.10
146.00 35.68
147.00 37.93
148.00 39.74
149.00 39.33
150.00 37.93
151.00 37.64
152.00 39.38
153.00 43.19
154.00 43.70
155.00 40.87
156.00 39.97
157.00 40.50
158.00 40.98
159.00 40.37
160.00 38.81
161.00 37.53
162.00 37.60
163.00 39.19
164.00 40.09
165.00 38.71
166.00 38.19
167.00 39.62
168.00 41.89
169.00 43.80
170.00 50.10
171.00 49.06
172.00 38.62
173.00 34.56
174.00 32.98
175.00 32.72
176.00 32.79
177.00 32.50
178.00 32.43
179.00 33.67
180.00 37.20
181.00 40.29
182.00 36.19
183.00 33.65
184.00 33.58
185.00 35.44
186.00 38.30
187.00 39.65
188.00 39.40
189.00 40.37
190.00 44.40
191.00 53.12
192.00 47.79
193.00 45.04
194.00 44.73
195.00 43.78
196.00 43.62
197.00 46.07
198.00 46.13
199.00 42.08
200.00 40.64
201.00 42.01
202.00 45.57
203.00 47.23
204.00 46.34
205.00 48.26
206.00 57.61
207.00 55.07
208.00 49.79
209.00 48.15
210.00 43.03
211.00 38.84
212.00 36.97
213.00 36.74
214.00 36.73
215.00 35.55
216.00 34.09
217.00 33.56
218.00 34.37
219.00 36.78
220.00 41.29
221.00 50.22
222.00 52.45
223.00 45.18
224.00 43.66
225.00 45.15
226.00 44.46
227.00 40.64
228.00 38.86
229.00 39.42
230.00 40.83
231.00 38.58
232.00 34.88
233.00 32.74
234.00 32.47
235.00 34.14
236.00 37.84
237.00 41.47
238.00 40.69
239.00 39.51
240.00 39.14
241.00 39.24
242.00 40.21
243.00 42.54
244.00 45.22
245.00 44.81
246.00 43.22
247.00 42.22
248.00 40.81
249.00 39.42
250.00 39.44
251.00 41.65
252.00 44.36
253.00 41.39
254.00 38.20
255.00 36.34
256.00 34.18
257.00 31.27
258.00 28.69
259.00 27.02
260.00 26.16
261.00 25.73
262.00 25.18
263.00 24.24
264.00 23.09
265.00 22.12
266.00 21.53
267.00 21.29
268.00 21.21
269.00 21.10
270.00 20.92
271.00 20.78
272.00 20.77
273.00 20.94
274.00 21.26
275.00 21.70
276.00 22.26
277.00 23.07
278.00 24.23
279.00 25.69
280.00 27.14
281.00 28.07
282.00 28.27
283.00 28.07
284.00 27.90
285.00 27.96
286.00 28.39
287.00 29.31
288.00 30.53
289.00 31.23
290.00 30.87
291.00 30.07
292.00 29.36
293.00 28.89
294.00 28.83
295.00 29.51
296.00 31.29
297.00 33.95
298.00 34.70
299.00 33.06
300.00 32.62
301.00 34.56
302.00 37.13
303.00 33.17
304.00 29.21
305.00 27.22
306.00 26.47
307.00 26.26
308.00 26.54
309.00 28.17
310.00 33.35
311.00 46.54
312.00 30.75
313.00 26.74
314.00 26.05
315.00 27.39
316.00 28.79
317.00 27.88
318.00 26.64
319.00 25.23
320.00 22.40
321.00 19.57
322.00 18.00
323.00 17.91
324.00 19.34
325.00 22.18
326.00 24.73
327.00 23.57
328.00 21.32
329.00 19.99
330.00 19.67
331.00 20.26
332.00 21.54
333.00 22.68
334.00 22.62
335.00 22.13
336.00 22.64
337.00 24.77
338.00 27.27
339.00 25.23
340.00 21.93
341.00 20.08
342.00 19.84
343.00 21.74
344.00 27.99
345.00 33.39
346.00 23.12
347.00 20.24
348.00 20.70
349.00 24.78
350.00 36.24
351.00 24.77
352.00 19.61
353.00 17.51
354.00 17.10
355.00 17.79
356.00 18.96
357.00 20.48
358.00 22.17
359.00 18.42
