NAME ATR4518R7_2535_X_CO_P45_10T_yyR
FREQUENCY 2535
GAIN 14.97 dBd
TILT	ELECTRICAL
COMMENT DATE 05.08.2013 +45 degrees polarized system Lever position 10T deg
HORIZONTAL 360
0.00 0.03
1.00 0.05
2.00 0.09
3.00 0.14
4.00 0.20
5.00 0.27
6.00 0.35
7.00 0.43
8.00 0.51
9.00 0.60
10.00 0.69
11.00 0.78
12.00 0.87
13.00 0.96
14.00 1.05
15.00 1.14
16.00 1.22
17.00 1.30
18.00 1.38
19.00 1.46
20.00 1.54
21.00 1.62
22.00 1.70
23.00 1.79
24.00 1.88
25.00 1.97
26.00 2.08
27.00 2.19
28.00 2.32
29.00 2.45
30.00 2.60
31.00 2.77
32.00 2.94
33.00 3.14
34.00 3.34
35.00 3.57
36.00 3.81
37.00 4.06
38.00 4.33
39.00 4.62
40.00 4.92
41.00 5.24
42.00 5.57
43.00 5.91
44.00 6.27
45.00 6.64
46.00 7.01
47.00 7.40
48.00 7.79
49.00 8.19
50.00 8.59
51.00 9.00
52.00 9.40
53.00 9.81
54.00 10.21
55.00 10.61
56.00 11.00
57.00 11.40
58.00 11.78
59.00 12.16
60.00 12.53
61.00 12.91
62.00 13.27
63.00 13.64
64.00 14.00
65.00 14.37
66.00 14.73
67.00 15.11
68.00 15.48
69.00 15.87
70.00 16.27
71.00 16.67
72.00 17.09
73.00 17.53
74.00 17.97
75.00 18.43
76.00 18.90
77.00 19.39
78.00 19.88
79.00 20.38
80.00 20.88
81.00 21.38
82.00 21.87
83.00 22.35
84.00 22.81
85.00 23.26
86.00 23.68
87.00 24.08
88.00 24.47
89.00 24.83
90.00 25.19
91.00 25.54
92.00 25.89
93.00 26.25
94.00 26.62
95.00 27.01
96.00 27.42
97.00 27.85
98.00 28.29
99.00 28.73
100.00 29.17
101.00 29.59
102.00 29.96
103.00 30.28
104.00 30.54
105.00 30.72
106.00 30.84
107.00 30.92
108.00 30.97
109.00 31.01
110.00 31.08
111.00 31.19
112.00 31.37
113.00 31.62
114.00 31.98
115.00 32.46
116.00 33.07
117.00 33.84
118.00 34.79
119.00 35.98
120.00 37.46
121.00 39.32
122.00 41.74
123.00 45.03
124.00 49.76
125.00 54.36
126.00 50.55
127.00 46.32
128.00 43.57
129.00 41.73
130.00 40.46
131.00 39.62
132.00 39.11
133.00 38.87
134.00 38.88
135.00 39.12
136.00 39.59
137.00 40.29
138.00 41.24
139.00 42.48
140.00 44.05
141.00 46.04
142.00 48.60
143.00 52.01
144.00 56.98
145.00 65.52
146.00 66.23
147.00 60.13
148.00 57.66
149.00 57.03
150.00 57.82
151.00 60.06
152.00 62.26
153.00 58.78
154.00 53.84
155.00 50.04
156.00 47.14
157.00 44.86
158.00 43.02
159.00 41.53
160.00 40.32
161.00 39.34
162.00 38.56
163.00 37.96
164.00 37.52
165.00 37.22
166.00 37.05
167.00 37.00
168.00 37.06
169.00 37.21
170.00 37.42
171.00 37.69
172.00 37.97
173.00 38.26
174.00 38.52
175.00 38.76
176.00 38.97
177.00 39.17
178.00 39.39
179.00 39.66
180.00 40.01
181.00 40.47
182.00 41.03
183.00 41.65
184.00 42.20
185.00 42.46
186.00 42.15
187.00 41.22
188.00 39.88
189.00 38.41
190.00 36.98
191.00 35.69
192.00 34.54
193.00 33.57
194.00 32.75
195.00 32.09
196.00 31.58
197.00 31.20
198.00 30.97
199.00 30.86
200.00 30.89
201.00 31.04
202.00 31.33
203.00 31.72
204.00 32.22
205.00 32.78
206.00 33.36
207.00 33.88
208.00 34.21
209.00 34.28
210.00 34.05
211.00 33.58
212.00 32.97
213.00 32.32
214.00 31.71
215.00 31.18
216.00 30.77
217.00 30.47
218.00 30.31
219.00 30.29
220.00 30.41
221.00 30.68
222.00 31.10
223.00 31.69
224.00 32.45
225.00 33.41
226.00 34.57
227.00 35.94
228.00 37.45
229.00 38.92
230.00 39.94
231.00 40.07
232.00 39.32
233.00 38.17
234.00 37.00
235.00 35.99
236.00 35.19
237.00 34.59
238.00 34.18
239.00 33.95
240.00 33.89
241.00 33.98
242.00 34.23
243.00 34.62
244.00 35.13
245.00 35.80
246.00 36.57
247.00 37.47
248.00 38.43
249.00 39.45
250.00 40.45
251.00 41.35
252.00 42.06
253.00 42.53
254.00 42.78
255.00 42.82
256.00 42.70
257.00 42.48
258.00 42.12
259.00 41.60
260.00 40.91
261.00 40.05
262.00 39.04
263.00 37.94
264.00 36.80
265.00 35.67
266.00 34.57
267.00 33.52
268.00 32.52
269.00 31.59
270.00 30.71
271.00 29.89
272.00 29.12
273.00 28.38
274.00 27.68
275.00 27.01
276.00 26.37
277.00 25.73
278.00 25.12
279.00 24.51
280.00 23.91
281.00 23.31
282.00 22.71
283.00 22.11
284.00 21.52
285.00 20.93
286.00 20.34
287.00 19.75
288.00 19.16
289.00 18.58
290.00 18.00
291.00 17.42
292.00 16.85
293.00 16.29
294.00 15.73
295.00 15.18
296.00 14.64
297.00 14.10
298.00 13.57
299.00 13.05
300.00 12.53
301.00 12.03
302.00 11.54
303.00 11.05
304.00 10.57
305.00 10.10
306.00 9.65
307.00 9.20
308.00 8.76
309.00 8.34
310.00 7.93
311.00 7.53
312.00 7.15
313.00 6.78
314.00 6.43
315.00 6.08
316.00 5.76
317.00 5.44
318.00 5.14
319.00 4.86
320.00 4.59
321.00 4.34
322.00 4.10
323.00 3.87
324.00 3.66
325.00 3.46
326.00 3.28
327.00 3.10
328.00 2.94
329.00 2.79
330.00 2.64
331.00 2.51
332.00 2.38
333.00 2.25
334.00 2.14
335.00 2.02
336.00 1.91
337.00 1.79
338.00 1.68
339.00 1.57
340.00 1.46
341.00 1.34
342.00 1.23
343.00 1.12
344.00 1.00
345.00 0.89
346.00 0.78
347.00 0.67
348.00 0.57
349.00 0.47
350.00 0.38
351.00 0.30
352.00 0.22
353.00 0.16
354.00 0.10
355.00 0.06
356.00 0.03
357.00 0.01
358.00 0.00
359.00 0.01
VERTICAL 360
0.00 18.32
1.00 17.41
2.00 17.14
3.00 16.71
4.00 14.71
5.00 10.97
6.00 7.03
7.00 3.82
8.00 1.56
9.00 0.28
10.00 0.00
11.00 0.83
12.00 3.01
13.00 7.24
14.00 16.52
15.00 22.30
16.00 12.99
17.00 11.24
18.00 12.60
19.00 17.51
20.00 25.79
21.00 19.05
22.00 16.28
23.00 17.41
24.00 22.37
25.00 31.33
26.00 25.39
27.00 22.25
28.00 23.16
29.00 29.06
30.00 32.63
31.00 23.36
32.00 20.15
33.00 19.76
34.00 21.77
35.00 26.91
36.00 29.00
37.00 23.36
38.00 21.33
39.00 22.22
40.00 25.46
41.00 29.74
42.00 31.11
43.00 29.02
44.00 26.56
45.00 25.85
46.00 28.37
47.00 34.71
48.00 30.25
49.00 26.49
50.00 26.52
51.00 28.21
52.00 29.17
53.00 29.92
54.00 34.54
55.00 41.41
56.00 28.51
57.00 24.56
58.00 23.68
59.00 24.09
60.00 24.57
61.00 25.20
62.00 26.64
63.00 28.86
64.00 30.16
65.00 29.24
66.00 28.58
67.00 29.21
68.00 30.40
69.00 31.00
70.00 30.91
71.00 31.13
72.00 32.48
73.00 34.59
74.00 35.76
75.00 34.51
76.00 31.89
77.00 30.30
78.00 30.51
79.00 31.71
80.00 31.61
81.00 30.13
82.00 28.79
83.00 27.96
84.00 27.72
85.00 27.84
86.00 28.26
87.00 30.18
88.00 35.59
89.00 38.53
90.00 34.97
91.00 35.00
92.00 31.48
93.00 28.16
94.00 28.14
95.00 31.07
96.00 35.43
97.00 36.19
98.00 31.70
99.00 28.88
100.00 29.18
101.00 31.49
102.00 32.50
103.00 33.68
104.00 39.19
105.00 43.05
106.00 40.21
107.00 43.59
108.00 53.45
109.00 53.93
110.00 42.37
111.00 38.73
112.00 38.05
113.00 37.24
114.00 36.70
115.00 36.60
116.00 34.96
117.00 33.67
118.00 34.24
119.00 35.89
120.00 35.56
121.00 33.57
122.00 33.49
123.00 36.43
124.00 40.28
125.00 39.01
126.00 36.36
127.00 34.70
128.00 35.76
129.00 40.07
130.00 43.58
131.00 51.50
132.00 41.93
133.00 35.52
134.00 35.85
135.00 37.96
136.00 34.45
137.00 32.89
138.00 34.45
139.00 37.40
140.00 41.86
141.00 53.72
142.00 45.68
143.00 42.64
144.00 41.39
145.00 39.49
146.00 39.21
147.00 39.71
148.00 38.51
149.00 35.96
150.00 34.54
151.00 35.39
152.00 38.10
153.00 40.15
154.00 42.02
155.00 47.45
156.00 60.28
157.00 50.24
158.00 41.34
159.00 38.08
160.00 37.50
161.00 37.07
162.00 37.28
163.00 41.88
164.00 47.27
165.00 39.55
166.00 39.96
167.00 46.28
168.00 42.62
169.00 39.43
170.00 39.39
171.00 40.80
172.00 42.69
173.00 39.40
174.00 37.02
175.00 37.93
176.00 40.37
177.00 41.18
178.00 39.28
179.00 37.70
180.00 38.69
181.00 39.21
182.00 36.97
183.00 37.49
184.00 43.13
185.00 46.55
186.00 39.83
187.00 37.26
188.00 36.48
189.00 36.08
190.00 35.02
191.00 33.34
192.00 31.58
193.00 30.76
194.00 31.92
195.00 36.18
196.00 41.23
197.00 36.62
198.00 34.78
199.00 36.27
200.00 38.82
201.00 40.74
202.00 46.89
203.00 56.99
204.00 43.95
205.00 41.92
206.00 41.64
207.00 41.56
208.00 41.37
209.00 41.46
210.00 42.19
211.00 43.54
212.00 46.88
213.00 48.39
214.00 48.04
215.00 48.77
216.00 41.13
217.00 38.67
218.00 41.01
219.00 43.94
220.00 41.14
221.00 39.12
222.00 37.38
223.00 36.71
224.00 37.74
225.00 38.68
226.00 36.76
227.00 33.84
228.00 32.45
229.00 33.03
230.00 34.82
231.00 36.05
232.00 36.16
233.00 36.28
234.00 36.90
235.00 36.88
236.00 35.47
237.00 34.91
238.00 36.55
239.00 40.61
240.00 44.04
241.00 42.97
242.00 42.92
243.00 45.18
244.00 43.72
245.00 40.24
246.00 40.47
247.00 42.21
248.00 39.16
249.00 37.54
250.00 39.33
251.00 42.90
252.00 48.65
253.00 48.97
254.00 39.93
255.00 39.04
256.00 43.81
257.00 40.96
258.00 36.92
259.00 37.93
260.00 42.98
261.00 47.62
262.00 43.11
263.00 38.45
264.00 36.75
265.00 37.59
266.00 40.44
267.00 46.91
268.00 47.82
269.00 43.50
270.00 50.08
271.00 43.88
272.00 35.83
273.00 32.58
274.00 31.07
275.00 31.09
276.00 32.58
277.00 34.12
278.00 34.78
279.00 35.05
280.00 34.50
281.00 34.67
282.00 36.51
283.00 38.17
284.00 35.53
285.00 31.01
286.00 28.21
287.00 27.24
288.00 27.38
289.00 28.04
290.00 29.04
291.00 30.23
292.00 31.11
293.00 30.97
294.00 30.45
295.00 31.37
296.00 35.28
297.00 44.07
298.00 40.17
299.00 33.22
300.00 28.54
301.00 25.19
302.00 22.67
303.00 20.35
304.00 17.96
305.00 15.74
306.00 13.88
307.00 12.42
308.00 11.40
309.00 10.77
310.00 10.57
311.00 10.84
312.00 11.65
313.00 13.24
314.00 15.99
315.00 20.83
316.00 27.63
317.00 22.06
318.00 18.29
319.00 17.55
320.00 18.85
321.00 22.74
322.00 32.07
323.00 29.35
324.00 23.91
325.00 23.43
326.00 26.23
327.00 30.44
328.00 26.73
329.00 22.90
330.00 21.89
331.00 23.92
332.00 32.11
333.00 27.71
334.00 20.14
335.00 17.81
336.00 19.17
337.00 29.47
338.00 25.72
339.00 17.53
340.00 13.72
341.00 11.82
342.00 11.30
343.00 12.06
344.00 14.22
345.00 18.04
346.00 24.34
347.00 31.20
348.00 24.73
349.00 22.57
350.00 22.77
351.00 24.09
352.00 25.97
353.00 28.26
354.00 30.75
355.00 33.68
356.00 36.55
357.00 29.68
358.00 23.67
359.00 20.23
