NAME ATR4518R7_0880_X_CO_M45_02T
FREQUENCY 0880
GAIN 14.56 dBd
TILT	ELECTRICAL
COMMENT DATE 05.08.2013 -45 degrees polarized system Lever position 02T deg
HORIZONTAL 360
0.00 0.01
1.00 0.00
2.00 0.00
3.00 0.00
4.00 0.01
5.00 0.03
6.00 0.05
7.00 0.08
8.00 0.11
9.00 0.16
10.00 0.20
11.00 0.26
12.00 0.32
13.00 0.39
14.00 0.47
15.00 0.55
16.00 0.64
17.00 0.73
18.00 0.84
19.00 0.95
20.00 1.06
21.00 1.18
22.00 1.32
23.00 1.45
24.00 1.59
25.00 1.74
26.00 1.90
27.00 2.06
28.00 2.23
29.00 2.41
30.00 2.59
31.00 2.78
32.00 2.98
33.00 3.18
34.00 3.39
35.00 3.61
36.00 3.83
37.00 4.06
38.00 4.29
39.00 4.53
40.00 4.78
41.00 5.04
42.00 5.30
43.00 5.57
44.00 5.84
45.00 6.12
46.00 6.40
47.00 6.69
48.00 6.99
49.00 7.30
50.00 7.60
51.00 7.92
52.00 8.24
53.00 8.57
54.00 8.90
55.00 9.24
56.00 9.59
57.00 9.94
58.00 10.29
59.00 10.66
60.00 11.02
61.00 11.40
62.00 11.78
63.00 12.16
64.00 12.55
65.00 12.95
66.00 13.35
67.00 13.76
68.00 14.18
69.00 14.60
70.00 15.03
71.00 15.46
72.00 15.90
73.00 16.34
74.00 16.79
75.00 17.25
76.00 17.71
77.00 18.18
78.00 18.65
79.00 19.13
80.00 19.61
81.00 20.10
82.00 20.60
83.00 21.10
84.00 21.60
85.00 22.10
86.00 22.61
87.00 23.12
88.00 23.63
89.00 24.14
90.00 24.65
91.00 25.16
92.00 25.66
93.00 26.16
94.00 26.65
95.00 27.12
96.00 27.59
97.00 28.05
98.00 28.50
99.00 28.92
100.00 29.33
101.00 29.72
102.00 30.08
103.00 30.42
104.00 30.74
105.00 31.04
106.00 31.31
107.00 31.56
108.00 31.78
109.00 31.99
110.00 32.17
111.00 32.32
112.00 32.47
113.00 32.59
114.00 32.69
115.00 32.78
116.00 32.86
117.00 32.92
118.00 32.98
119.00 33.02
120.00 33.05
121.00 33.07
122.00 33.09
123.00 33.11
124.00 33.11
125.00 33.12
126.00 33.12
127.00 33.12
128.00 33.12
129.00 33.11
130.00 33.11
131.00 33.11
132.00 33.11
133.00 33.11
134.00 33.12
135.00 33.12
136.00 33.14
137.00 33.15
138.00 33.17
139.00 33.20
140.00 33.23
141.00 33.27
142.00 33.31
143.00 33.37
144.00 33.42
145.00 33.49
146.00 33.56
147.00 33.64
148.00 33.73
149.00 33.83
150.00 33.94
151.00 34.05
152.00 34.17
153.00 34.31
154.00 34.45
155.00 34.60
156.00 34.76
157.00 34.93
158.00 35.11
159.00 35.29
160.00 35.49
161.00 35.69
162.00 35.91
163.00 36.13
164.00 36.35
165.00 36.59
166.00 36.83
167.00 37.07
168.00 37.32
169.00 37.57
170.00 37.83
171.00 38.08
172.00 38.35
173.00 38.60
174.00 38.86
175.00 39.11
176.00 39.36
177.00 39.60
178.00 39.84
179.00 40.07
180.00 40.29
181.00 40.49
182.00 40.70
183.00 40.87
184.00 41.06
185.00 41.21
186.00 41.35
187.00 41.47
188.00 41.59
189.00 41.69
190.00 41.78
191.00 41.83
192.00 41.88
193.00 41.93
194.00 41.95
195.00 41.95
196.00 41.96
197.00 41.95
198.00 41.94
199.00 41.92
200.00 41.90
201.00 41.87
202.00 41.85
203.00 41.84
204.00 41.83
205.00 41.84
206.00 41.87
207.00 41.88
208.00 41.93
209.00 42.00
210.00 42.08
211.00 42.19
212.00 42.33
213.00 42.50
214.00 42.70
215.00 42.93
216.00 43.19
217.00 43.50
218.00 43.85
219.00 44.24
220.00 44.69
221.00 45.18
222.00 45.73
223.00 46.31
224.00 46.96
225.00 47.63
226.00 48.31
227.00 48.97
228.00 49.53
229.00 49.92
230.00 50.04
231.00 49.88
232.00 49.41
233.00 48.71
234.00 47.88
235.00 46.98
236.00 46.07
237.00 45.14
238.00 44.26
239.00 43.41
240.00 42.59
241.00 41.78
242.00 41.01
243.00 40.26
244.00 39.52
245.00 38.79
246.00 38.07
247.00 37.36
248.00 36.65
249.00 35.94
250.00 35.24
251.00 34.53
252.00 33.83
253.00 33.13
254.00 32.44
255.00 31.75
256.00 31.07
257.00 30.39
258.00 29.72
259.00 29.06
260.00 28.41
261.00 27.77
262.00 27.14
263.00 26.52
264.00 25.91
265.00 25.31
266.00 24.73
267.00 24.16
268.00 23.60
269.00 23.05
270.00 22.51
271.00 21.99
272.00 21.48
273.00 20.97
274.00 20.48
275.00 20.00
276.00 19.53
277.00 19.07
278.00 18.62
279.00 18.18
280.00 17.75
281.00 17.33
282.00 16.91
283.00 16.51
284.00 16.11
285.00 15.72
286.00 15.34
287.00 14.96
288.00 14.59
289.00 14.23
290.00 13.87
291.00 13.52
292.00 13.18
293.00 12.84
294.00 12.50
295.00 12.17
296.00 11.84
297.00 11.53
298.00 11.21
299.00 10.90
300.00 10.59
301.00 10.29
302.00 9.99
303.00 9.70
304.00 9.40
305.00 9.12
306.00 8.83
307.00 8.55
308.00 8.27
309.00 8.00
310.00 7.73
311.00 7.46
312.00 7.20
313.00 6.94
314.00 6.69
315.00 6.44
316.00 6.19
317.00 5.94
318.00 5.70
319.00 5.47
320.00 5.23
321.00 5.01
322.00 4.78
323.00 4.56
324.00 4.34
325.00 4.13
326.00 3.93
327.00 3.72
328.00 3.52
329.00 3.33
330.00 3.14
331.00 2.95
332.00 2.78
333.00 2.60
334.00 2.43
335.00 2.27
336.00 2.11
337.00 1.96
338.00 1.81
339.00 1.66
340.00 1.53
341.00 1.39
342.00 1.27
343.00 1.15
344.00 1.03
345.00 0.92
346.00 0.82
347.00 0.72
348.00 0.63
349.00 0.54
350.00 0.47
351.00 0.39
352.00 0.32
353.00 0.26
354.00 0.21
355.00 0.16
356.00 0.12
357.00 0.08
358.00 0.05
359.00 0.03
VERTICAL 360
0.00 0.60
1.00 0.12
2.00 0.00
3.00 0.24
4.00 0.85
5.00 1.86
6.00 3.30
7.00 5.23
8.00 7.77
9.00 11.13
10.00 15.82
11.00 23.31
12.00 34.86
13.00 26.14
14.00 23.82
15.00 24.82
16.00 29.38
17.00 50.45
18.00 29.60
19.00 24.03
20.00 21.47
21.00 20.35
22.00 20.18
23.00 20.84
24.00 22.40
25.00 25.17
26.00 29.97
27.00 37.73
28.00 34.52
29.00 30.64
30.00 29.80
31.00 30.89
32.00 31.58
33.00 28.24
34.00 24.00
35.00 20.64
36.00 18.09
37.00 16.16
38.00 14.76
39.00 13.85
40.00 13.40
41.00 13.36
42.00 13.67
43.00 14.28
44.00 15.12
45.00 16.21
46.00 17.60
47.00 19.41
48.00 21.83
49.00 25.09
50.00 29.48
51.00 35.19
52.00 40.46
53.00 39.51
54.00 36.31
55.00 33.64
56.00 31.70
57.00 30.52
58.00 30.19
59.00 30.91
60.00 32.82
61.00 35.53
62.00 36.79
63.00 35.62
64.00 34.28
65.00 33.45
66.00 33.07
67.00 32.87
68.00 32.21
69.00 30.97
70.00 29.96
71.00 29.80
72.00 30.61
73.00 32.24
74.00 34.24
75.00 34.85
76.00 32.35
77.00 29.34
78.00 27.36
79.00 26.54
80.00 26.78
81.00 27.86
82.00 29.13
83.00 29.13
84.00 28.08
85.00 26.72
86.00 25.74
87.00 25.56
88.00 26.19
89.00 27.43
90.00 28.98
91.00 30.49
92.00 31.41
93.00 31.40
94.00 30.85
95.00 30.46
96.00 30.27
97.00 30.35
98.00 31.02
99.00 32.60
100.00 35.05
101.00 37.13
102.00 36.90
103.00 35.34
104.00 34.02
105.00 33.53
106.00 34.07
107.00 35.60
108.00 37.66
109.00 39.10
110.00 39.15
111.00 38.42
112.00 37.83
113.00 37.99
114.00 39.14
115.00 40.86
116.00 41.87
117.00 41.40
118.00 40.07
119.00 38.62
120.00 37.61
121.00 37.29
122.00 37.40
123.00 37.30
124.00 36.49
125.00 35.06
126.00 33.55
127.00 32.42
128.00 31.87
129.00 31.90
130.00 32.28
131.00 32.66
132.00 32.74
133.00 32.53
134.00 32.35
135.00 32.59
136.00 33.47
137.00 35.08
138.00 37.23
139.00 39.50
140.00 41.32
141.00 42.33
142.00 42.54
143.00 41.87
144.00 40.43
145.00 39.15
146.00 38.91
147.00 40.12
148.00 42.41
149.00 42.92
150.00 40.72
151.00 38.74
152.00 37.37
153.00 36.06
154.00 34.47
155.00 32.76
156.00 31.34
157.00 30.61
158.00 30.83
159.00 32.12
160.00 34.23
161.00 35.43
162.00 34.27
163.00 32.69
164.00 31.82
165.00 31.55
166.00 31.48
167.00 31.40
168.00 31.62
169.00 32.44
170.00 33.94
171.00 36.16
172.00 38.36
173.00 38.99
174.00 38.26
175.00 37.69
176.00 37.84
177.00 38.80
178.00 40.70
179.00 42.50
180.00 44.94
181.00 43.30
182.00 39.44
183.00 36.77
184.00 35.27
185.00 34.56
186.00 34.34
187.00 34.36
188.00 34.35
189.00 34.15
190.00 33.76
191.00 33.28
192.00 32.82
193.00 32.42
194.00 32.13
195.00 32.01
196.00 32.20
197.00 32.82
198.00 33.95
199.00 35.50
200.00 37.19
201.00 38.92
202.00 41.22
203.00 45.47
204.00 55.27
205.00 48.51
206.00 42.38
207.00 39.44
208.00 38.05
209.00 37.68
210.00 38.04
211.00 38.82
212.00 39.60
213.00 39.85
214.00 39.31
215.00 38.55
216.00 38.35
217.00 39.07
218.00 40.46
219.00 41.45
220.00 41.06
221.00 40.00
222.00 39.23
223.00 39.20
224.00 40.02
225.00 40.97
226.00 40.33
227.00 38.72
228.00 37.79
229.00 37.84
230.00 38.52
231.00 39.17
232.00 39.28
233.00 38.93
234.00 38.79
235.00 39.66
236.00 42.57
237.00 50.17
238.00 56.12
239.00 46.17
240.00 43.58
241.00 42.91
242.00 42.18
243.00 40.57
244.00 38.72
245.00 37.44
246.00 37.15
247.00 38.02
248.00 40.01
249.00 42.50
250.00 43.68
251.00 42.00
252.00 39.11
253.00 36.83
254.00 35.58
255.00 35.25
256.00 35.45
257.00 35.79
258.00 35.85
259.00 35.24
260.00 34.17
261.00 33.35
262.00 33.19
263.00 33.59
264.00 34.30
265.00 35.37
266.00 37.25
267.00 39.72
268.00 40.27
269.00 39.13
270.00 39.15
271.00 40.59
272.00 41.79
273.00 41.85
274.00 42.98
275.00 46.97
276.00 52.25
277.00 50.32
278.00 51.99
279.00 52.70
280.00 44.20
281.00 39.89
282.00 37.88
283.00 37.02
284.00 36.64
285.00 36.47
286.00 36.50
287.00 36.75
288.00 37.23
289.00 37.91
290.00 38.40
291.00 38.05
292.00 36.84
293.00 35.25
294.00 33.49
295.00 31.53
296.00 29.55
297.00 27.85
298.00 26.65
299.00 26.07
300.00 26.12
301.00 26.75
302.00 27.86
303.00 29.39
304.00 31.47
305.00 34.50
306.00 37.04
307.00 32.41
308.00 27.01
309.00 23.12
310.00 20.34
311.00 18.34
312.00 16.91
313.00 15.88
314.00 15.14
315.00 14.59
316.00 14.21
317.00 13.99
318.00 14.00
319.00 14.28
320.00 14.91
321.00 15.96
322.00 17.49
323.00 19.61
324.00 22.40
325.00 25.96
326.00 30.38
327.00 35.85
328.00 42.91
329.00 47.49
330.00 43.64
331.00 40.56
332.00 37.73
333.00 34.92
334.00 32.47
335.00 30.45
336.00 28.62
337.00 26.77
338.00 24.89
339.00 23.18
340.00 21.88
341.00 21.19
342.00 21.27
343.00 22.32
344.00 24.74
345.00 29.80
346.00 50.00
347.00 31.88
348.00 26.33
349.00 24.48
350.00 25.18
351.00 29.09
352.00 26.36
353.00 18.31
354.00 13.02
355.00 9.26
356.00 6.45
357.00 4.29
358.00 2.65
359.00 1.43
