NAME ATR4518R7_1750_X_CO_P45_02T_yyR
FREQUENCY 1750
GAIN 15.22 dBd
TILT	ELECTRICAL
COMMENT DATE 05.08.2013 +45 degrees polarized system Lever position 02T deg
HORIZONTAL 360
0.00 0.01
1.00 0.00
2.00 0.00
3.00 0.01
4.00 0.02
5.00 0.03
6.00 0.05
7.00 0.08
8.00 0.11
9.00 0.15
10.00 0.19
11.00 0.24
12.00 0.30
13.00 0.37
14.00 0.45
15.00 0.53
16.00 0.62
17.00 0.72
18.00 0.84
19.00 0.96
20.00 1.09
21.00 1.23
22.00 1.39
23.00 1.55
24.00 1.72
25.00 1.91
26.00 2.10
27.00 2.31
28.00 2.52
29.00 2.75
30.00 2.99
31.00 3.23
32.00 3.48
33.00 3.74
34.00 4.01
35.00 4.28
36.00 4.55
37.00 4.83
38.00 5.11
39.00 5.39
40.00 5.67
41.00 5.95
42.00 6.22
43.00 6.49
44.00 6.75
45.00 7.01
46.00 7.26
47.00 7.50
48.00 7.73
49.00 7.96
50.00 8.18
51.00 8.40
52.00 8.60
53.00 8.81
54.00 9.01
55.00 9.21
56.00 9.41
57.00 9.61
58.00 9.81
59.00 10.01
60.00 10.22
61.00 10.43
62.00 10.64
63.00 10.86
64.00 11.08
65.00 11.31
66.00 11.54
67.00 11.77
68.00 12.01
69.00 12.25
70.00 12.49
71.00 12.74
72.00 12.98
73.00 13.24
74.00 13.49
75.00 13.74
76.00 13.99
77.00 14.25
78.00 14.50
79.00 14.76
80.00 15.02
81.00 15.28
82.00 15.54
83.00 15.81
84.00 16.08
85.00 16.36
86.00 16.63
87.00 16.92
88.00 17.20
89.00 17.49
90.00 17.79
91.00 18.08
92.00 18.38
93.00 18.68
94.00 18.98
95.00 19.27
96.00 19.56
97.00 19.85
98.00 20.13
99.00 20.40
100.00 20.66
101.00 20.91
102.00 21.14
103.00 21.37
104.00 21.58
105.00 21.79
106.00 21.98
107.00 22.17
108.00 22.36
109.00 22.54
110.00 22.72
111.00 22.90
112.00 23.09
113.00 23.29
114.00 23.49
115.00 23.71
116.00 23.94
117.00 24.17
118.00 24.42
119.00 24.68
120.00 24.94
121.00 25.22
122.00 25.49
123.00 25.77
124.00 26.04
125.00 26.31
126.00 26.57
127.00 26.81
128.00 27.04
129.00 27.25
130.00 27.44
131.00 27.62
132.00 27.78
133.00 27.93
134.00 28.09
135.00 28.23
136.00 28.39
137.00 28.57
138.00 28.76
139.00 28.98
140.00 29.23
141.00 29.52
142.00 29.86
143.00 30.26
144.00 30.71
145.00 31.24
146.00 31.84
147.00 32.54
148.00 33.35
149.00 34.29
150.00 35.40
151.00 36.71
152.00 38.30
153.00 40.28
154.00 42.87
155.00 46.57
156.00 53.10
157.00 72.98
158.00 51.70
159.00 46.20
160.00 42.97
161.00 40.73
162.00 39.05
163.00 37.74
164.00 36.69
165.00 35.84
166.00 35.15
167.00 34.60
168.00 34.17
169.00 33.84
170.00 33.60
171.00 33.45
172.00 33.39
173.00 33.41
174.00 33.51
175.00 33.69
176.00 33.97
177.00 34.34
178.00 34.81
179.00 35.39
180.00 36.11
181.00 36.96
182.00 37.99
183.00 39.22
184.00 40.68
185.00 42.36
186.00 44.09
187.00 45.33
188.00 45.25
189.00 43.86
190.00 42.01
191.00 40.22
192.00 38.65
193.00 37.31
194.00 36.18
195.00 35.23
196.00 34.43
197.00 33.76
198.00 33.23
199.00 32.80
200.00 32.48
201.00 32.26
202.00 32.14
203.00 32.11
204.00 32.19
205.00 32.36
206.00 32.64
207.00 33.03
208.00 33.56
209.00 34.21
210.00 35.04
211.00 36.06
212.00 37.32
213.00 38.90
214.00 40.90
215.00 43.50
216.00 46.80
217.00 49.69
218.00 48.37
219.00 44.95
220.00 42.09
221.00 39.90
222.00 38.21
223.00 36.87
224.00 35.81
225.00 34.96
226.00 34.29
227.00 33.77
228.00 33.38
229.00 33.11
230.00 32.95
231.00 32.90
232.00 32.94
233.00 33.08
234.00 33.30
235.00 33.62
236.00 34.03
237.00 34.52
238.00 35.08
239.00 35.71
240.00 36.41
241.00 37.13
242.00 37.85
243.00 38.52
244.00 39.09
245.00 39.52
246.00 39.79
247.00 39.91
248.00 39.94
249.00 39.92
250.00 39.92
251.00 40.01
252.00 40.23
253.00 40.63
254.00 41.28
255.00 42.24
256.00 43.67
257.00 45.81
258.00 49.27
259.00 55.77
260.00 56.65
261.00 48.49
262.00 43.69
263.00 40.35
264.00 37.76
265.00 35.67
266.00 33.89
267.00 32.34
268.00 30.97
269.00 29.75
270.00 28.65
271.00 27.65
272.00 26.73
273.00 25.88
274.00 25.09
275.00 24.36
276.00 23.67
277.00 23.02
278.00 22.40
279.00 21.82
280.00 21.26
281.00 20.72
282.00 20.20
283.00 19.70
284.00 19.20
285.00 18.72
286.00 18.24
287.00 17.78
288.00 17.31
289.00 16.85
290.00 16.39
291.00 15.93
292.00 15.48
293.00 15.03
294.00 14.58
295.00 14.13
296.00 13.68
297.00 13.24
298.00 12.80
299.00 12.37
300.00 11.95
301.00 11.52
302.00 11.11
303.00 10.70
304.00 10.29
305.00 9.90
306.00 9.51
307.00 9.13
308.00 8.76
309.00 8.40
310.00 8.04
311.00 7.70
312.00 7.36
313.00 7.03
314.00 6.71
315.00 6.40
316.00 6.09
317.00 5.80
318.00 5.51
319.00 5.23
320.00 4.96
321.00 4.70
322.00 4.44
323.00 4.20
324.00 3.96
325.00 3.73
326.00 3.51
327.00 3.29
328.00 3.09
329.00 2.89
330.00 2.70
331.00 2.51
332.00 2.33
333.00 2.17
334.00 2.00
335.00 1.85
336.00 1.70
337.00 1.56
338.00 1.43
339.00 1.30
340.00 1.18
341.00 1.07
342.00 0.96
343.00 0.86
344.00 0.77
345.00 0.68
346.00 0.60
347.00 0.52
348.00 0.45
349.00 0.39
350.00 0.33
351.00 0.28
352.00 0.23
353.00 0.18
354.00 0.15
355.00 0.11
356.00 0.08
357.00 0.06
358.00 0.04
359.00 0.02
VERTICAL 360
0.00 1.34
1.00 0.34
2.00 0.00
3.00 0.30
4.00 1.29
5.00 3.07
6.00 5.87
7.00 10.24
8.00 18.08
9.00 27.90
10.00 18.80
11.00 16.11
12.00 16.46
13.00 19.47
14.00 27.65
15.00 27.29
16.00 19.22
17.00 16.08
18.00 15.10
19.00 15.67
20.00 17.80
21.00 22.43
22.00 37.83
23.00 27.99
24.00 21.03
25.00 18.60
26.00 18.29
27.00 19.81
28.00 23.77
29.00 35.82
30.00 32.35
31.00 23.55
32.00 20.15
33.00 18.66
34.00 18.49
35.00 19.55
36.00 22.01
37.00 26.40
38.00 33.95
39.00 37.69
40.00 31.92
41.00 28.77
42.00 27.32
43.00 27.16
44.00 28.15
45.00 30.44
46.00 34.50
47.00 36.50
48.00 31.86
49.00 28.33
50.00 26.73
51.00 26.70
52.00 28.27
53.00 31.82
54.00 36.22
55.00 33.73
56.00 29.06
57.00 25.85
58.00 23.65
59.00 22.29
60.00 21.71
61.00 21.82
62.00 22.40
63.00 23.17
64.00 23.89
65.00 24.53
66.00 25.26
67.00 26.20
68.00 27.27
69.00 28.24
70.00 28.94
71.00 29.31
72.00 29.44
73.00 29.39
74.00 29.29
75.00 29.47
76.00 30.17
77.00 31.14
78.00 31.74
79.00 31.57
80.00 30.75
81.00 29.73
82.00 28.93
83.00 28.49
84.00 28.30
85.00 28.19
86.00 28.09
87.00 28.11
88.00 28.43
89.00 29.08
90.00 29.97
91.00 31.15
92.00 32.73
93.00 34.10
94.00 34.27
95.00 33.99
96.00 34.30
97.00 34.93
98.00 35.69
99.00 37.57
100.00 41.01
101.00 42.86
102.00 42.82
103.00 45.21
104.00 47.53
105.00 46.01
106.00 45.78
107.00 45.58
108.00 44.29
109.00 44.25
110.00 45.57
111.00 46.29
112.00 44.51
113.00 41.62
114.00 39.42
115.00 37.98
116.00 36.72
117.00 35.43
118.00 34.41
119.00 34.14
120.00 35.10
121.00 37.52
122.00 40.55
123.00 42.01
124.00 42.78
125.00 44.34
126.00 44.41
127.00 41.88
128.00 39.32
129.00 37.68
130.00 36.86
131.00 36.57
132.00 36.69
133.00 37.23
134.00 38.09
135.00 38.99
136.00 39.59
137.00 39.63
138.00 39.07
139.00 38.26
140.00 37.79
141.00 37.51
142.00 36.73
143.00 36.07
144.00 36.70
145.00 38.53
146.00 39.25
147.00 38.42
148.00 38.42
149.00 39.70
150.00 41.25
151.00 41.18
152.00 39.74
153.00 39.32
154.00 41.31
155.00 46.80
156.00 51.51
157.00 48.18
158.00 48.87
159.00 58.16
160.00 52.87
161.00 45.83
162.00 44.55
163.00 46.12
164.00 46.41
165.00 43.06
166.00 40.14
167.00 38.78
168.00 38.93
169.00 39.13
170.00 37.38
171.00 35.55
172.00 35.17
173.00 35.71
174.00 35.89
175.00 35.84
176.00 36.49
177.00 37.59
178.00 37.99
179.00 37.73
180.00 37.77
181.00 39.00
182.00 43.36
183.00 54.08
184.00 42.56
185.00 36.81
186.00 34.22
187.00 33.09
188.00 33.09
189.00 34.14
190.00 35.29
191.00 34.53
192.00 32.31
193.00 30.39
194.00 29.33
195.00 29.23
196.00 29.89
197.00 30.62
198.00 30.74
199.00 30.70
200.00 31.49
201.00 33.82
202.00 38.60
203.00 43.79
204.00 39.48
205.00 36.03
206.00 35.15
207.00 35.79
208.00 36.41
209.00 35.38
210.00 33.59
211.00 32.38
212.00 32.10
213.00 32.57
214.00 33.35
215.00 34.12
216.00 34.69
217.00 34.36
218.00 32.87
219.00 31.33
220.00 30.72
221.00 31.55
222.00 34.17
223.00 38.14
224.00 39.37
225.00 38.17
226.00 38.44
227.00 40.14
228.00 42.05
229.00 43.07
230.00 43.46
231.00 43.64
232.00 41.24
233.00 37.03
234.00 33.88
235.00 32.17
236.00 31.82
237.00 32.81
238.00 34.63
239.00 35.18
240.00 33.94
241.00 32.95
242.00 32.56
243.00 32.21
244.00 31.92
245.00 32.08
246.00 33.07
247.00 35.25
248.00 38.97
249.00 42.91
250.00 43.35
251.00 42.29
252.00 41.25
253.00 39.70
254.00 38.13
255.00 37.62
256.00 38.90
257.00 41.16
258.00 41.62
259.00 41.43
260.00 40.79
261.00 39.06
262.00 39.62
263.00 42.58
264.00 38.91
265.00 35.34
266.00 35.36
267.00 37.73
268.00 40.41
269.00 43.03
270.00 41.68
271.00 37.66
272.00 36.51
273.00 36.24
274.00 34.60
275.00 34.01
276.00 36.24
277.00 40.77
278.00 42.53
279.00 42.13
280.00 40.18
281.00 37.25
282.00 35.14
283.00 32.97
284.00 30.80
285.00 28.94
286.00 27.14
287.00 25.52
288.00 24.38
289.00 23.69
290.00 23.27
291.00 23.08
292.00 23.11
293.00 23.27
294.00 23.46
295.00 23.67
296.00 23.96
297.00 24.55
298.00 25.70
299.00 27.68
300.00 30.77
301.00 34.73
302.00 34.89
303.00 30.63
304.00 27.16
305.00 24.93
306.00 23.53
307.00 22.58
308.00 21.81
309.00 21.11
310.00 20.56
311.00 20.25
312.00 20.20
313.00 20.46
314.00 21.08
315.00 22.07
316.00 23.14
317.00 23.73
318.00 23.43
319.00 22.43
320.00 21.19
321.00 20.00
322.00 19.07
323.00 18.59
324.00 18.85
325.00 20.24
326.00 23.60
327.00 32.56
328.00 32.82
329.00 23.53
330.00 19.88
331.00 18.03
332.00 17.04
333.00 16.61
334.00 16.83
335.00 18.06
336.00 20.84
337.00 25.08
338.00 24.99
339.00 21.34
340.00 19.60
341.00 19.84
342.00 21.77
343.00 24.12
344.00 23.55
345.00 21.44
346.00 20.47
347.00 21.09
348.00 23.64
349.00 28.61
350.00 27.79
351.00 21.98
352.00 19.08
353.00 18.81
354.00 21.86
355.00 24.06
356.00 15.44
357.00 9.47
358.00 5.65
359.00 3.06
