NAME ATR4518R7_2140_X_CO_P45_01T_yyR
FREQUENCY 2140
GAIN 15.60 dBd
TILT	ELECTRICAL
COMMENT DATE 05.08.2013 +45 degrees polarized system Lever position 01T deg
HORIZONTAL 360
0.00 0.15
1.00 0.11
2.00 0.08
3.00 0.06
4.00 0.04
5.00 0.02
6.00 0.01
7.00 0.00
8.00 0.00
9.00 0.00
10.00 0.01
11.00 0.02
12.00 0.05
13.00 0.08
14.00 0.12
15.00 0.17
16.00 0.23
17.00 0.30
18.00 0.39
19.00 0.48
20.00 0.59
21.00 0.71
22.00 0.84
23.00 0.98
24.00 1.14
25.00 1.31
26.00 1.49
27.00 1.69
28.00 1.90
29.00 2.12
30.00 2.35
31.00 2.60
32.00 2.86
33.00 3.13
34.00 3.41
35.00 3.70
36.00 4.00
37.00 4.32
38.00 4.64
39.00 4.97
40.00 5.30
41.00 5.65
42.00 6.00
43.00 6.37
44.00 6.74
45.00 7.12
46.00 7.50
47.00 7.90
48.00 8.30
49.00 8.72
50.00 9.14
51.00 9.57
52.00 10.01
53.00 10.46
54.00 10.93
55.00 11.40
56.00 11.88
57.00 12.37
58.00 12.87
59.00 13.38
60.00 13.90
61.00 14.42
62.00 14.95
63.00 15.48
64.00 16.00
65.00 16.52
66.00 17.04
67.00 17.54
68.00 18.04
69.00 18.52
70.00 18.99
71.00 19.44
72.00 19.88
73.00 20.31
74.00 20.73
75.00 21.15
76.00 21.57
77.00 22.00
78.00 22.43
79.00 22.88
80.00 23.34
81.00 23.83
82.00 24.35
83.00 24.89
84.00 25.47
85.00 26.09
86.00 26.75
87.00 27.45
88.00 28.20
89.00 29.00
90.00 29.84
91.00 30.73
92.00 31.67
93.00 32.66
94.00 33.69
95.00 34.77
96.00 35.89
97.00 37.05
98.00 38.26
99.00 39.51
100.00 40.83
101.00 42.24
102.00 43.78
103.00 45.51
104.00 47.48
105.00 49.71
106.00 51.89
107.00 52.88
108.00 51.71
109.00 49.53
110.00 47.40
111.00 45.60
112.00 44.14
113.00 42.95
114.00 42.01
115.00 41.27
116.00 40.71
117.00 40.33
118.00 40.11
119.00 40.05
120.00 40.15
121.00 40.42
122.00 40.86
123.00 41.50
124.00 42.36
125.00 43.49
126.00 44.95
127.00 46.86
128.00 49.42
129.00 52.89
130.00 56.98
131.00 56.97
132.00 53.11
133.00 49.98
134.00 47.77
135.00 46.19
136.00 45.07
137.00 44.30
138.00 43.84
139.00 43.63
140.00 43.65
141.00 43.87
142.00 44.28
143.00 44.80
144.00 45.33
145.00 45.65
146.00 45.54
147.00 44.89
148.00 43.81
149.00 42.52
150.00 41.21
151.00 40.00
152.00 38.91
153.00 37.96
154.00 37.15
155.00 36.47
156.00 35.93
157.00 35.51
158.00 35.21
159.00 35.02
160.00 34.95
161.00 34.99
162.00 35.15
163.00 35.44
164.00 35.85
165.00 36.40
166.00 37.12
167.00 38.02
168.00 39.15
169.00 40.56
170.00 42.36
171.00 44.74
172.00 48.11
173.00 53.75
174.00 73.00
175.00 55.72
176.00 49.40
177.00 45.93
178.00 43.60
179.00 41.90
180.00 40.60
181.00 39.59
182.00 38.80
183.00 38.18
184.00 37.70
185.00 37.34
186.00 37.07
187.00 36.89
188.00 36.79
189.00 36.74
190.00 36.74
191.00 36.79
192.00 36.87
193.00 36.99
194.00 37.12
195.00 37.28
196.00 37.45
197.00 37.63
198.00 37.83
199.00 38.05
200.00 38.28
201.00 38.53
202.00 38.81
203.00 39.10
204.00 39.43
205.00 39.79
206.00 40.20
207.00 40.63
208.00 41.12
209.00 41.65
210.00 42.23
211.00 42.86
212.00 43.56
213.00 44.30
214.00 45.12
215.00 45.98
216.00 46.89
217.00 47.84
218.00 48.78
219.00 49.68
220.00 50.42
221.00 50.92
222.00 51.07
223.00 50.86
224.00 50.35
225.00 49.64
226.00 48.85
227.00 48.02
228.00 47.24
229.00 46.48
230.00 45.79
231.00 45.15
232.00 44.58
233.00 44.07
234.00 43.63
235.00 43.23
236.00 42.91
237.00 42.64
238.00 42.43
239.00 42.25
240.00 42.09
241.00 41.96
242.00 41.81
243.00 41.63
244.00 41.37
245.00 41.03
246.00 40.56
247.00 39.97
248.00 39.26
249.00 38.46
250.00 37.60
251.00 36.71
252.00 35.81
253.00 34.93
254.00 34.06
255.00 33.24
256.00 32.46
257.00 31.73
258.00 31.04
259.00 30.40
260.00 29.80
261.00 29.25
262.00 28.74
263.00 28.27
264.00 27.84
265.00 27.44
266.00 27.07
267.00 26.73
268.00 26.40
269.00 26.10
270.00 25.80
271.00 25.52
272.00 25.23
273.00 24.93
274.00 24.63
275.00 24.31
276.00 23.97
277.00 23.60
278.00 23.22
279.00 22.81
280.00 22.37
281.00 21.92
282.00 21.45
283.00 20.96
284.00 20.46
285.00 19.96
286.00 19.46
287.00 18.95
288.00 18.45
289.00 17.95
290.00 17.45
291.00 16.97
292.00 16.49
293.00 16.03
294.00 15.57
295.00 15.12
296.00 14.69
297.00 14.26
298.00 13.84
299.00 13.44
300.00 13.04
301.00 12.65
302.00 12.27
303.00 11.90
304.00 11.53
305.00 11.17
306.00 10.82
307.00 10.48
308.00 10.13
309.00 9.80
310.00 9.47
311.00 9.15
312.00 8.83
313.00 8.51
314.00 8.20
315.00 7.90
316.00 7.59
317.00 7.30
318.00 7.00
319.00 6.71
320.00 6.42
321.00 6.14
322.00 5.86
323.00 5.59
324.00 5.32
325.00 5.05
326.00 4.79
327.00 4.54
328.00 4.29
329.00 4.05
330.00 3.81
331.00 3.58
332.00 3.36
333.00 3.14
334.00 2.94
335.00 2.73
336.00 2.54
337.00 2.36
338.00 2.18
339.00 2.01
340.00 1.85
341.00 1.70
342.00 1.55
343.00 1.42
344.00 1.29
345.00 1.17
346.00 1.06
347.00 0.96
348.00 0.86
349.00 0.77
350.00 0.69
351.00 0.61
352.00 0.54
353.00 0.48
354.00 0.42
355.00 0.36
356.00 0.31
357.00 0.26
358.00 0.22
359.00 0.18
VERTICAL 360
0.00 0.24
1.00 0.00
2.00 0.62
3.00 2.26
4.00 5.23
5.00 10.44
6.00 23.05
7.00 21.73
8.00 14.88
9.00 14.09
10.00 16.39
11.00 22.13
12.00 22.24
13.00 16.94
14.00 14.92
15.00 15.51
16.00 18.90
17.00 28.09
18.00 26.58
19.00 19.26
20.00 16.57
21.00 15.93
22.00 16.96
23.00 19.86
24.00 24.39
25.00 25.45
26.00 23.09
27.00 21.77
28.00 21.07
29.00 20.35
30.00 19.84
31.00 19.74
32.00 19.90
33.00 19.97
34.00 19.66
35.00 18.99
36.00 18.26
37.00 17.80
38.00 17.82
39.00 18.47
40.00 19.92
41.00 22.56
42.00 27.32
43.00 31.61
44.00 26.82
45.00 23.19
46.00 22.00
47.00 22.48
48.00 24.10
49.00 26.29
50.00 28.47
51.00 30.68
52.00 34.21
53.00 41.85
54.00 38.23
55.00 32.17
56.00 30.20
57.00 30.47
58.00 31.92
59.00 33.25
60.00 33.51
61.00 32.89
62.00 31.75
63.00 30.41
64.00 29.31
65.00 28.80
66.00 28.98
67.00 29.64
68.00 30.34
69.00 30.72
70.00 30.80
71.00 30.78
72.00 30.61
73.00 30.06
74.00 29.24
75.00 28.49
76.00 27.93
77.00 27.39
78.00 26.73
79.00 26.02
80.00 25.50
81.00 25.36
82.00 25.55
83.00 25.86
84.00 26.24
85.00 26.94
86.00 28.41
87.00 30.94
88.00 34.06
89.00 35.47
90.00 33.03
91.00 29.72
92.00 28.14
93.00 28.91
94.00 32.28
95.00 37.91
96.00 41.84
97.00 40.84
98.00 37.04
99.00 35.49
100.00 37.63
101.00 44.12
102.00 48.06
103.00 46.11
104.00 43.73
105.00 42.56
106.00 46.00
107.00 49.78
108.00 46.05
109.00 46.33
110.00 43.88
111.00 40.44
112.00 40.39
113.00 42.99
114.00 45.45
115.00 45.89
116.00 45.29
117.00 45.64
118.00 45.50
119.00 40.70
120.00 37.13
121.00 35.88
122.00 35.83
123.00 35.89
124.00 35.79
125.00 35.97
126.00 36.90
127.00 38.68
128.00 40.46
129.00 41.01
130.00 40.32
131.00 39.39
132.00 39.36
133.00 40.58
134.00 42.03
135.00 42.18
136.00 41.05
137.00 39.28
138.00 37.29
139.00 35.75
140.00 35.56
141.00 37.37
142.00 40.82
143.00 41.96
144.00 41.12
145.00 41.62
146.00 42.83
147.00 44.00
148.00 46.60
149.00 59.16
150.00 49.85
151.00 42.00
152.00 40.62
153.00 43.65
154.00 52.38
155.00 63.80
156.00 47.57
157.00 39.24
158.00 36.31
159.00 37.13
160.00 41.82
161.00 49.25
162.00 53.16
163.00 53.83
164.00 49.07
165.00 51.94
166.00 47.36
167.00 41.76
168.00 42.27
169.00 46.76
170.00 44.41
171.00 43.19
172.00 43.97
173.00 39.39
174.00 36.13
175.00 35.07
176.00 34.54
177.00 34.24
178.00 34.95
179.00 36.79
180.00 39.23
181.00 42.06
182.00 45.76
183.00 49.61
184.00 51.37
185.00 51.61
186.00 53.19
187.00 54.00
188.00 48.63
189.00 43.26
190.00 40.07
191.00 39.11
192.00 39.78
193.00 40.47
194.00 40.82
195.00 42.12
196.00 42.46
197.00 41.18
198.00 41.84
199.00 45.65
200.00 50.02
201.00 47.05
202.00 41.78
203.00 38.62
204.00 37.97
205.00 40.00
206.00 47.57
207.00 50.53
208.00 39.19
209.00 36.35
210.00 37.16
211.00 39.72
212.00 38.64
213.00 36.31
214.00 35.55
215.00 35.81
216.00 37.21
217.00 39.96
218.00 39.70
219.00 36.64
220.00 35.37
221.00 36.05
222.00 37.94
223.00 40.28
224.00 42.76
225.00 45.53
226.00 47.72
227.00 47.21
228.00 43.78
229.00 39.72
230.00 36.36
231.00 33.93
232.00 32.68
233.00 32.86
234.00 34.58
235.00 37.29
236.00 39.48
237.00 41.54
238.00 46.39
239.00 58.95
240.00 49.57
241.00 44.64
242.00 42.52
243.00 40.21
244.00 37.99
245.00 37.41
246.00 39.09
247.00 42.07
248.00 43.02
249.00 42.53
250.00 41.41
251.00 39.98
252.00 40.27
253.00 43.20
254.00 48.08
255.00 50.36
256.00 48.34
257.00 45.89
258.00 45.73
259.00 47.81
260.00 48.74
261.00 47.22
262.00 45.36
263.00 44.34
264.00 45.92
265.00 51.99
266.00 51.02
267.00 45.42
268.00 43.73
269.00 44.45
270.00 44.01
271.00 39.80
272.00 36.51
273.00 35.04
274.00 34.44
275.00 33.91
276.00 33.71
277.00 34.51
278.00 36.54
279.00 39.58
280.00 42.17
281.00 41.81
282.00 40.19
283.00 39.32
284.00 39.04
285.00 38.74
286.00 38.26
287.00 38.00
288.00 38.37
289.00 39.36
290.00 40.24
291.00 40.17
292.00 38.95
293.00 36.51
294.00 33.60
295.00 31.18
296.00 29.51
297.00 28.38
298.00 27.52
299.00 26.86
300.00 26.53
301.00 26.71
302.00 27.59
303.00 29.46
304.00 33.14
305.00 42.31
306.00 43.07
307.00 33.53
308.00 30.09
309.00 28.93
310.00 29.74
311.00 33.82
312.00 41.11
313.00 30.49
314.00 24.21
315.00 20.78
316.00 18.80
317.00 17.77
318.00 17.48
319.00 17.80
320.00 18.65
321.00 19.95
322.00 21.49
323.00 22.88
324.00 23.67
325.00 23.63
326.00 22.86
327.00 21.57
328.00 20.06
329.00 18.78
330.00 18.21
331.00 18.79
332.00 21.10
333.00 26.89
334.00 36.56
335.00 26.79
336.00 22.70
337.00 22.02
338.00 23.86
339.00 29.42
340.00 34.61
341.00 26.21
342.00 22.13
343.00 20.93
344.00 21.95
345.00 24.67
346.00 24.22
347.00 20.51
348.00 18.52
349.00 18.87
350.00 21.95
351.00 28.50
352.00 29.01
353.00 27.75
354.00 30.78
355.00 19.02
356.00 11.24
357.00 6.48
358.00 3.35
359.00 1.33
