NAME ATR4518R7_2350_X_CO_M45_10T_yL
FREQUENCY 2350
GAIN 15.37 dBd
TILT	ELECTRICAL
COMMENT DATE 05.08.2013 -45 degrees polarized system Lever position 10T deg
HORIZONTAL 360
0.00 0.01
1.00 0.02
2.00 0.06
3.00 0.10
4.00 0.16
5.00 0.23
6.00 0.32
7.00 0.42
8.00 0.53
9.00 0.65
10.00 0.78
11.00 0.92
12.00 1.07
13.00 1.23
14.00 1.39
15.00 1.55
16.00 1.72
17.00 1.88
18.00 2.05
19.00 2.21
20.00 2.37
21.00 2.53
22.00 2.69
23.00 2.84
24.00 2.98
25.00 3.13
26.00 3.27
27.00 3.42
28.00 3.56
29.00 3.71
30.00 3.87
31.00 4.03
32.00 4.19
33.00 4.37
34.00 4.55
35.00 4.74
36.00 4.95
37.00 5.16
38.00 5.38
39.00 5.61
40.00 5.85
41.00 6.10
42.00 6.35
43.00 6.61
44.00 6.88
45.00 7.14
46.00 7.41
47.00 7.67
48.00 7.94
49.00 8.20
50.00 8.46
51.00 8.71
52.00 8.95
53.00 9.19
54.00 9.43
55.00 9.66
56.00 9.88
57.00 10.10
58.00 10.32
59.00 10.53
60.00 10.74
61.00 10.96
62.00 11.18
63.00 11.40
64.00 11.63
65.00 11.86
66.00 12.10
67.00 12.36
68.00 12.62
69.00 12.89
70.00 13.17
71.00 13.46
72.00 13.75
73.00 14.06
74.00 14.37
75.00 14.69
76.00 15.01
77.00 15.33
78.00 15.66
79.00 15.98
80.00 16.30
81.00 16.61
82.00 16.93
83.00 17.24
84.00 17.54
85.00 17.85
86.00 18.16
87.00 18.48
88.00 18.80
89.00 19.14
90.00 19.50
91.00 19.88
92.00 20.28
93.00 20.72
94.00 21.18
95.00 21.69
96.00 22.22
97.00 22.80
98.00 23.42
99.00 24.08
100.00 24.78
101.00 25.51
102.00 26.27
103.00 27.04
104.00 27.82
105.00 28.59
106.00 29.33
107.00 30.04
108.00 30.69
109.00 31.29
110.00 31.85
111.00 32.37
112.00 32.89
113.00 33.42
114.00 33.99
115.00 34.61
116.00 35.30
117.00 36.08
118.00 36.93
119.00 37.82
120.00 38.69
121.00 39.42
122.00 39.88
123.00 39.96
124.00 39.67
125.00 39.11
126.00 38.42
127.00 37.71
128.00 37.06
129.00 36.47
130.00 35.98
131.00 35.57
132.00 35.23
133.00 34.96
134.00 34.73
135.00 34.55
136.00 34.38
137.00 34.23
138.00 34.09
139.00 33.96
140.00 33.83
141.00 33.70
142.00 33.59
143.00 33.49
144.00 33.42
145.00 33.37
146.00 33.34
147.00 33.32
148.00 33.32
149.00 33.33
150.00 33.32
151.00 33.30
152.00 33.26
153.00 33.20
154.00 33.12
155.00 33.03
156.00 32.95
157.00 32.88
158.00 32.87
159.00 32.91
160.00 33.04
161.00 33.28
162.00 33.63
163.00 34.13
164.00 34.78
165.00 35.60
166.00 36.59
167.00 37.67
168.00 38.68
169.00 39.26
170.00 39.07
171.00 38.12
172.00 36.80
173.00 35.43
174.00 34.18
175.00 33.12
176.00 32.24
177.00 31.56
178.00 31.05
179.00 30.73
180.00 30.58
181.00 30.60
182.00 30.81
183.00 31.21
184.00 31.83
185.00 32.69
186.00 33.86
187.00 35.39
188.00 37.41
189.00 40.04
190.00 43.10
191.00 44.52
192.00 42.32
193.00 39.38
194.00 37.03
195.00 35.26
196.00 33.95
197.00 33.00
198.00 32.37
199.00 32.00
200.00 31.88
201.00 32.01
202.00 32.39
203.00 33.06
204.00 34.06
205.00 35.48
206.00 37.44
207.00 40.12
208.00 43.35
209.00 44.35
210.00 41.26
211.00 37.91
212.00 35.30
213.00 33.31
214.00 31.76
215.00 30.56
216.00 29.62
217.00 28.90
218.00 28.38
219.00 28.03
220.00 27.84
221.00 27.79
222.00 27.89
223.00 28.12
224.00 28.49
225.00 28.99
226.00 29.62
227.00 30.36
228.00 31.18
229.00 32.02
230.00 32.76
231.00 33.26
232.00 33.37
233.00 33.06
234.00 32.43
235.00 31.64
236.00 30.82
237.00 30.03
238.00 29.31
239.00 28.69
240.00 28.15
241.00 27.70
242.00 27.32
243.00 27.01
244.00 26.75
245.00 26.52
246.00 26.32
247.00 26.13
248.00 25.93
249.00 25.72
250.00 25.49
251.00 25.22
252.00 24.93
253.00 24.60
254.00 24.25
255.00 23.89
256.00 23.51
257.00 23.14
258.00 22.77
259.00 22.42
260.00 22.08
261.00 21.77
262.00 21.48
263.00 21.21
264.00 20.96
265.00 20.73
266.00 20.52
267.00 20.31
268.00 20.11
269.00 19.92
270.00 19.71
271.00 19.49
272.00 19.26
273.00 19.02
274.00 18.75
275.00 18.46
276.00 18.15
277.00 17.83
278.00 17.50
279.00 17.16
280.00 16.81
281.00 16.47
282.00 16.13
283.00 15.79
284.00 15.46
285.00 15.13
286.00 14.82
287.00 14.51
288.00 14.20
289.00 13.91
290.00 13.61
291.00 13.31
292.00 13.02
293.00 12.72
294.00 12.42
295.00 12.12
296.00 11.81
297.00 11.49
298.00 11.17
299.00 10.84
300.00 10.52
301.00 10.18
302.00 9.85
303.00 9.52
304.00 9.18
305.00 8.85
306.00 8.53
307.00 8.21
308.00 7.89
309.00 7.58
310.00 7.28
311.00 6.98
312.00 6.69
313.00 6.40
314.00 6.11
315.00 5.83
316.00 5.55
317.00 5.27
318.00 5.00
319.00 4.73
320.00 4.46
321.00 4.20
322.00 3.95
323.00 3.69
324.00 3.45
325.00 3.21
326.00 2.99
327.00 2.77
328.00 2.56
329.00 2.37
330.00 2.19
331.00 2.02
332.00 1.86
333.00 1.72
334.00 1.59
335.00 1.47
336.00 1.36
337.00 1.26
338.00 1.17
339.00 1.09
340.00 1.02
341.00 0.95
342.00 0.88
343.00 0.81
344.00 0.75
345.00 0.68
346.00 0.62
347.00 0.55
348.00 0.49
349.00 0.42
350.00 0.36
351.00 0.30
352.00 0.24
353.00 0.18
354.00 0.13
355.00 0.09
356.00 0.05
357.00 0.02
358.00 0.01
359.00 0.00
VERTICAL 360
0.00 22.05
1.00 22.11
2.00 24.16
3.00 24.18
4.00 17.01
5.00 10.93
6.00 6.55
7.00 3.43
8.00 1.34
9.00 0.21
10.00 0.03
11.00 0.90
12.00 3.03
13.00 7.04
14.00 15.12
15.00 19.17
16.00 11.79
17.00 9.87
18.00 10.63
19.00 13.70
20.00 18.83
21.00 19.27
22.00 16.26
23.00 15.52
24.00 17.31
25.00 22.84
26.00 26.63
27.00 19.51
28.00 17.03
29.00 17.61
30.00 21.40
31.00 34.30
32.00 26.74
33.00 20.61
34.00 18.96
35.00 19.84
36.00 23.02
37.00 24.68
38.00 20.46
39.00 17.19
40.00 15.41
41.00 14.59
42.00 14.53
43.00 15.24
44.00 16.87
45.00 19.59
46.00 23.43
47.00 28.30
48.00 34.73
49.00 35.52
50.00 28.94
51.00 25.55
52.00 24.25
53.00 24.30
54.00 25.09
55.00 25.74
56.00 25.61
57.00 25.25
58.00 25.53
59.00 26.77
60.00 28.86
61.00 31.44
62.00 34.18
63.00 36.94
64.00 39.54
65.00 40.77
66.00 39.24
67.00 37.37
68.00 36.60
69.00 36.63
70.00 36.83
71.00 37.00
72.00 37.00
73.00 36.79
74.00 37.00
75.00 38.40
76.00 41.33
77.00 45.66
78.00 49.06
79.00 48.46
80.00 48.81
81.00 48.14
82.00 41.99
83.00 38.22
84.00 37.39
85.00 39.33
86.00 42.94
87.00 42.37
88.00 41.32
89.00 44.21
90.00 58.35
91.00 46.43
92.00 40.87
93.00 39.00
94.00 39.23
95.00 41.70
96.00 47.45
97.00 51.64
98.00 47.15
99.00 44.99
100.00 43.89
101.00 43.98
102.00 46.06
103.00 49.47
104.00 50.60
105.00 51.34
106.00 51.44
107.00 48.19
108.00 46.45
109.00 47.09
110.00 49.20
111.00 50.61
112.00 50.14
113.00 49.09
114.00 48.15
115.00 47.16
116.00 45.72
117.00 43.62
118.00 41.24
119.00 39.35
120.00 38.39
121.00 38.11
122.00 37.49
123.00 36.09
124.00 34.93
125.00 34.83
126.00 36.03
127.00 38.38
128.00 40.88
129.00 42.26
130.00 43.68
131.00 47.42
132.00 57.69
133.00 50.28
134.00 44.13
135.00 41.00
136.00 38.86
137.00 37.15
138.00 35.98
139.00 35.69
140.00 36.52
141.00 38.46
142.00 40.62
143.00 41.73
144.00 43.10
145.00 46.81
146.00 49.47
147.00 44.12
148.00 40.24
149.00 38.02
150.00 36.99
151.00 36.64
152.00 36.19
153.00 35.66
154.00 35.93
155.00 37.70
156.00 40.90
157.00 42.28
158.00 40.61
159.00 40.27
160.00 42.65
161.00 49.11
162.00 57.78
163.00 52.18
164.00 48.97
165.00 48.06
166.00 59.81
167.00 43.70
168.00 35.62
169.00 31.99
170.00 30.73
171.00 31.04
172.00 32.41
173.00 34.81
174.00 39.26
175.00 44.16
176.00 39.42
177.00 36.62
178.00 36.22
179.00 36.98
180.00 37.99
181.00 38.84
182.00 39.26
183.00 38.28
184.00 35.96
185.00 34.00
186.00 33.31
187.00 33.96
188.00 35.59
189.00 37.57
190.00 39.69
191.00 41.85
192.00 42.45
193.00 41.53
194.00 41.26
195.00 42.47
196.00 45.09
197.00 46.33
198.00 44.65
199.00 43.68
200.00 43.48
201.00 42.99
202.00 42.72
203.00 43.00
204.00 42.93
205.00 42.39
206.00 41.73
207.00 40.64
208.00 39.79
209.00 40.37
210.00 43.29
211.00 50.61
212.00 61.64
213.00 49.64
214.00 46.02
215.00 43.52
216.00 41.67
217.00 41.05
218.00 42.15
219.00 45.47
220.00 51.03
221.00 52.63
222.00 49.08
223.00 43.37
224.00 38.54
225.00 35.61
226.00 34.33
227.00 34.35
228.00 35.33
229.00 37.12
230.00 40.17
231.00 44.58
232.00 43.45
233.00 39.95
234.00 39.12
235.00 41.48
236.00 49.48
237.00 44.79
238.00 38.92
239.00 36.84
240.00 36.26
241.00 35.88
242.00 35.48
243.00 35.65
244.00 36.59
245.00 37.87
246.00 38.90
247.00 39.68
248.00 41.08
249.00 44.25
250.00 50.19
251.00 57.09
252.00 55.77
253.00 47.60
254.00 43.38
255.00 42.56
256.00 44.22
257.00 46.85
258.00 50.81
259.00 54.98
260.00 44.35
261.00 40.14
262.00 39.18
263.00 39.95
264.00 40.40
265.00 38.98
266.00 36.45
267.00 33.96
268.00 32.15
269.00 31.19
270.00 31.00
271.00 31.40
272.00 32.00
273.00 32.26
274.00 32.10
275.00 31.85
276.00 31.78
277.00 32.09
278.00 32.92
279.00 34.12
280.00 35.08
281.00 35.24
282.00 34.56
283.00 33.51
284.00 32.57
285.00 31.78
286.00 30.80
287.00 29.43
288.00 27.90
289.00 26.66
290.00 25.99
291.00 25.82
292.00 25.58
293.00 24.65
294.00 23.09
295.00 21.46
296.00 19.93
297.00 18.40
298.00 16.76
299.00 15.21
300.00 13.93
301.00 13.02
302.00 12.47
303.00 12.23
304.00 12.33
305.00 12.89
306.00 14.15
307.00 16.43
308.00 20.23
309.00 25.09
310.00 24.79
311.00 21.43
312.00 19.11
313.00 17.94
314.00 17.80
315.00 18.81
316.00 21.38
317.00 26.05
318.00 27.50
319.00 23.06
320.00 20.76
321.00 20.77
322.00 23.20
323.00 28.79
324.00 27.69
325.00 22.06
326.00 19.38
327.00 18.84
328.00 20.53
329.00 26.34
330.00 36.10
331.00 22.40
332.00 18.62
333.00 17.98
334.00 20.00
335.00 25.40
336.00 23.41
337.00 17.42
338.00 14.22
339.00 12.93
340.00 13.27
341.00 15.29
342.00 19.49
343.00 28.59
344.00 29.96
345.00 22.40
346.00 19.93
347.00 18.94
348.00 18.14
349.00 17.54
350.00 18.10
351.00 20.96
352.00 29.42
353.00 30.14
354.00 22.41
355.00 20.55
356.00 21.62
357.00 25.30
358.00 27.80
359.00 24.18
